time_dn,ecg_projection_ll_ra_mV,ecg_projection_la_ra_mV,ecg_projection_vx_rl_mV
738280.36399598314892500639,1.68635110527868,-2.79417299925738,343.252459283222
738280.36399607360363006592,1.66173284096805,-2.79417299925738,343.301695811843
738280.36399616405833512545,1.71096936958932,-2.76955473494675,343.301695811843
738280.36399625439662486315,1.71096936958932,-2.78186386710206,343.277077547533
738280.36399634485132992268,1.73558763389996,-2.74493647063611,343.375550604775
738280.36399643530603498220,1.74789676605528,-2.73262733848079,343.375550604775
738280.36399652576074004173,1.64942370881273,-2.81879126356802,343.38785973693
738280.36399661621544510126,1.64942370881273,-2.8064821314127,343.375550604775
738280.36399670655373483896,1.63711457665741,-2.83110039572334,343.437096265552
738280.36399679700843989849,1.62480544450209,-2.84340952787866,343.400168869086
738280.36399688746314495802,1.64942370881273,-2.8064821314127,343.38785973693
738280.36399697791785001755,1.67404197312337,-2.78186386710206,343.400168869086
738280.36399706837255507708,1.68635110527868,-2.79417299925738,343.400168869086
738280.36399715882726013660,1.67404197312337,-2.79417299925738,343.350932340465
738280.36399724916554987431,1.67404197312337,-2.79417299925738,343.36324147262
738280.36399733962025493383,1.71096936958932,-2.75724560279143,343.424787133396
738280.36399743007495999336,1.67404197312337,-2.79417299925738,343.424787133396
738280.36399752052966505289,1.68635110527868,-2.79417299925738,343.338623208309
738280.36399761098437011242,1.64942370881273,-2.84340952787866,343.326314076154
738280.36399770143907517195,1.698660237434,-2.78186386710206,343.350932340465
738280.36399779177736490965,1.66173284096805,-2.8064821314127,343.314004943999
738280.36399788223206996918,1.67404197312337,-2.8064821314127,343.338623208309
738280.36399797268677502871,1.74789676605528,-2.74493647063611,343.326314076154
738280.36399806314148008823,1.68635110527868,-2.78186386710206,343.338623208309
738280.36399815359618514776,1.71096936958932,-2.75724560279143,343.400168869086
738280.36399824393447488546,1.71096936958932,-2.74493647063611,343.412478001241
738280.36399833438917994499,1.71096936958932,-2.73262733848079,343.17860449029
738280.36399842484388500452,1.68635110527868,-2.78186386710206,343.277077547533
738280.36399851529859006405,1.68635110527868,-2.78186386710206,343.375550604775
738280.36399860575329512358,1.7602058982106,-2.69569994201483,343.38785973693
738280.36399869620800018311,1.71096936958932,-2.74493647063611,343.350932340465
738280.36399878654628992081,1.68635110527868,-2.76955473494675,343.400168869086
738280.36399887700099498034,1.61249631234677,-2.83110039572334,343.375550604775
738280.36399896745570003986,1.64942370881273,-2.78186386710206,343.36324147262
738280.36399905791040509939,1.64942370881273,-2.76955473494675,343.375550604775
738280.36399914836511015892,1.63711457665741,-2.8064821314127,343.375550604775
738280.36399923870339989662,1.67404197312337,-2.79417299925738,343.38785973693
738280.36399932915810495615,1.68635110527868,-2.81879126356802,343.400168869086
738280.36399941961281001568,1.66173284096805,-2.81879126356802,343.326314076154
738280.36399951006751507521,1.67404197312337,-2.78186386710206,343.314004943999
738280.36399960052222013474,1.62480544450209,-2.96650084943185,343.314004943999
738280.36399969097692519426,1.72327850174464,-2.94188258512121,343.215531886756
738280.36399978131521493196,2.12947986287016,-2.33873510951058,343.326314076154
738280.36399987176991999149,2.54799035615101,-1.41555019786167,343.486332794173
738280.36399996222462505102,2.46182643106377,-1.3047680084638,343.474023662018
738280.36400005267933011055,1.90791548407442,-2.16640725933612,343.437096265552
738280.36400014313403517008,1.39093193355103,-2.69569994201483,343.461714529862
738280.36400023347232490778,1.25553147984252,-2.94188258512121,343.54787845495
738280.36400032392702996731,1.40324106570635,-2.97880998158717,343.474023662018
738280.36400041438173502684,1.5632597837255,-2.88033692434461,343.424787133396
738280.36400050483644008636,1.58787804803613,-2.88033692434461,343.375550604775
738280.36400059529114514589,1.58787804803613,-2.8680277921893,343.400168869086
738280.36400068574585020542,1.66173284096805,-2.8064821314127,343.400168869086
738280.36400077608413994312,1.66173284096805,-2.79417299925738,343.338623208309
738280.36400086653884500265,1.62480544450209,-2.85571866003398,343.375550604775
738280.36400095699355006218,1.64942370881273,-2.84340952787866,343.38785973693
738280.36400104744825512171,1.63711457665741,-2.8064821314127,343.400168869086
738280.36400113790296018124,1.64942370881273,-2.81879126356802,343.424787133396
738280.36400122824124991894,1.67404197312337,-2.81879126356802,343.36324147262
738280.36400131869595497847,1.698660237434,-2.78186386710206,343.400168869086
738280.36400140915066003799,1.64942370881273,-2.81879126356802,343.375550604775
738280.36400149960536509752,1.698660237434,-2.8064821314127,343.36324147262
738280.36400159006007015705,1.68635110527868,-2.81879126356802,343.38785973693
738280.36400168051477521658,1.7602058982106,-2.73262733848079,343.412478001241
738280.36400177085306495428,1.698660237434,-2.78186386710206,343.338623208309
738280.36400186130777001381,1.71096936958932,-2.75724560279143,343.17860449029
738280.36400195176247507334,1.78482416252124,-2.72031820632547,343.240150151067
738280.36400204221718013287,1.7602058982106,-2.73262733848079,343.350932340465
738280.36400213267188519239,1.80944242683187,-2.67108167770419,343.338623208309
738280.36400222301017493010,1.89560635191911,-2.59722688477228,343.17860449029
738280.36400231346487998962,1.84636982329783,-2.65877254554888,343.289386679688
738280.36400240391958504915,1.90791548407442,-2.58491775261696,343.301695811843
738280.36400249437429010868,1.96946114485102,-2.51106295968505,343.240150151067
738280.36400258482899516821,2.01869767347229,-2.48644469537441,343.252459283222
738280.36400267528370022774,2.04331593778293,-2.43720816675314,343.227841018911
738280.36400276562198996544,2.04331593778293,-2.42489903459782,343.252459283222
738280.36400285607669502497,2.06793420209357,-2.38797163813186,343.240150151067
738280.36400294653140008450,2.06793420209357,-2.40028077028718,343.240150151067
738280.36400303698610514402,2.00638854131698,-2.44951729890845,343.264768415377
738280.36400312744081020355,1.87098808760847,-2.59722688477228,343.264768415377
738280.36400321777909994125,1.82175155898719,-2.62184514908292,343.326314076154
738280.36400330823380500078,1.82175155898719,-2.59722688477228,343.289386679688
738280.36400339868851006031,1.71096936958932,-2.72031820632547,343.326314076154
738280.36400348914321511984,1.71096936958932,-2.72031820632547,343.36324147262
738280.36400357959792017937,1.74789676605528,-2.68339080985951,343.400168869086
738280.36400367005262523890,1.66173284096805,-2.74493647063611,343.36324147262
738280.36400376039091497660,1.71096936958932,-2.74493647063611,343.36324147262
738280.36400385084562003613,1.71096936958932,-2.72031820632547,343.277077547533
738280.36400394130032509565,1.72327850174464,-2.70800907417015,343.350932340465
738280.36400403175503015518,1.68635110527868,-2.74493647063611,343.36324147262
738280.36400412220973521471,1.66173284096805,-2.78186386710206,343.412478001241
738280.36400421254802495241,1.68635110527868,-2.74493647063611,343.338623208309
738280.36400430300273001194,1.66173284096805,-2.78186386710206,343.36324147262
738280.36400439345743507147,1.63711457665741,-2.79417299925738,343.314004943999
738280.36400448391214013100,1.71096936958932,-2.73262733848079,343.36324147262
738280.36400457436684519053,1.62480544450209,-2.8064821314127,343.375550604775
738280.36400466482155025005,1.698660237434,-2.74493647063611,343.36324147262
738280.36400475515983998775,1.64942370881273,-2.81879126356802,343.375550604775
738280.36400484561454504728,1.698660237434,-2.76955473494675,343.437096265552
738280.36400493606925010681,1.72327850174464,-2.73262733848079,343.36324147262
738280.36400502652395516634,1.67404197312337,-2.76955473494675,343.350932340465
738280.36400511697866022587,1.74789676605528,-2.72031820632547,343.400168869086
738280.36400520731694996357,1.67404197312337,-2.79417299925738,343.38785973693
738280.36400529777165502310,1.71096936958932,-2.75724560279143,343.375550604775
738280.36400538822636008263,1.63711457665741,-2.8064821314127,343.227841018911
738280.36400547868106514215,1.63711457665741,-2.8064821314127,343.277077547533
738280.36400556913577020168,1.67404197312337,-2.76955473494675,343.375550604775
738280.36400565959047526121,1.73558763389996,-2.72031820632547,343.326314076154
738280.36400574992876499891,1.68635110527868,-2.75724560279143,343.215531886756
738280.36400584038347005844,1.67404197312337,-2.78186386710206,343.277077547533
738280.36400593083817511797,1.64942370881273,-2.79417299925738,343.314004943999
738280.36400602129288017750,1.68635110527868,-2.74493647063611,343.375550604775
738280.36400611174758523703,1.67404197312337,-2.75724560279143,343.338623208309
738280.36400620220229029655,1.67404197312337,-2.75724560279143,343.338623208309
738280.36400629254058003426,1.71096936958932,-2.73262733848079,343.301695811843
738280.36400638299528509378,1.64942370881273,-2.78186386710206,343.289386679688
738280.36400647344999015331,1.66173284096805,-2.76955473494675,343.289386679688
738280.36400656390469521284,1.64942370881273,-2.76955473494675,343.277077547533
738280.36400665435940027237,1.72327850174464,-2.74493647063611,343.301695811843
738280.36400674469769001007,1.64942370881273,-2.79417299925738,343.277077547533
738280.36400683515239506960,1.64942370881273,-2.78186386710206,343.301695811843
738280.36400692560710012913,1.67404197312337,-2.76955473494675,343.289386679688
738280.36400701606180518866,1.74789676605528,-2.72031820632547,343.277077547533
738280.36400710651651024818,1.698660237434,-2.76955473494675,343.338623208309
738280.36400719697121530771,1.72327850174464,-2.73262733848079,343.338623208309
738280.36400728730950504541,1.7602058982106,-2.68339080985951,343.350932340465
738280.36400737776421010494,1.7602058982106,-2.68339080985951,343.36324147262
738280.36400746821891516447,1.67404197312337,-2.74493647063611,343.38785973693
738280.36400755867362022400,1.77251503036592,-2.64646341339356,343.350932340465
738280.36400764912832528353,1.73558763389996,-2.69569994201483,343.350932340465
738280.36400773946661502123,1.73558763389996,-2.68339080985951,343.38785973693
738280.36400782992132008076,1.63711457665741,-2.78186386710206,343.338623208309
738280.36400792037602514029,1.66173284096805,-2.76955473494675,343.350932340465
738280.36400801083073019981,1.71096936958932,-2.70800907417015,343.338623208309
738280.36400810128543525934,1.67404197312337,-2.73262733848079,343.338623208309
738280.36400819174014031887,1.71096936958932,-2.70800907417015,343.36324147262
738280.36400828207843005657,1.698660237434,-2.74493647063611,343.400168869086
738280.36400837253313511610,1.61249631234677,-2.8064821314127,343.38785973693
738280.36400846298784017563,1.66173284096805,-2.74493647063611,343.375550604775
738280.36400855344254523516,1.63711457665741,-2.78186386710206,343.400168869086
738280.36400864389725029469,1.66173284096805,-2.76955473494675,343.301695811843
738280.36400873423554003239,1.61249631234677,-2.91726432081057,343.326314076154
738280.36400882469024509192,1.7602058982106,-2.88033692434461,343.277077547533
738280.36400891514495015144,2.1540981271808,-2.27718944873399,343.227841018911
738280.36400900559965521097,2.54799035615101,-1.36631366924039,343.338623208309
738280.36400909605436027050,2.43720816675314,-1.21860408337657,343.54787845495
738280.36400918650906533003,1.99407940916166,-2.00638854131698,343.38785973693
738280.36400927684735506773,1.47709585863826,-2.58491775261696,343.510951058484
738280.36400936730206012726,1.28014974415316,-2.88033692434461,343.54787845495
738280.36400945775676518679,1.42785933001699,-2.91726432081057,343.461714529862
738280.36400954821147024632,1.5017141229489,-2.92957345296589,343.449405397707
738280.36400963866617530584,1.63711457665741,-2.81879126356802,343.301695811843
738280.36400972900446504354,1.64942370881273,-2.75724560279143,343.375550604775
738280.36400981945917010307,1.61249631234677,-2.79417299925738,343.424787133396
738280.36400990991387516260,1.66173284096805,-2.8064821314127,343.36324147262
738280.36401000036858022213,1.66173284096805,-2.78186386710206,343.36324147262
738280.36401009082328528166,1.66173284096805,-2.76955473494675,343.38785973693
738280.36401018127799034119,1.67404197312337,-2.74493647063611,343.424787133396
738280.36401027161628007889,1.68635110527868,-2.75724560279143,343.338623208309
738280.36401036207098513842,1.71096936958932,-2.73262733848079,343.375550604775
738280.36401045252569019794,1.64942370881273,-2.78186386710206,343.314004943999
738280.36401054298039525747,1.73558763389996,-2.69569994201483,343.314004943999
738280.36401063343510031700,1.64942370881273,-2.78186386710206,343.314004943999
738280.36401072377339005470,1.68635110527868,-2.76955473494675,343.314004943999
738280.36401081422809511423,1.7602058982106,-2.67108167770419,343.326314076154
738280.36401090468280017376,1.68635110527868,-2.75724560279143,343.326314076154
738280.36401099513750523329,1.72327850174464,-2.73262733848079,343.289386679688
738280.36401108559221029282,1.80944242683187,-2.64646341339356,343.301695811843
738280.36401117604691535234,1.74789676605528,-2.67108167770419,343.301695811843
738280.36401126638520509005,1.78482416252124,-2.65877254554888,343.301695811843
738280.36401135683991014957,1.89560635191911,-2.56029948830632,343.301695811843
738280.36401144729461520910,1.90791548407442,-2.54799035615101,343.264768415377
738280.36401153774932026863,1.98177027700634,-2.46182643106377,343.277077547533
738280.36401162820402532816,1.90791548407442,-2.52337209184037,343.264768415377
738280.36401171854231506586,1.94484288054038,-2.48644469537441,343.264768415377
738280.36401180899702012539,2.00638854131698,-2.4125899024425,343.227841018911
738280.36401189945172518492,2.05562506993825,-2.38797163813186,343.301695811843
738280.36401198990643024445,2.08024333424889,-2.32642597735527,343.240150151067
738280.36401208036113530397,2.05562506993825,-2.36335337382122,343.326314076154
738280.36401217081584036350,1.98177027700634,-2.40028077028718,343.301695811843
738280.36401226115413010120,1.96946114485102,-2.44951729890845,343.289386679688
738280.36401235160883516073,1.92022461622974,-2.48644469537441,343.314004943999
738280.36401244206354022026,1.85867895545315,-2.52337209184037,343.227841018911
738280.36401253251824527979,1.74789676605528,-2.63415428123824,343.190913622445
738280.36401262297295033932,1.78482416252124,-2.62184514908292,343.375550604775
738280.36401271331124007702,1.68635110527868,-2.69569994201483,343.36324147262
738280.36401280376594513655,1.71096936958932,-2.67108167770419,343.412478001241
738280.36401289422065019608,1.698660237434,-2.72031820632547,343.375550604775
738280.36401298467535525560,1.73558763389996,-2.65877254554888,343.38785973693
738280.36401307513006031513,1.67404197312337,-2.69569994201483,343.424787133396
738280.36401316558476537466,1.698660237434,-2.68339080985951,343.350932340465
738280.36401325592305511236,1.68635110527868,-2.70800907417015,343.437096265552
738280.36401334637776017189,1.62480544450209,-2.74493647063611,343.437096265552
738280.36401343683246523142,1.68635110527868,-2.73262733848079,343.314004943999
738280.36401352728717029095,1.72327850174464,-2.69569994201483,343.38785973693
738280.36401361774187535048,1.72327850174464,-2.67108167770419,343.400168869086
738280.36401370819658041000,1.73558763389996,-2.68339080985951,343.38785973693
738280.36401379853487014771,1.67404197312337,-2.74493647063611,343.314004943999
738280.36401388898957520723,1.67404197312337,-2.75724560279143,343.437096265552
738280.36401397944428026676,1.78482416252124,-2.64646341339356,343.400168869086
738280.36401406989898532629,1.68635110527868,-2.73262733848079,343.289386679688
738280.36401416035369038582,1.68635110527868,-2.72031820632547,343.375550604775
738280.36401425069198012352,1.73558763389996,-2.65877254554888,343.400168869086
738280.36401434114668518305,1.71096936958932,-2.70800907417015,343.38785973693
738280.36401443160139024258,1.71096936958932,-2.70800907417015,343.36324147262
738280.36401452205609530210,1.68635110527868,-2.72031820632547,343.289386679688
738280.36401461251080036163,1.73558763389996,-2.67108167770419,343.301695811843
738280.36401470296550542116,1.64942370881273,-2.74493647063611,343.301695811843
738280.36401479330379515886,1.68635110527868,-2.73262733848079,343.314004943999
738280.36401488375850021839,1.72327850174464,-2.68339080985951,343.301695811843
738280.36401497421320527792,1.68635110527868,-2.74493647063611,343.289386679688
738280.36401506466791033745,1.74789676605528,-2.67108167770419,343.350932340465
738280.36401515512261539698,1.66173284096805,-2.73262733848079,343.400168869086
738280.36401524546090513468,1.61249631234677,-2.78186386710206,343.326314076154
738280.36401533591561019421,1.74789676605528,-2.64646341339356,343.38785973693
738280.36401542637031525373,1.71096936958932,-2.68339080985951,343.400168869086
738280.36401551682502031326,1.62480544450209,-2.78186386710206,343.424787133396
738280.36401560727972537279,1.67404197312337,-2.73262733848079,343.350932340465
738280.36401569773443043232,1.66173284096805,-2.73262733848079,343.474023662018
738280.36401578807272017002,1.71096936958932,-2.69569994201483,343.449405397707
738280.36401587852742522955,1.68635110527868,-2.73262733848079,343.424787133396
738280.36401596898213028908,1.71096936958932,-2.69569994201483,343.289386679688
738280.36401605943683534861,1.62480544450209,-2.78186386710206,343.203222754601
738280.36401614989154040813,1.66173284096805,-2.74493647063611,343.314004943999
738280.36401624022983014584,1.66173284096805,-2.73262733848079,343.326314076154
738280.36401633068453520536,1.68635110527868,-2.70800907417015,343.338623208309
738280.36401642113924026489,1.74789676605528,-2.65877254554888,343.350932340465
738280.36401651159394532442,1.74789676605528,-2.64646341339356,343.350932340465
738280.36401660204865038395,1.698660237434,-2.69569994201483,343.36324147262
738280.36401669250335544348,1.77251503036592,-2.62184514908292,343.326314076154
738280.36401678284164518118,1.77251503036592,-2.63415428123824,343.338623208309
738280.36401687329635024071,1.72327850174464,-2.68339080985951,343.375550604775
738280.36401696375105530024,1.63711457665741,-2.74493647063611,343.424787133396
738280.36401705420576035976,1.62480544450209,-2.72031820632547,343.338623208309
738280.36401714466046541929,1.66173284096805,-2.69569994201483,343.38785973693
738280.36401723499875515699,1.67404197312337,-2.67108167770419,343.350932340465
738280.36401732545346021652,1.68635110527868,-2.69569994201483,343.424787133396
738280.36401741590816527605,1.67404197312337,-2.73262733848079,343.449405397707
738280.36401750636287033558,1.67404197312337,-2.72031820632547,343.38785973693
738280.36401759681757539511,1.66173284096805,-2.73262733848079,343.38785973693
738280.36401768727228045464,1.60018718019145,-2.79417299925738,343.449405397707
738280.36401777761057019234,1.66173284096805,-2.73262733848079,343.412478001241
738280.36401786806527525187,1.61249631234677,-2.8680277921893,343.301695811843
738280.36401795851998031139,1.71096936958932,-2.88033692434461,343.301695811843
738280.36401804897468537092,1.93253374838506,-2.53568122399569,343.400168869086
738280.36401813942939043045,2.46182643106377,-1.5017141229489,343.38785973693
738280.36401822976768016815,2.42489903459782,-1.08320362966806,343.523260190639
738280.36401832022238522768,2.09255246640421,-1.82175155898719,343.326314076154
738280.36401841067709028721,1.5632597837255,-2.48644469537441,343.437096265552
738280.36401850113179534674,1.29245887630848,-2.83110039572334,343.498641926328
738280.36401859158650040627,1.36631366924039,-2.91726432081057,343.474023662018
738280.36401868204120546579,1.45247759432763,-2.91726432081057,343.474023662018
738280.36401877237949520350,1.58787804803613,-2.81879126356802,343.338623208309
738280.36401886283420026302,1.63711457665741,-2.75724560279143,343.375550604775
738280.36401895328890532255,1.66173284096805,-2.76955473494675,343.314004943999
738280.36401904374361038208,1.63711457665741,-2.76955473494675,343.314004943999
738280.36401913419831544161,1.63711457665741,-2.76955473494675,343.326314076154
738280.36401922453660517931,1.698660237434,-2.72031820632547,343.277077547533
738280.36401931499131023884,1.63711457665741,-2.75724560279143,343.314004943999
738280.36401940544601529837,1.68635110527868,-2.74493647063611,343.338623208309
738280.36401949590072035789,1.71096936958932,-2.69569994201483,343.375550604775
738280.36401958635542541742,1.67404197312337,-2.73262733848079,343.36324147262
738280.36401967681013047695,1.63711457665741,-2.78186386710206,343.301695811843
738280.36401976714842021465,1.698660237434,-2.72031820632547,343.36324147262
738280.36401985760312527418,1.64942370881273,-2.76955473494675,343.400168869086
738280.36401994805783033371,1.72327850174464,-2.70800907417015,343.326314076154
738280.36402003851253539324,1.68635110527868,-2.72031820632547,343.338623208309
738280.36402012896724045277,1.72327850174464,-2.68339080985951,343.36324147262
738280.36402021930553019047,1.78482416252124,-2.63415428123824,343.36324147262
738280.36402030976023525000,1.7602058982106,-2.65877254554888,343.38785973693
738280.36402040021494030952,1.87098808760847,-2.54799035615101,343.36324147262
738280.36402049066964536905,1.83406069114251,-2.58491775261696,343.326314076154
738280.36402058112435042858,1.90791548407442,-2.52337209184037,343.338623208309
738280.36402067157905548811,1.85867895545315,-2.53568122399569,343.38785973693
738280.36402076191734522581,1.94484288054038,-2.43720816675314,343.375550604775
738280.36402085237205028534,1.9571520126957,-2.44951729890845,343.289386679688
738280.36402094282675534487,2.00638854131698,-2.36335337382122,343.289386679688
738280.36402103328146040440,2.05562506993825,-2.32642597735527,343.326314076154
738280.36402112373616546392,2.04331593778293,-2.36335337382122,343.314004943999
738280.36402121407445520163,2.01869767347229,-2.3510442416659,343.350932340465
738280.36402130452916026115,2.03100680562761,-2.30180771304463,343.38785973693
738280.36402139498386532068,1.94484288054038,-2.4125899024425,343.350932340465
738280.36402148543857038021,1.87098808760847,-2.48644469537441,343.326314076154
738280.36402157589327543974,1.84636982329783,-2.52337209184037,343.314004943999
738280.36402166634798049927,1.79713329467655,-2.59722688477228,343.301695811843
738280.36402175668627023697,1.73558763389996,-2.65877254554888,343.264768415377
738280.36402184714097529650,1.68635110527868,-2.70800907417015,343.289386679688
738280.36402193759568035603,1.71096936958932,-2.67108167770419,343.350932340465
738280.36402202805038541555,1.72327850174464,-2.65877254554888,343.338623208309
738280.36402211850509047508,1.66173284096805,-2.69569994201483,343.400168869086
738280.36402220895979553461,1.72327850174464,-2.67108167770419,343.424787133396
738280.36402229929808527231,1.698660237434,-2.70800907417015,343.38785973693
738280.36402238975279033184,1.74789676605528,-2.68339080985951,343.38785973693
738280.36402248020749539137,1.698660237434,-2.69569994201483,343.400168869086
738280.36402257066220045090,1.698660237434,-2.69569994201483,343.400168869086
738280.36402266111690551043,1.66173284096805,-2.73262733848079,343.350932340465
738280.36402275145519524813,1.71096936958932,-2.70800907417015,343.38785973693
738280.36402284190990030766,1.68635110527868,-2.74493647063611,343.375550604775
738280.36402293236460536718,1.698660237434,-2.73262733848079,343.375550604775
738280.36402302281931042671,1.71096936958932,-2.72031820632547,343.314004943999
738280.36402311327401548624,1.71096936958932,-2.72031820632547,343.227841018911
738280.36402320372872054577,1.72327850174464,-2.69569994201483,343.412478001241
738280.36402329406701028347,1.73558763389996,-2.65877254554888,343.289386679688
738280.36402338452171534300,1.698660237434,-2.70800907417015,343.375550604775
738280.36402347497642040253,1.71096936958932,-2.69569994201483,343.338623208309
738280.36402356543112546206,1.73558763389996,-2.69569994201483,343.326314076154
738280.36402365588583052158,1.68635110527868,-2.73262733848079,343.314004943999
738280.36402374622412025928,1.698660237434,-2.72031820632547,343.314004943999
738280.36402383667882531881,1.71096936958932,-2.73262733848079,343.38785973693
738280.36402392713353037834,1.68635110527868,-2.70800907417015,343.36324147262
738280.36402401758823543787,1.68635110527868,-2.73262733848079,343.277077547533
738280.36402410804294049740,1.78482416252124,-2.65877254554888,343.38785973693
738280.36402419849764555693,1.698660237434,-2.74493647063611,343.38785973693
738280.36402428883593529463,1.68635110527868,-2.73262733848079,343.36324147262
738280.36402437929064035416,1.73558763389996,-2.69569994201483,343.338623208309
738280.36402446974534541368,1.67404197312337,-2.74493647063611,343.38785973693
738280.36402456020005047321,1.73558763389996,-2.70800907417015,343.314004943999
738280.36402465065475553274,1.66173284096805,-2.74493647063611,343.338623208309
738280.36402474099304527044,1.64942370881273,-2.75724560279143,343.301695811843
738280.36402483144775032997,1.74789676605528,-2.69569994201483,343.36324147262
738280.36402492190245538950,1.79713329467655,-2.64646341339356,343.350932340465
738280.36402501235716044903,1.62480544450209,-2.81879126356802,343.326314076154
738280.36402510281186550856,1.67404197312337,-2.76955473494675,343.264768415377
738280.36402519326657056808,1.71096936958932,-2.72031820632547,343.301695811843
738280.36402528360486030579,1.72327850174464,-2.70800907417015,343.326314076154
738280.36402537405956536531,1.73558763389996,-2.69569994201483,343.301695811843
738280.36402546451427042484,1.72327850174464,-2.69569994201483,343.314004943999
738280.36402555496897548437,1.77251503036592,-2.65877254554888,343.326314076154
738280.36402564542368054390,1.7602058982106,-2.67108167770419,343.301695811843
738280.36402573576197028160,1.79713329467655,-2.64646341339356,343.350932340465
738280.36402582621667534113,1.7602058982106,-2.68339080985951,343.375550604775
738280.36402591667138040066,1.73558763389996,-2.68339080985951,343.400168869086
738280.36402600712608546019,1.73558763389996,-2.69569994201483,343.36324147262
738280.36402609758079051971,1.698660237434,-2.72031820632547,343.461714529862
738280.36402618803549557924,1.71096936958932,-2.70800907417015,343.461714529862
738280.36402627837378531694,1.72327850174464,-2.70800907417015,343.375550604775
738280.36402636882849037647,1.67404197312337,-2.76955473494675,343.424787133396
738280.36402645928319543600,1.7602058982106,-2.67108167770419,343.424787133396
738280.36402654973790049553,1.73558763389996,-2.72031820632547,343.38785973693
738280.36402664019260555506,1.64942370881273,-2.81879126356802,343.240150151067
738280.36402673053089529276,1.67404197312337,-2.78186386710206,343.375550604775
738280.36402682098560035229,1.67404197312337,-2.76955473494675,343.314004943999
738280.36402691144030541182,1.73558763389996,-2.78186386710206,343.326314076154
738280.36402700189501047134,1.72327850174464,-2.92957345296589,343.264768415377
738280.36402709234971553087,1.92022461622974,-2.63415428123824,343.289386679688
738280.36402718280442059040,2.31411684519995,-1.78482416252124,343.437096265552
738280.36402727314271032810,2.33873510951058,-1.18167668691061,343.646351512192
738280.36402736359741538763,2.10486159855953,-1.77251503036592,343.437096265552
738280.36402745405212044716,1.61249631234677,-2.58491775261696,343.461714529862
738280.36402754450682550669,1.26784061199784,-2.97880998158717,343.560187587105
738280.36402763496153056622,1.37862280139571,-2.99111911374248,343.461714529862
738280.36402772529982030392,1.47709585863826,-2.97880998158717,343.375550604775
738280.36402781575452536345,1.57556891588082,-2.89264605649993,343.400168869086
738280.36402790620923042297,1.62480544450209,-2.81879126356802,343.375550604775
738280.36402799666393548250,1.67404197312337,-2.78186386710206,343.375550604775
738280.36402808711864054203,1.72327850174464,-2.76955473494675,343.375550604775
738280.36402817757334560156,1.73558763389996,-2.73262733848079,343.400168869086
738280.36402826791163533926,1.72327850174464,-2.73262733848079,343.400168869086
738280.36402835836634039879,1.72327850174464,-2.70800907417015,343.424787133396
738280.36402844882104545832,1.73558763389996,-2.73262733848079,343.338623208309
738280.36402853927575051785,1.71096936958932,-2.78186386710206,343.400168869086
738280.36402862973045557737,1.7602058982106,-2.73262733848079,343.412478001241
738280.36402872006874531507,1.64942370881273,-2.8064821314127,343.424787133396
738280.36402881052345037460,1.71096936958932,-2.74493647063611,343.375550604775
738280.36402890097815543413,1.71096936958932,-2.74493647063611,343.400168869086
738280.36402899143286049366,1.7602058982106,-2.72031820632547,343.437096265552
738280.36402908188756555319,1.84636982329783,-2.64646341339356,343.350932340465
738280.36402917234227061272,1.79713329467655,-2.69569994201483,343.412478001241
738280.36402926268056035042,1.77251503036592,-2.68339080985951,343.38785973693
738280.36402935313526540995,1.83406069114251,-2.6095360169276,343.36324147262
738280.36402944358997046947,1.84636982329783,-2.59722688477228,343.326314076154
738280.36402953404467552900,1.90791548407442,-2.57260862046164,343.338623208309
738280.36402962449938058853,1.94484288054038,-2.52337209184037,343.350932340465
738280.36402971495408564806,1.94484288054038,-2.52337209184037,343.350932340465
738280.36402980529237538576,1.96946114485102,-2.47413556321909,343.338623208309
738280.36402989574708044529,2.08024333424889,-2.36335337382122,343.350932340465
738280.36402998620178550482,2.09255246640421,-2.3510442416659,343.375550604775
738280.36403007665649056435,2.06793420209357,-2.32642597735527,343.190913622445
738280.36403016711119562387,2.14178899502548,-2.26488031657867,343.338623208309
738280.36403025744948536158,2.08024333424889,-2.32642597735527,343.326314076154
738280.36403034790419042110,2.04331593778293,-2.36335337382122,343.38785973693
738280.36403043835889548063,2.03100680562761,-2.37566250597654,343.437096265552
738280.36403052881360054016,2.05562506993825,-2.3510442416659,343.424787133396
738280.36403061926830559969,1.84636982329783,-2.54799035615101,343.400168869086
738280.36403070972301065922,1.92022461622974,-2.53568122399569,343.326314076154
738280.36403080006130039692,1.80944242683187,-2.64646341339356,343.375550604775
738280.36403089051600545645,1.77251503036592,-2.69569994201483,343.437096265552
738280.36403098097071051598,1.7602058982106,-2.69569994201483,343.400168869086
738280.36403107142541557550,1.73558763389996,-2.72031820632547,343.400168869086
738280.36403116188012063503,1.73558763389996,-2.70800907417015,343.412478001241
738280.36403125221841037273,1.72327850174464,-2.73262733848079,343.424787133396
738280.36403134267311543226,1.7602058982106,-2.70800907417015,343.375550604775
738280.36403143312782049179,1.80944242683187,-2.63415428123824,343.474023662018
738280.36403152358252555132,1.79713329467655,-2.64646341339356,343.461714529862
738280.36403161403723061085,1.71096936958932,-2.75724560279143,343.338623208309
738280.36403170449193567038,1.71096936958932,-2.73262733848079,343.412478001241
738280.36403179483022540808,1.82175155898719,-2.63415428123824,343.437096265552
738280.36403188528493046761,1.79713329467655,-2.67108167770419,343.38785973693
738280.36403197573963552713,1.73558763389996,-2.72031820632547,343.38785973693
738280.36403206619434058666,1.7602058982106,-2.67108167770419,343.424787133396
738280.36403215664904564619,1.7602058982106,-2.69569994201483,343.449405397707
738280.36403224698733538389,1.78482416252124,-2.69569994201483,343.301695811843
738280.36403233744204044342,1.83406069114251,-2.6095360169276,343.326314076154
738280.36403242789674550295,1.74789676605528,-2.69569994201483,343.314004943999
738280.36403251835145056248,1.7602058982106,-2.69569994201483,343.326314076154
738280.36403260880615562201,1.74789676605528,-2.70800907417015,343.338623208309
738280.36403269926086068153,1.79713329467655,-2.65877254554888,343.36324147262
738280.36403278959915041924,1.74789676605528,-2.70800907417015,343.301695811843
738280.36403288005385547876,1.78482416252124,-2.68339080985951,343.375550604775
738280.36403297050856053829,1.7602058982106,-2.72031820632547,343.326314076154
738280.36403306096326559782,1.74789676605528,-2.69569994201483,343.301695811843
738280.36403315141797065735,1.74789676605528,-2.70800907417015,343.314004943999
738280.36403324175626039505,1.82175155898719,-2.63415428123824,343.350932340465
738280.36403333221096545458,1.698660237434,-2.73262733848079,343.38785973693
738280.36403342266567051411,1.72327850174464,-2.73262733848079,343.412478001241
738280.36403351312037557364,1.79713329467655,-2.68339080985951,343.375550604775
738280.36403360357508063316,1.7602058982106,-2.67108167770419,343.153986225979
738280.36403369402978569269,1.7602058982106,-2.69569994201483,343.252459283222
738280.36403378436807543039,1.77251503036592,-2.68339080985951,343.338623208309
738280.36403387482278048992,1.67404197312337,-2.75724560279143,343.301695811843
738280.36403396527748554945,1.7602058982106,-2.68339080985951,343.314004943999
738280.36403405573219060898,1.79713329467655,-2.64646341339356,343.301695811843
738280.36403414618689566851,1.71096936958932,-2.73262733848079,343.314004943999
738280.36403423652518540621,1.80944242683187,-2.65877254554888,343.277077547533
738280.36403432697989046574,1.80944242683187,-2.64646341339356,343.338623208309
738280.36403441743459552526,1.82175155898719,-2.63415428123824,343.400168869086
738280.36403450788930058479,1.78482416252124,-2.65877254554888,343.424787133396
738280.36403459834400564432,1.83406069114251,-2.62184514908292,343.424787133396
738280.36403468879871070385,1.71096936958932,-2.72031820632547,343.412478001241
738280.36403477913700044155,1.78482416252124,-2.63415428123824,343.486332794173
738280.36403486959170550108,1.68635110527868,-2.72031820632547,343.449405397707
738280.36403496004641056061,1.73558763389996,-2.65877254554888,343.424787133396
738280.36403505050111562014,1.7602058982106,-2.67108167770419,343.474023662018
738280.36403514095582067966,1.72327850174464,-2.72031820632547,343.474023662018
738280.36403523129411041737,1.7602058982106,-2.69569994201483,343.437096265552
738280.36403532174881547689,1.68635110527868,-2.74493647063611,343.400168869086
738280.36403541220352053642,1.74789676605528,-2.69569994201483,343.326314076154
738280.36403550265822559595,1.67404197312337,-2.76955473494675,343.36324147262
738280.36403559311293065548,1.72327850174464,-2.70800907417015,343.350932340465
738280.36403568356763571501,1.71096936958932,-2.75724560279143,343.350932340465
738280.36403577390592545271,1.7602058982106,-2.89264605649993,343.264768415377
738280.36403586436063051224,1.85867895545315,-2.79417299925738,343.264768415377
738280.36403595481533557177,2.1540981271808,-2.24026205226803,343.36324147262
738280.36403604527004063129,2.54799035615101,-1.24322234768721,343.535569322794
738280.36403613572474569082,2.33873510951058,-1.28014974415316,343.510951058484
738280.36403622606303542852,1.93253374838506,-2.10486159855953,343.38785973693
738280.36403631651774048805,1.45247759432763,-2.67108167770419,343.54787845495
738280.36403640697244554758,1.37862280139571,-2.84340952787866,343.597114983571
738280.36403649742715060711,1.51402325510422,-2.88033692434461,343.474023662018
738280.36403658788185566664,1.55095065157018,-2.88033692434461,343.449405397707
738280.36403667833656072617,1.698660237434,-2.75724560279143,343.36324147262
738280.36403676867485046387,1.698660237434,-2.74493647063611,343.424787133396
738280.36403685912955552340,1.72327850174464,-2.72031820632547,343.375550604775
738280.36403694958426058292,1.68635110527868,-2.76955473494675,343.36324147262
738280.36403704003896564245,1.68635110527868,-2.76955473494675,343.38785973693
738280.36403713049367070198,1.7602058982106,-2.69569994201483,343.190913622445
738280.36403722094837576151,1.73558763389996,-2.72031820632547,343.277077547533
738280.36403731128666549921,1.698660237434,-2.72031820632547,343.412478001241
738280.36403740174137055874,1.73558763389996,-2.72031820632547,343.400168869086
738280.36403749219607561827,1.79713329467655,-2.68339080985951,343.375550604775
738280.36403758265078067780,1.77251503036592,-2.67108167770419,343.412478001241
738280.36403767310548573732,1.66173284096805,-2.76955473494675,343.437096265552
738280.36403776344377547503,1.68635110527868,-2.76955473494675,343.424787133396
738280.36403785389848053455,1.77251503036592,-2.69569994201483,343.350932340465
738280.36403794435318559408,1.82175155898719,-2.64646341339356,343.400168869086
738280.36403803480789065361,1.84636982329783,-2.59722688477228,343.412478001241
738280.36403812526259571314,1.85867895545315,-2.59722688477228,343.350932340465
738280.36403821571730077267,1.78482416252124,-2.64646341339356,343.400168869086
738280.36403830605559051037,1.82175155898719,-2.62184514908292,343.437096265552
738280.36403839651029556990,1.99407940916166,-2.47413556321909,343.277077547533
738280.36403848696500062943,1.94484288054038,-2.49875382752973,343.277077547533
738280.36403857741970568895,1.96946114485102,-2.51106295968505,343.289386679688
738280.36403866787441074848,2.04331593778293,-2.40028077028718,343.301695811843
738280.36403875821270048618,2.06793420209357,-2.37566250597654,343.289386679688
738280.36403884866740554571,2.08024333424889,-2.33873510951058,343.277077547533
738280.36403893912211060524,2.10486159855953,-2.30180771304463,343.375550604775
738280.36403902957681566477,2.1540981271808,-2.24026205226803,343.38785973693
738280.36403912003152072430,2.06793420209357,-2.33873510951058,343.326314076154
738280.36403921048622578382,2.05562506993825,-2.33873510951058,343.36324147262
738280.36403930082451552153,1.9571520126957,-2.44951729890845,343.437096265552
738280.36403939127922058105,1.93253374838506,-2.51106295968505,343.412478001241
738280.36403948173392564058,1.84636982329783,-2.56029948830632,343.38785973693
738280.36403957218863070011,1.7602058982106,-2.63415428123824,343.424787133396
738280.36403966264333575964,1.78482416252124,-2.6095360169276,343.449405397707
738280.36403975298162549734,1.80944242683187,-2.62184514908292,343.350932340465
738280.36403984343633055687,1.79713329467655,-2.63415428123824,343.412478001241
738280.36403993389103561640,1.72327850174464,-2.69569994201483,343.461714529862
738280.36404002434574067593,1.84636982329783,-2.57260862046164,343.424787133396
738280.36404011480044573545,1.73558763389996,-2.65877254554888,343.36324147262
738280.36404020525515079498,1.71096936958932,-2.72031820632547,343.412478001241
738280.36404029559344053268,1.7602058982106,-2.68339080985951,343.424787133396
738280.36404038604814559221,1.74789676605528,-2.68339080985951,343.36324147262
738280.36404047650285065174,1.77251503036592,-2.65877254554888,343.338623208309
738280.36404056695755571127,1.79713329467655,-2.64646341339356,343.326314076154
738280.36404065741226077080,1.71096936958932,-2.70800907417015,343.190913622445
738280.36404074775055050850,1.7602058982106,-2.70800907417015,343.227841018911
738280.36404083820525556803,1.87098808760847,-2.56029948830632,343.38785973693
738280.36404092865996062756,1.79713329467655,-2.64646341339356,343.338623208309
738280.36404101911466568708,1.74789676605528,-2.70800907417015,343.338623208309
738280.36404110956937074661,1.74789676605528,-2.67108167770419,343.400168869086
738280.36404120002407580614,1.77251503036592,-2.64646341339356,343.400168869086
738280.36404129036236554384,1.71096936958932,-2.69569994201483,343.36324147262
738280.36404138081707060337,1.83406069114251,-2.62184514908292,343.36324147262
738280.36404147127177566290,1.79713329467655,-2.65877254554888,343.375550604775
738280.36404156172648072243,1.74789676605528,-2.67108167770419,343.375550604775
738280.36404165218118578196,1.74789676605528,-2.65877254554888,343.424787133396
738280.36404174251947551966,1.83406069114251,-2.62184514908292,343.424787133396
738280.36404183297418057919,1.7602058982106,-2.68339080985951,343.314004943999
738280.36404192342888563871,1.79713329467655,-2.63415428123824,343.36324147262
738280.36404201388359069824,1.71096936958932,-2.72031820632547,343.375550604775
738280.36404210433829575777,1.71096936958932,-2.69569994201483,343.350932340465
738280.36404219479300081730,1.72327850174464,-2.69569994201483,343.338623208309
738280.36404228513129055500,1.74789676605528,-2.67108167770419,343.301695811843
738280.36404237558599561453,1.74789676605528,-2.69569994201483,343.350932340465
738280.36404246604070067406,1.79713329467655,-2.65877254554888,343.314004943999
738280.36404255649540573359,1.7602058982106,-2.67108167770419,343.326314076154
738280.36404264695011079311,1.7602058982106,-2.68339080985951,343.326314076154
738280.36404273728840053082,1.74789676605528,-2.69569994201483,343.350932340465
738280.36404282774310559034,1.79713329467655,-2.63415428123824,343.400168869086
738280.36404291819781064987,1.74789676605528,-2.70800907417015,343.400168869086
738280.36404300865251570940,1.73558763389996,-2.70800907417015,343.36324147262
738280.36404309910722076893,1.79713329467655,-2.62184514908292,343.449405397707
738280.36404318956192582846,1.83406069114251,-2.59722688477228,343.437096265552
738280.36404327990021556616,1.74789676605528,-2.67108167770419,343.437096265552
738280.36404337035492062569,1.78482416252124,-2.62184514908292,343.400168869086
738280.36404346080962568521,1.79713329467655,-2.63415428123824,343.437096265552
738280.36404355126433074474,1.82175155898719,-2.63415428123824,343.424787133396
738280.36404364171903580427,1.79713329467655,-2.63415428123824,343.437096265552
738280.36404373205732554197,1.78482416252124,-2.62184514908292,343.424787133396
738280.36404382251203060150,1.7602058982106,-2.64646341339356,343.461714529862
738280.36404391296673566103,1.78482416252124,-2.62184514908292,343.461714529862
738280.36404400342144072056,1.77251503036592,-2.63415428123824,343.38785973693
738280.36404409387614578009,1.7602058982106,-2.68339080985951,343.412478001241
738280.36404418433085083961,1.78482416252124,-2.64646341339356,343.301695811843
738280.36404427466914057732,1.77251503036592,-2.65877254554888,343.227841018911
738280.36404436512384563684,1.68635110527868,-2.72031820632547,343.412478001241
738280.36404445557855069637,1.74789676605528,-2.70800907417015,343.400168869086
738280.36404454603325575590,1.79713329467655,-2.64646341339356,343.38785973693
738280.36404463648796081543,1.7602058982106,-2.83110039572334,343.350932340465
738280.36404472682625055313,1.79713329467655,-2.85571866003398,343.314004943999
738280.36404481728095561266,2.16640725933612,-2.22795292011272,343.412478001241
738280.36404490773566067219,2.48644469537441,-1.3047680084638,343.560187587105
738280.36404499819036573172,2.33873510951058,-1.19398581906593,343.560187587105
738280.36404508864507079124,1.93253374838506,-2.06793420209357,343.424787133396
738280.36404517909977585077,1.66173284096805,-2.43720816675314,343.412478001241
738280.36404526943806558847,1.32938627277444,-2.8064821314127,343.621733247881
738280.36404535989277064800,1.42785933001699,-2.85571866003398,343.54787845495
738280.36404545034747570753,1.53864151941486,-2.8680277921893,343.400168869086
738280.36404554080218076706,1.68635110527868,-2.76955473494675,343.326314076154
738280.36404563125688582659,1.71096936958932,-2.74493647063611,343.277077547533
738280.36404572171159088612,1.67404197312337,-2.76955473494675,343.314004943999
738280.36404581204988062382,1.71096936958932,-2.73262733848079,343.277077547533
738280.36404590250458568335,1.73558763389996,-2.69569994201483,343.301695811843
738280.36404599295929074287,1.74789676605528,-2.69569994201483,343.289386679688
738280.36404608341399580240,1.73558763389996,-2.70800907417015,343.350932340465
738280.36404617386870086193,1.74789676605528,-2.70800907417015,343.338623208309
738280.36404626420699059963,1.7602058982106,-2.67108167770419,343.326314076154
738280.36404635466169565916,1.77251503036592,-2.67108167770419,343.38785973693
738280.36404644511640071869,1.79713329467655,-2.68339080985951,343.350932340465
738280.36404653557110577822,1.71096936958932,-2.72031820632547,343.350932340465
738280.36404662602581083775,1.80944242683187,-2.64646341339356,343.326314076154
738280.36404671648051589727,1.78482416252124,-2.65877254554888,343.424787133396
738280.36404680681880563498,1.79713329467655,-2.64646341339356,343.400168869086
738280.36404689727351069450,1.80944242683187,-2.59722688477228,343.314004943999
738280.36404698772821575403,1.82175155898719,-2.62184514908292,343.326314076154
738280.36404707818292081356,1.83406069114251,-2.62184514908292,343.412478001241
738280.36404716863762587309,1.88329721976379,-2.57260862046164,343.412478001241
738280.36404725897591561079,1.89560635191911,-2.52337209184037,343.38785973693
738280.36404734943062067032,1.90791548407442,-2.51106295968505,343.36324147262
738280.36404743988532572985,2.00638854131698,-2.43720816675314,343.437096265552
738280.36404753034003078938,2.05562506993825,-2.40028077028718,343.400168869086
738280.36404762079473584890,2.14178899502548,-2.27718944873399,343.301695811843
738280.36404771124944090843,2.01869767347229,-2.40028077028718,343.289386679688
738280.36404780158773064613,2.16640725933612,-2.22795292011272,343.252459283222
738280.36404789204243570566,2.06793420209357,-2.32642597735527,343.326314076154
738280.36404798249714076519,2.10486159855953,-2.30180771304463,343.38785973693
738280.36404807295184582472,2.08024333424889,-2.28949858088931,343.38785973693
738280.36404816340655088425,2.00638854131698,-2.38797163813186,343.375550604775
738280.36404825374484062195,1.96946114485102,-2.43720816675314,343.36324147262
738280.36404834419954568148,1.9571520126957,-2.43720816675314,343.289386679688
738280.36404843465425074100,1.80944242683187,-2.59722688477228,343.400168869086
738280.36404852510895580053,1.85867895545315,-2.56029948830632,343.350932340465
738280.36404861556366086006,1.74789676605528,-2.64646341339356,343.326314076154
738280.36404870601836591959,1.78482416252124,-2.62184514908292,343.36324147262
738280.36404879635665565729,1.7602058982106,-2.65877254554888,343.375550604775
738280.36404888681136071682,1.79713329467655,-2.62184514908292,343.38785973693
738280.36404897726606577635,1.78482416252124,-2.62184514908292,343.38785973693
738280.36404906772077083588,1.79713329467655,-2.63415428123824,343.412478001241
738280.36404915817547589540,1.80944242683187,-2.62184514908292,343.412478001241
738280.36404924851376563311,1.80944242683187,-2.62184514908292,343.375550604775
738280.36404933896847069263,1.83406069114251,-2.6095360169276,343.326314076154
738280.36404942942317575216,1.88329721976379,-2.56029948830632,343.350932340465
738280.36404951987788081169,1.82175155898719,-2.6095360169276,343.375550604775
738280.36404961033258587122,1.79713329467655,-2.64646341339356,343.38785973693
738280.36404970078729093075,1.83406069114251,-2.56029948830632,343.38785973693
738280.36404979112558066845,1.80944242683187,-2.64646341339356,343.375550604775
738280.36404988158028572798,1.78482416252124,-2.68339080985951,343.400168869086
738280.36404997203499078751,1.82175155898719,-2.6095360169276,343.375550604775
738280.36405006248969584703,1.74789676605528,-2.68339080985951,343.36324147262
738280.36405015294440090656,1.7602058982106,-2.68339080985951,343.36324147262
738280.36405024328269064426,1.82175155898719,-2.63415428123824,343.36324147262
738280.36405033373739570379,1.79713329467655,-2.64646341339356,343.375550604775
738280.36405042419210076332,1.84636982329783,-2.58491775261696,343.326314076154
738280.36405051464680582285,1.77251503036592,-2.67108167770419,343.350932340465
738280.36405060510151088238,1.80944242683187,-2.62184514908292,343.375550604775
738280.36405069555621594191,1.80944242683187,-2.63415428123824,343.400168869086
738280.36405078589450567961,1.79713329467655,-2.62184514908292,343.38785973693
738280.36405087634921073914,1.80944242683187,-2.62184514908292,343.400168869086
738280.36405096680391579866,1.84636982329783,-2.56029948830632,343.338623208309
738280.36405105725862085819,1.77251503036592,-2.65877254554888,343.314004943999
738280.36405114771332591772,1.87098808760847,-2.56029948830632,343.277077547533
738280.36405123805161565542,1.7602058982106,-2.68339080985951,343.264768415377
738280.36405132850632071495,1.73558763389996,-2.70800907417015,343.190913622445
738280.36405141896102577448,1.78482416252124,-2.68339080985951,343.277077547533
738280.36405150941573083401,1.7602058982106,-2.72031820632547,343.314004943999
738280.36405159987043589354,1.83406069114251,-2.63415428123824,343.350932340465
738280.36405169032514095306,1.82175155898719,-2.63415428123824,343.424787133396
738280.36405178066343069077,1.77251503036592,-2.65877254554888,343.301695811843
738280.36405187111813575029,1.79713329467655,-2.63415428123824,343.400168869086
738280.36405196157284080982,1.80944242683187,-2.62184514908292,343.449405397707
738280.36405205202754586935,1.85867895545315,-2.56029948830632,343.36324147262
738280.36405214248225092888,1.87098808760847,-2.57260862046164,343.424787133396
738280.36405223282054066658,1.79713329467655,-2.63415428123824,343.424787133396
738280.36405232327524572611,1.82175155898719,-2.62184514908292,343.412478001241
738280.36405241372995078564,1.80944242683187,-2.6095360169276,343.350932340465
738280.36405250418465584517,1.83406069114251,-2.57260862046164,343.437096265552
738280.36405259463936090469,1.82175155898719,-2.58491775261696,343.424787133396
738280.36405268509406596422,1.7602058982106,-2.64646341339356,343.412478001241
738280.36405277543235570192,1.77251503036592,-2.65877254554888,343.424787133396
738280.36405286588706076145,1.82175155898719,-2.62184514908292,343.437096265552
738280.36405295634176582098,1.77251503036592,-2.68339080985951,343.449405397707
738280.36405304679647088051,1.79713329467655,-2.62184514908292,343.36324147262
738280.36405313725117594004,1.63711457665741,-2.8064821314127,343.424787133396
738280.36405322770588099957,1.698660237434,-2.74493647063611,343.424787133396
738280.36405331804417073727,1.74789676605528,-2.73262733848079,343.350932340465
738280.36405340849887579679,1.80944242683187,-2.83110039572334,343.289386679688
738280.36405349895358085632,1.93253374838506,-2.62184514908292,343.301695811843
738280.36405358940828591585,2.46182643106377,-1.60018718019145,343.474023662018
738280.36405367986299097538,2.4125899024425,-1.0462762332021,343.646351512192
738280.36405377020128071308,2.12947986287016,-1.67404197312337,343.449405397707
738280.36405386065598577261,1.60018718019145,-2.53568122399569,343.424787133396
738280.36405395111069083214,1.39093193355103,-2.81879126356802,343.535569322794
738280.36405404156539589167,1.53864151941486,-2.79417299925738,343.510951058484
738280.36405413202010095119,1.48940499079358,-2.92957345296589,343.38785973693
738280.36405422247480601072,1.66173284096805,-2.78186386710206,343.326314076154
738280.36405431281309574842,1.77251503036592,-2.69569994201483,343.264768415377
738280.36405440326780080795,1.77251503036592,-2.68339080985951,343.289386679688
738280.36405449372250586748,1.77251503036592,-2.68339080985951,343.264768415377
738280.36405458417721092701,1.698660237434,-2.73262733848079,343.301695811843
738280.36405467463191598654,1.73558763389996,-2.73262733848079,343.326314076154
738280.36405476497020572424,1.74789676605528,-2.69569994201483,343.240150151067
738280.36405485542491078377,1.79713329467655,-2.64646341339356,343.166295358135
738280.36405494587961584330,1.80944242683187,-2.64646341339356,343.301695811843
738280.36405503633432090282,1.84636982329783,-2.63415428123824,343.252459283222
738280.36405512678902596235,1.82175155898719,-2.63415428123824,343.36324147262
738280.36405521724373102188,1.74789676605528,-2.68339080985951,343.375550604775
738280.36405530758202075958,1.84636982329783,-2.59722688477228,343.375550604775
738280.36405539803672581911,1.84636982329783,-2.62184514908292,343.252459283222
738280.36405548849143087864,1.84636982329783,-2.59722688477228,343.38785973693
738280.36405557894613593817,1.78482416252124,-2.69569994201483,343.375550604775
738280.36405566940084099770,1.83406069114251,-2.63415428123824,343.350932340465
738280.36405575973913073540,1.89560635191911,-2.57260862046164,343.350932340465
738280.36405585019383579493,1.88329721976379,-2.58491775261696,343.400168869086
738280.36405594064854085445,1.9571520126957,-2.47413556321909,343.38785973693
738280.36405603110324591398,1.9571520126957,-2.49875382752973,343.36324147262
738280.36405612155795097351,1.98177027700634,-2.46182643106377,343.375550604775
738280.36405621201265603304,2.06793420209357,-2.3510442416659,343.400168869086
738280.36405630235094577074,2.09255246640421,-2.31411684519995,343.314004943999
738280.36405639280565083027,2.11717073071485,-2.30180771304463,343.338623208309
738280.36405648326035588980,2.14178899502548,-2.24026205226803,343.400168869086
738280.36405657371506094933,2.1540981271808,-2.25257118442335,343.38785973693
738280.36405666416976600885,2.11717073071485,-2.26488031657867,343.338623208309
738280.36405675450805574656,2.11717073071485,-2.24026205226803,343.36324147262
738280.36405684496276080608,2.08024333424889,-2.30180771304463,343.38785973693
738280.36405693541746586561,1.93253374838506,-2.46182643106377,343.301695811843
738280.36405702587217092514,1.92022461622974,-2.49875382752973,343.36324147262
738280.36405711632687598467,1.88329721976379,-2.56029948830632,343.400168869086
738280.36405720678158104420,1.87098808760847,-2.53568122399569,343.400168869086
738280.36405729711987078190,1.84636982329783,-2.57260862046164,343.350932340465
738280.36405738757457584143,1.85867895545315,-2.57260862046164,343.38785973693
738280.36405747802928090096,1.89560635191911,-2.53568122399569,343.424787133396
738280.36405756848398596048,1.84636982329783,-2.6095360169276,343.301695811843
738280.36405765893869102001,1.79713329467655,-2.64646341339356,343.326314076154
738280.36405774927698075771,1.77251503036592,-2.68339080985951,343.252459283222
738280.36405783973168581724,1.79713329467655,-2.62184514908292,343.36324147262
738280.36405793018639087677,1.79713329467655,-2.62184514908292,343.424787133396
738280.36405802064109593630,1.78482416252124,-2.64646341339356,343.375550604775
738280.36405811109580099583,1.80944242683187,-2.63415428123824,343.338623208309
738280.36405820155050605536,1.83406069114251,-2.62184514908292,343.375550604775
738280.36405829188879579306,1.79713329467655,-2.65877254554888,343.36324147262
738280.36405838234350085258,1.84636982329783,-2.59722688477228,343.153986225979
738280.36405847279820591211,1.82175155898719,-2.58491775261696,343.350932340465
738280.36405856325291097164,1.85867895545315,-2.57260862046164,343.412478001241
738280.36405865370761603117,1.89560635191911,-2.56029948830632,343.400168869086
738280.36405874404590576887,1.92022461622974,-2.54799035615101,343.338623208309
738280.36405883450061082840,1.73558763389996,-2.72031820632547,343.36324147262
738280.36405892495531588793,1.7602058982106,-2.68339080985951,343.38785973693
738280.36405901541002094746,1.79713329467655,-2.64646341339356,343.314004943999
738280.36405910586472600698,1.83406069114251,-2.6095360169276,343.36324147262
738280.36405919631943106651,1.83406069114251,-2.62184514908292,343.375550604775
738280.36405928665772080421,1.85867895545315,-2.58491775261696,343.301695811843
738280.36405937711242586374,1.84636982329783,-2.59722688477228,343.289386679688
738280.36405946756713092327,1.78482416252124,-2.67108167770419,343.350932340465
738280.36405955802183598280,1.74789676605528,-2.68339080985951,343.326314076154
738280.36405964847654104233,1.7602058982106,-2.67108167770419,343.289386679688
738280.36405973881483078003,1.7602058982106,-2.65877254554888,343.375550604775
738280.36405982926953583956,1.78482416252124,-2.67108167770419,343.400168869086
738280.36405991972424089909,1.78482416252124,-2.59722688477228,343.461714529862
738280.36406001017894595861,1.80944242683187,-2.62184514908292,343.375550604775
738280.36406010063365101814,1.80944242683187,-2.62184514908292,343.400168869086
738280.36406019108835607767,1.83406069114251,-2.59722688477228,343.437096265552
738280.36406028142664581537,1.82175155898719,-2.64646341339356,343.449405397707
738280.36406037188135087490,1.84636982329783,-2.57260862046164,343.437096265552
738280.36406046233605593443,1.85867895545315,-2.57260862046164,343.400168869086
738280.36406055279076099396,1.88329721976379,-2.54799035615101,343.461714529862
738280.36406064324546605349,1.83406069114251,-2.59722688477228,343.449405397707
738280.36406073370017111301,1.90791548407442,-2.48644469537441,343.498641926328
738280.36406082403846085072,1.85867895545315,-2.58491775261696,343.424787133396
738280.36406091449316591024,1.74789676605528,-2.65877254554888,343.474023662018
738280.36406100494787096977,1.78482416252124,-2.63415428123824,343.474023662018
738280.36406109540257602930,1.79713329467655,-2.59722688477228,343.400168869086
738280.36406118585728108883,1.82175155898719,-2.62184514908292,343.498641926328
738280.36406127619557082653,1.80944242683187,-2.58491775261696,343.326314076154
738280.36406136665027588606,1.79713329467655,-2.62184514908292,343.36324147262
738280.36406145710498094559,1.77251503036592,-2.6095360169276,343.289386679688
738280.36406154755968600512,1.78482416252124,-2.6095360169276,343.301695811843
738280.36406163801439106464,1.78482416252124,-2.64646341339356,343.350932340465
738280.36406172846909612417,1.78482416252124,-2.67108167770419,343.36324147262
738280.36406181880738586187,1.78482416252124,-2.69569994201483,343.129367961669
738280.36406190926209092140,1.78482416252124,-2.70800907417015,343.17860449029
738280.36406199971679598093,1.78482416252124,-2.75724560279143,343.314004943999
738280.36406209017150104046,1.88329721976379,-2.74493647063611,343.264768415377
738280.36406218062620609999,2.14178899502548,-2.3510442416659,343.412478001241
738280.36406227096449583769,2.44951729890845,-1.36631366924039,343.658660644347
738280.36406236141920089722,2.36335337382122,-1.02165796889147,343.732515437279
738280.36406245187390595675,2.00638854131698,-1.89560635191911,343.449405397707
738280.36406254232861101627,1.5632597837255,-2.6095360169276,343.57249671926
738280.36406263278331607580,1.3047680084638,-2.89264605649993,343.584805851416
738280.36406272323802113533,1.48940499079358,-2.88033692434461,343.424787133396
738280.36406281357631087303,1.64942370881273,-2.74493647063611,343.424787133396
738280.36406290403101593256,1.71096936958932,-2.74493647063611,343.412478001241
738280.36406299448572099209,1.77251503036592,-2.68339080985951,343.38785973693
738280.36406308494042605162,1.73558763389996,-2.76955473494675,343.400168869086
738280.36406317539513111115,1.77251503036592,-2.70800907417015,343.412478001241
738280.36406326573342084885,1.7602058982106,-2.65877254554888,343.400168869086
738280.36406335618812590837,1.82175155898719,-2.59722688477228,343.400168869086
738280.36406344664283096790,1.79713329467655,-2.57260862046164,343.461714529862
738280.36406353709753602743,1.79713329467655,-2.63415428123824,343.461714529862
738280.36406362755224108696,1.78482416252124,-2.65877254554888,343.449405397707
738280.36406371800694614649,1.78482416252124,-2.65877254554888,343.424787133396
738280.36406380834523588419,1.78482416252124,-2.64646341339356,343.437096265552
738280.36406389879994094372,1.84636982329783,-2.62184514908292,343.424787133396
738280.36406398925464600325,1.83406069114251,-2.65877254554888,343.350932340465
738280.36406407970935106277,1.82175155898719,-2.6095360169276,343.424787133396
738280.36406417016405612230,1.82175155898719,-2.58491775261696,343.461714529862
738280.36406426050234586000,1.84636982329783,-2.58491775261696,343.486332794173
738280.36406435095705091953,1.90791548407442,-2.54799035615101,343.437096265552
738280.36406444141175597906,1.89560635191911,-2.49875382752973,343.474023662018
738280.36406453186646103859,1.94484288054038,-2.44951729890845,343.510951058484
738280.36406462232116609812,1.92022461622974,-2.44951729890845,343.461714529862
738280.36406471277587115765,1.9571520126957,-2.42489903459782,343.461714529862
738280.36406480311416089535,2.00638854131698,-2.36335337382122,343.461714529862
738280.36406489356886595488,2.04331593778293,-2.31411684519995,343.412478001241
738280.36406498402357101440,2.14178899502548,-2.31411684519995,343.375550604775
738280.36406507447827607393,2.1540981271808,-2.17871639149144,343.38785973693
738280.36406516493298113346,2.12947986287016,-2.19102552364676,343.38785973693
738280.36406525527127087116,2.12947986287016,-2.20333465580208,343.350932340465
738280.36406534572597593069,2.10486159855953,-2.27718944873399,343.277077547533
738280.36406543618068099022,2.09255246640421,-2.30180771304463,343.412478001241
738280.36406552663538604975,2.01869767347229,-2.33873510951058,343.412478001241
738280.36406561709009110928,2.03100680562761,-2.25257118442335,343.400168869086
738280.36406570754479616880,2.00638854131698,-2.3510442416659,343.474023662018
738280.36406579788308590651,1.87098808760847,-2.51106295968505,343.375550604775
738280.36406588833779096603,1.89560635191911,-2.48644469537441,343.375550604775
738280.36406597879249602556,1.83406069114251,-2.58491775261696,343.375550604775
738280.36406606924720108509,1.77251503036592,-2.59722688477228,343.474023662018
738280.36406615970190614462,1.79713329467655,-2.6095360169276,343.437096265552
738280.36406625004019588232,1.80944242683187,-2.59722688477228,343.474023662018
738280.36406634049490094185,1.80944242683187,-2.6095360169276,343.461714529862
738280.36406643094960600138,1.84636982329783,-2.56029948830632,343.424787133396
738280.36406652140431106091,1.77251503036592,-2.62184514908292,343.437096265552
738280.36406661185901612043,1.84636982329783,-2.69569994201483,343.474023662018
738280.36406670231372117996,1.85867895545315,-2.54799035615101,343.486332794173
738280.36406679265201091766,1.82175155898719,-2.54799035615101,343.400168869086
738280.36406688310671597719,1.82175155898719,-2.58491775261696,343.449405397707
738280.36406697356142103672,1.90791548407442,-2.51106295968505,343.461714529862
738280.36406706401612609625,1.80944242683187,-2.6095360169276,343.461714529862
738280.36406715447083115578,1.79713329467655,-2.6095360169276,343.474023662018
738280.36406724480912089348,1.85867895545315,-2.53568122399569,343.461714529862
738280.36406733526382595301,1.82175155898719,-2.62184514908292,343.412478001241
738280.36406742571853101254,1.83406069114251,-2.59722688477228,343.498641926328
738280.36406751617323607206,1.84636982329783,-2.54799035615101,343.461714529862
738280.36406760662794113159,1.83406069114251,-2.64646341339356,343.486332794173
738280.36406769708264619112,1.82175155898719,-2.53568122399569,343.523260190639
738280.36406778742093592882,1.87098808760847,-2.51106295968505,343.424787133396
738280.36406787787564098835,1.87098808760847,-2.54799035615101,343.461714529862
738280.36406796833034604788,1.85867895545315,-2.53568122399569,343.424787133396
738280.36406805878505110741,1.79713329467655,-2.58491775261696,343.461714529862
738280.36406814923975616693,1.82175155898719,-2.63415428123824,343.412478001241
738280.36406823957804590464,1.83406069114251,-2.62184514908292,343.461714529862
738280.36406833003275096416,1.87098808760847,-2.53568122399569,343.486332794173
738280.36406842048745602369,1.78482416252124,-2.62184514908292,343.474023662018
738280.36406851094216108322,1.74789676605528,-2.64646341339356,343.486332794173
738280.36406860139686614275,1.80944242683187,-2.62184514908292,343.498641926328
738280.36406869185157120228,1.80944242683187,-2.65877254554888,343.486332794173
738280.36406878218986093998,1.87098808760847,-2.54799035615101,343.474023662018
738280.36406887264456599951,1.83406069114251,-2.54799035615101,343.289386679688
738280.36406896309927105904,1.89560635191911,-2.52337209184037,343.38785973693
738280.36406905355397611856,1.89560635191911,-2.53568122399569,343.400168869086
738280.36406914400868117809,1.88329721976379,-2.58491775261696,343.400168869086
738280.36406923446338623762,1.87098808760847,-2.6095360169276,343.350932340465
738280.36406932480167597532,1.88329721976379,-2.49875382752973,343.400168869086
738280.36406941525638103485,1.82175155898719,-2.52337209184037,343.412478001241
738280.36406950571108609438,1.82175155898719,-2.53568122399569,343.461714529862
738280.36406959616579115391,1.82175155898719,-2.54799035615101,343.424787133396
738280.36406968662049621344,1.79713329467655,-2.59722688477228,343.498641926328
738280.36406977695878595114,1.79713329467655,-2.62184514908292,343.523260190639
738280.36406986741349101067,1.89560635191911,-2.56029948830632,343.461714529862
738280.36406995786819607019,1.77251503036592,-2.6095360169276,343.461714529862
738280.36407004832290112972,1.80944242683187,-2.6095360169276,343.486332794173
738280.36407013877760618925,1.82175155898719,-2.58491775261696,343.474023662018
738280.36407022923231124878,1.7602058982106,-2.65877254554888,343.461714529862
738280.36407031957060098648,1.78482416252124,-2.65877254554888,343.449405397707
738280.36407041002530604601,1.79713329467655,-2.78186386710206,343.338623208309
738280.36407050048001110554,1.92022461622974,-2.70800907417015,343.277077547533
738280.36407059093471616507,2.22795292011272,-2.12947986287016,343.38785973693
738280.36407068138942122459,2.53568122399569,-1.19398581906593,343.609424115726
738280.36407077172771096230,2.38797163813186,-1.08320362966806,343.634042380037
738280.36407086218241602182,1.9571520126957,-2.03100680562761,343.486332794173
738280.36407095263712108135,1.51402325510422,-2.6095360169276,343.57249671926
738280.36407104309182614088,1.42785933001699,-2.83110039572334,343.584805851416
738280.36407113354653120041,1.55095065157018,-2.84340952787866,343.510951058484
738280.36407122400123625994,1.60018718019145,-2.83110039572334,343.461714529862
738280.36407131433952599764,1.7602058982106,-2.64646341339356,343.412478001241
738280.36407140479423105717,1.73558763389996,-2.70800907417015,343.36324147262
738280.36407149524893611670,1.82175155898719,-2.62184514908292,343.424787133396
738280.36407158570364117622,1.77251503036592,-2.72031820632547,343.437096265552
738280.36407167615834623575,1.80944242683187,-2.65877254554888,343.412478001241
738280.36407176649663597345,1.84636982329783,-2.54799035615101,343.412478001241
738280.36407185695134103298,1.79713329467655,-2.69569994201483,343.437096265552
738280.36407194740604609251,1.82175155898719,-2.58491775261696,343.461714529862
738280.36407203786075115204,1.90791548407442,-2.56029948830632,343.412478001241
738280.36407212831545621157,1.82175155898719,-2.64646341339356,343.412478001241
738280.36407221877016127110,1.82175155898719,-2.52337209184037,343.412478001241
738280.36407230910845100880,1.85867895545315,-2.54799035615101,343.412478001241
738280.36407239956315606833,1.87098808760847,-2.56029948830632,343.252459283222
738280.36407249001786112785,1.84636982329783,-2.59722688477228,343.350932340465
738280.36407258047256618738,1.87098808760847,-2.56029948830632,343.461714529862
738280.36407267092727124691,1.94484288054038,-2.48644469537441,343.474023662018
738280.36407276126556098461,1.89560635191911,-2.56029948830632,343.523260190639
738280.36407285172026604414,1.9571520126957,-2.46182643106377,343.449405397707
738280.36407294217497110367,1.98177027700634,-2.4125899024425,343.461714529862
738280.36407303262967616320,1.99407940916166,-2.42489903459782,343.461714529862
738280.36407312308438122272,1.96946114485102,-2.47413556321909,343.474023662018
738280.36407321353908628225,2.08024333424889,-2.36335337382122,343.424787133396
738280.36407330387737601995,2.04331593778293,-2.30180771304463,343.474023662018
738280.36407339433208107948,2.11717073071485,-2.24026205226803,343.486332794173
738280.36407348478678613901,2.17871639149144,-2.22795292011272,343.486332794173
738280.36407357524149119854,2.2156437879574,-2.20333465580208,343.449405397707
738280.36407366569619625807,2.20333465580208,-2.12947986287016,343.449405397707
738280.36407375603448599577,2.1540981271808,-2.12947986287016,343.437096265552
738280.36407384648919105530,2.1540981271808,-2.1540981271808,343.326314076154
738280.36407393694389611483,2.09255246640421,-2.27718944873399,343.38785973693
738280.36407402739860117435,2.01869767347229,-2.38797163813186,343.38785973693
738280.36407411785330623388,1.93253374838506,-2.42489903459782,343.338623208309
738280.36407420830801129341,1.89560635191911,-2.47413556321909,343.326314076154
738280.36407429864630103111,1.88329721976379,-2.56029948830632,343.375550604775
738280.36407438910100609064,1.88329721976379,-2.51106295968505,343.375550604775
738280.36407447955571115017,1.90791548407442,-2.51106295968505,343.36324147262
738280.36407457001041620970,1.84636982329783,-2.54799035615101,343.400168869086
738280.36407466046512126923,1.85867895545315,-2.48644469537441,343.461714529862
738280.36407475080341100693,1.85867895545315,-2.53568122399569,343.400168869086
738280.36407484125811606646,1.85867895545315,-2.53568122399569,343.461714529862
738280.36407493171282112598,1.85867895545315,-2.57260862046164,343.486332794173
738280.36407502216752618551,1.85867895545315,-2.57260862046164,343.523260190639
738280.36407511262223124504,1.79713329467655,-2.65877254554888,343.523260190639
738280.36407520307693630457,1.85867895545315,-2.52337209184037,343.424787133396
738280.36407529341522604227,1.83406069114251,-2.6095360169276,343.461714529862
738280.36407538386993110180,1.84636982329783,-2.56029948830632,343.412478001241
738280.36407547432463616133,1.84636982329783,-2.53568122399569,343.375550604775
738280.36407556477934122086,1.85867895545315,-2.57260862046164,343.400168869086
738280.36407565523404628038,1.87098808760847,-2.56029948830632,343.38785973693
738280.36407574557233601809,1.90791548407442,-2.47413556321909,343.400168869086
738280.36407583602704107761,1.96946114485102,-2.42489903459782,343.375550604775
738280.36407592648174613714,1.85867895545315,-2.56029948830632,343.264768415377
738280.36407601693645119667,1.80944242683187,-2.6095360169276,343.277077547533
738280.36407610739115625620,1.78482416252124,-2.63415428123824,343.38785973693
738280.36407619784586131573,1.83406069114251,-2.57260862046164,343.474023662018
738280.36407628818415105343,1.87098808760847,-2.54799035615101,343.412478001241
738280.36407637863885611296,1.88329721976379,-2.53568122399569,343.400168869086
738280.36407646909356117249,1.89560635191911,-2.53568122399569,343.437096265552
738280.36407655954826623201,1.79713329467655,-2.6095360169276,343.412478001241
738280.36407665000297129154,1.83406069114251,-2.59722688477228,343.449405397707
738280.36407674045767635107,1.89560635191911,-2.51106295968505,343.449405397707
738280.36407683079596608877,1.84636982329783,-2.54799035615101,343.474023662018
738280.36407692125067114830,1.88329721976379,-2.53568122399569,343.510951058484
738280.36407701170537620783,1.78482416252124,-2.65877254554888,343.474023662018
738280.36407710216008126736,1.84636982329783,-2.54799035615101,343.400168869086
738280.36407719261478632689,1.85867895545315,-2.56029948830632,343.498641926328
738280.36407728295307606459,1.82175155898719,-2.58491775261696,343.424787133396
738280.36407737340778112411,1.88329721976379,-2.54799035615101,343.461714529862
738280.36407746386248618364,1.89560635191911,-2.53568122399569,343.424787133396
738280.36407755431719124317,1.88329721976379,-2.52337209184037,343.523260190639
738280.36407764477189630270,1.84636982329783,-2.56029948830632,343.424787133396
738280.36407773522660136223,1.84636982329783,-2.52337209184037,343.36324147262
738280.36407782556489109993,1.84636982329783,-2.53568122399569,343.400168869086
738280.36407791601959615946,1.92022461622974,-2.49875382752973,343.412478001241
738280.36407800647430121899,1.88329721976379,-2.56029948830632,343.424787133396
738280.36407809692900627851,1.89560635191911,-2.49875382752973,343.424787133396
738280.36407818738371133804,1.78482416252124,-2.58491775261696,343.498641926328
738280.36407827772200107574,1.84636982329783,-2.56029948830632,343.486332794173
738280.36407836817670613527,1.84636982329783,-2.59722688477228,343.449405397707
738280.36407845863141119480,1.77251503036592,-2.67108167770419,343.461714529862
738280.36407854908611625433,1.80944242683187,-2.6095360169276,343.38785973693
738280.36407863954082131386,1.84636982329783,-2.56029948830632,343.36324147262
738280.36407872999552637339,1.78482416252124,-2.6095360169276,343.36324147262
738280.36407882033381611109,1.7602058982106,-2.67108167770419,343.412478001241
738280.36407891078852117062,1.82175155898719,-2.76955473494675,343.350932340465
738280.36407900124322623014,1.96946114485102,-2.6095360169276,343.350932340465
738280.36407909169793128967,2.33873510951058,-1.90791548407442,343.474023662018
738280.36407918215263634920,2.59722688477228,-0.960112308114872,343.707897172969
738280.36407927249092608690,2.33873510951058,-1.21860408337657,343.695588040813
738280.36407936294563114643,1.83406069114251,-2.19102552364676,343.535569322794
738280.36407945340033620596,1.46478672648295,-2.63415428123824,343.54787845495
738280.36407954385504126549,1.46478672648295,-2.81879126356802,343.449405397707
738280.36407963430974632502,1.67404197312337,-2.73262733848079,343.523260190639
738280.36407972476445138454,1.7602058982106,-2.64646341339356,343.437096265552
738280.36407981510274112225,1.71096936958932,-2.70800907417015,343.400168869086
738280.36407990555744618177,1.73558763389996,-2.65877254554888,343.437096265552
738280.36407999601215124130,1.77251503036592,-2.63415428123824,343.461714529862
738280.36408008646685630083,1.77251503036592,-2.63415428123824,343.486332794173
738280.36408017692156136036,1.89560635191911,-2.51106295968505,343.474023662018
738280.36408026725985109806,1.77251503036592,-2.63415428123824,343.461714529862
738280.36408035771455615759,1.83406069114251,-2.59722688477228,343.412478001241
738280.36408044816926121712,1.84636982329783,-2.59722688477228,343.461714529862
738280.36408053862396627665,1.84636982329783,-2.59722688477228,343.424787133396
738280.36408062907867133617,1.87098808760847,-2.59722688477228,343.424787133396
738280.36408071953337639570,1.85867895545315,-2.54799035615101,343.38785973693
738280.36408080987166613340,1.90791548407442,-2.53568122399569,343.400168869086
738280.36408090032637119293,1.98177027700634,-2.44951729890845,343.437096265552
738280.36408099078107625246,1.85867895545315,-2.56029948830632,343.461714529862
738280.36408108123578131199,1.83406069114251,-2.56029948830632,343.449405397707
738280.36408117169048637152,1.89560635191911,-2.51106295968505,343.474023662018
738280.36408126202877610922,1.90791548407442,-2.53568122399569,343.474023662018
738280.36408135248348116875,1.9571520126957,-2.46182643106377,343.449405397707
738280.36408144293818622828,1.96946114485102,-2.44951729890845,343.424787133396
738280.36408153339289128780,2.04331593778293,-2.3510442416659,343.449405397707
738280.36408162384759634733,2.05562506993825,-2.32642597735527,343.437096265552
738280.36408171430230140686,2.10486159855953,-2.28949858088931,343.412478001241
738280.36408180464059114456,2.16640725933612,-2.20333465580208,343.474023662018
738280.36408189509529620409,2.16640725933612,-2.19102552364676,343.510951058484
738280.36408198555000126362,2.25257118442335,-2.11717073071485,343.437096265552
738280.36408207600470632315,2.20333465580208,-2.14178899502548,343.449405397707
738280.36408216645941138268,2.2156437879574,-2.14178899502548,343.449405397707
738280.36408225679770112038,2.19102552364676,-2.14178899502548,343.474023662018
738280.36408234725240617990,2.05562506993825,-2.30180771304463,343.412478001241
738280.36408243770711123943,2.05562506993825,-2.28949858088931,343.449405397707
738280.36408252816181629896,2.01869767347229,-2.32642597735527,343.498641926328
738280.36408261861652135849,1.99407940916166,-2.37566250597654,343.474023662018
738280.36408270907122641802,1.88329721976379,-2.49875382752973,343.461714529862
738280.36408279940951615572,1.88329721976379,-2.52337209184037,343.350932340465
738280.36408288986422121525,1.89560635191911,-2.48644469537441,343.375550604775
738280.36408298031892627478,1.89560635191911,-2.44951729890845,343.326314076154
738280.36408307077363133430,1.87098808760847,-2.49875382752973,343.203222754601
738280.36408316122833639383,1.88329721976379,-2.52337209184037,343.314004943999
738280.36408325156662613153,1.85867895545315,-2.54799035615101,343.338623208309
738280.36408334202133119106,1.83406069114251,-2.56029948830632,343.350932340465
738280.36408343247603625059,1.89560635191911,-2.51106295968505,343.375550604775
738280.36408352293074131012,1.87098808760847,-2.53568122399569,343.326314076154
738280.36408361338544636965,1.84636982329783,-2.58491775261696,343.36324147262
738280.36408370384015142918,1.90791548407442,-2.54799035615101,343.36324147262
738280.36408379417844116688,1.94484288054038,-2.47413556321909,343.338623208309
738280.36408388463314622641,1.88329721976379,-2.53568122399569,343.375550604775
738280.36408397508785128593,1.85867895545315,-2.56029948830632,343.375550604775
738280.36408406554255634546,1.85867895545315,-2.57260862046164,343.437096265552
738280.36408415599726140499,1.93253374838506,-2.51106295968505,343.412478001241
738280.36408424633555114269,1.96946114485102,-2.48644469537441,343.38785973693
738280.36408433679025620222,1.89560635191911,-2.51106295968505,343.424787133396
738280.36408442724496126175,1.93253374838506,-2.48644469537441,343.38785973693
738280.36408451769966632128,1.87098808760847,-2.51106295968505,343.424787133396
738280.36408460815437138081,1.87098808760847,-2.53568122399569,343.400168869086
738280.36408469860907644033,1.84636982329783,-2.56029948830632,343.412478001241
738280.36408478894736617804,1.87098808760847,-2.54799035615101,343.461714529862
738280.36408487940207123756,1.87098808760847,-2.54799035615101,343.449405397707
738280.36408496985677629709,1.89560635191911,-2.53568122399569,343.36324147262
738280.36408506031148135662,1.90791548407442,-2.49875382752973,343.36324147262
738280.36408515076618641615,1.89560635191911,-2.52337209184037,343.38785973693
738280.36408524122089147568,1.89560635191911,-2.49875382752973,343.424787133396
738280.36408533155918121338,1.83406069114251,-2.57260862046164,343.449405397707
738280.36408542201388627291,1.87098808760847,-2.49875382752973,343.486332794173
738280.36408551246859133244,1.90791548407442,-2.49875382752973,343.461714529862
738280.36408560292329639196,1.82175155898719,-2.59722688477228,343.461714529862
738280.36408569337800145149,1.90791548407442,-2.53568122399569,343.486332794173
738280.36408578371629118919,1.93253374838506,-2.54799035615101,343.449405397707
738280.36408587417099624872,2.03100680562761,-2.40028077028718,343.412478001241
738280.36408596462570130825,1.87098808760847,-2.48644469537441,343.486332794173
738280.36408605508040636778,1.9571520126957,-2.44951729890845,343.474023662018
738280.36408614553511142731,1.9571520126957,-2.46182643106377,343.486332794173
738280.36408623598981648684,1.87098808760847,-2.52337209184037,343.412478001241
738280.36408632632810622454,1.85867895545315,-2.54799035615101,343.461714529862
738280.36408641678281128407,1.88329721976379,-2.49875382752973,343.449405397707
738280.36408650723751634359,1.92022461622974,-2.48644469537441,343.400168869086
738280.36408659769222140312,1.83406069114251,-2.56029948830632,343.338623208309
738280.36408668814692646265,1.84636982329783,-2.57260862046164,343.461714529862
738280.36408677848521620035,1.82175155898719,-2.57260862046164,343.375550604775
738280.36408686893992125988,1.88329721976379,-2.51106295968505,343.424787133396
738280.36408695939462631941,1.85867895545315,-2.54799035615101,343.301695811843
738280.36408704984933137894,1.85867895545315,-2.54799035615101,343.277077547533
738280.36408714030403643847,1.85867895545315,-2.59722688477228,343.326314076154
738280.36408723075874149799,1.83406069114251,-2.78186386710206,343.289386679688
738280.36408732109703123569,2.06793420209357,-2.53568122399569,343.203222754601
738280.36408741155173629522,2.28949858088931,-2.04331593778293,343.38785973693
738280.36408750200644135475,2.56029948830632,-1.07089449751274,343.658660644347
738280.36408759246114641428,2.33873510951058,-1.12013102613402,343.658660644347
738280.36408768291585147381,1.9571520126957,-2.00638854131698,343.461714529862
738280.36408777325414121151,1.51402325510422,-2.62184514908292,343.634042380037
738280.36408786370884627104,1.51402325510422,-2.74493647063611,343.584805851416
738280.36408795416355133057,1.62480544450209,-2.79417299925738,343.486332794173
738280.36408804461825639009,1.67404197312337,-2.73262733848079,343.437096265552
738280.36408813507296144962,1.77251503036592,-2.62184514908292,343.449405397707
738280.36408822552766650915,1.82175155898719,-2.58491775261696,343.350932340465
738280.36408831586595624685,1.92022461622974,-2.52337209184037,343.36324147262
738280.36408840632066130638,1.92022461622974,-2.53568122399569,343.350932340465
738280.36408849677536636591,1.80944242683187,-2.63415428123824,343.375550604775
738280.36408858723007142544,1.85867895545315,-2.58491775261696,343.301695811843
738280.36408867768477648497,1.84636982329783,-2.62184514908292,343.412478001241
738280.36408876802306622267,1.84636982329783,-2.59722688477228,343.449405397707
738280.36408885847777128220,1.84636982329783,-2.67108167770419,343.38785973693
738280.36408894893247634172,1.87098808760847,-2.54799035615101,343.400168869086
738280.36408903938718140125,1.88329721976379,-2.52337209184037,343.424787133396
738280.36408912984188646078,1.92022461622974,-2.49875382752973,343.437096265552
738280.36408922029659152031,1.93253374838506,-2.48644469537441,343.375550604775
738280.36408931063488125801,1.92022461622974,-2.52337209184037,343.461714529862
738280.36408940108958631754,1.94484288054038,-2.48644469537441,343.474023662018
738280.36408949154429137707,2.04331593778293,-2.40028077028718,343.350932340465
738280.36408958199899643660,2.03100680562761,-2.40028077028718,343.424787133396
738280.36408967245370149612,1.96946114485102,-2.51106295968505,343.424787133396
738280.36408976279199123383,1.98177027700634,-2.44951729890845,343.38785973693
738280.36408985324669629335,1.92022461622974,-2.48644469537441,343.412478001241
738280.36408994370140135288,2.03100680562761,-2.40028077028718,343.474023662018
738280.36409003415610641241,2.09255246640421,-2.27718944873399,343.449405397707
738280.36409012461081147194,2.1540981271808,-2.20333465580208,343.252459283222
738280.36409021506551653147,2.20333465580208,-2.16640725933612,343.424787133396
738280.36409030540380626917,2.19102552364676,-2.14178899502548,343.449405397707
738280.36409039585851132870,2.27718944873399,-2.09255246640421,343.350932340465
738280.36409048631321638823,2.30180771304463,-2.08024333424889,343.375550604775
738280.36409057676792144775,2.2156437879574,-2.1540981271808,343.375550604775
738280.36409066722262650728,2.14178899502548,-2.2156437879574,343.36324147262
738280.36409075756091624498,2.11717073071485,-2.24026205226803,343.375550604775
738280.36409084801562130451,1.99407940916166,-2.37566250597654,343.38785973693
738280.36409093847032636404,1.96946114485102,-2.42489903459782,343.400168869086
738280.36409102892503142357,1.92022461622974,-2.47413556321909,343.36324147262
738280.36409111937973648310,1.9571520126957,-2.46182643106377,343.400168869086
738280.36409120983444154263,1.89560635191911,-2.52337209184037,343.412478001241
738280.36409130017273128033,1.92022461622974,-2.48644469537441,343.375550604775
738280.36409139062743633986,1.88329721976379,-2.46182643106377,343.375550604775
738280.36409148108214139938,1.96946114485102,-2.42489903459782,343.400168869086
738280.36409157153684645891,1.90791548407442,-2.51106295968505,343.400168869086
738280.36409166199155151844,1.89560635191911,-2.51106295968505,343.400168869086
738280.36409175232984125614,1.93253374838506,-2.47413556321909,343.36324147262
738280.36409184278454631567,1.82175155898719,-2.6095360169276,343.301695811843
738280.36409193323925137520,1.84636982329783,-2.58491775261696,343.314004943999
738280.36409202369395643473,1.92022461622974,-2.49875382752973,343.350932340465
738280.36409211414866149426,1.88329721976379,-2.56029948830632,343.326314076154
738280.36409220460336655378,1.87098808760847,-2.54799035615101,343.301695811843
738280.36409229494165629148,1.94484288054038,-2.49875382752973,343.277077547533
738280.36409238539636135101,1.92022461622974,-2.48644469537441,343.375550604775
738280.36409247585106641054,1.85867895545315,-2.59722688477228,343.38785973693
738280.36409256630577147007,1.87098808760847,-2.53568122399569,343.38785973693
738280.36409265676047652960,1.90791548407442,-2.51106295968505,343.400168869086
738280.36409274721518158913,1.98177027700634,-2.44951729890845,343.449405397707
738280.36409283755347132683,1.88329721976379,-2.51106295968505,343.412478001241
738280.36409292800817638636,1.85867895545315,-2.56029948830632,343.338623208309
738280.36409301846288144588,1.90791548407442,-2.51106295968505,343.449405397707
738280.36409310891758650541,1.89560635191911,-2.52337209184037,343.437096265552
738280.36409319937229156494,1.92022461622974,-2.51106295968505,343.350932340465
738280.36409328971058130264,1.88329721976379,-2.59722688477228,343.38785973693
738280.36409338016528636217,1.85867895545315,-2.53568122399569,343.350932340465
738280.36409347061999142170,1.89560635191911,-2.51106295968505,343.424787133396
738280.36409356107469648123,1.82175155898719,-2.59722688477228,343.314004943999
738280.36409365152940154076,1.87098808760847,-2.57260862046164,343.227841018911
738280.36409374198410660028,1.9571520126957,-2.49875382752973,343.36324147262
738280.36409383232239633799,1.93253374838506,-2.51106295968505,343.350932340465
738280.36409392277710139751,1.87098808760847,-2.54799035615101,343.412478001241
738280.36409401323180645704,1.88329721976379,-2.57260862046164,343.437096265552
738280.36409410368651151657,1.96946114485102,-2.46182643106377,343.400168869086
738280.36409419414121657610,1.98177027700634,-2.44951729890845,343.437096265552
738280.36409428447950631380,1.85867895545315,-2.51106295968505,343.474023662018
738280.36409437493421137333,1.94484288054038,-2.46182643106377,343.375550604775
738280.36409446538891643286,1.93253374838506,-2.48644469537441,343.400168869086
738280.36409455584362149239,1.87098808760847,-2.53568122399569,343.412478001241
738280.36409464629832655191,1.82175155898719,-2.57260862046164,343.412478001241
738280.36409473675303161144,1.93253374838506,-2.48644469537441,343.400168869086
738280.36409482709132134914,1.92022461622974,-2.49875382752973,343.400168869086
738280.36409491754602640867,1.88329721976379,-2.53568122399569,343.412478001241
738280.36409500800073146820,1.78482416252124,-2.62184514908292,343.412478001241
738280.36409509845543652773,1.85867895545315,-2.56029948830632,343.314004943999
738280.36409518891014158726,1.88329721976379,-2.53568122399569,343.326314076154
738280.36409527924843132496,1.84636982329783,-2.56029948830632,343.326314076154
738280.36409536970313638449,1.87098808760847,-2.54799035615101,343.314004943999
738280.36409546015784144402,1.85867895545315,-2.59722688477228,343.375550604775
738280.36409555061254650354,1.88329721976379,-2.73262733848079,343.277077547533
738280.36409564106725156307,1.98177027700634,-2.59722688477228,343.215531886756
738280.36409573152195662260,2.4125899024425,-1.82175155898719,343.36324147262
738280.36409582186024636030,2.6095360169276,-0.997039704580828,343.634042380037
738280.36409591231495141983,2.44951729890845,-1.16936755475529,343.510951058484
738280.36409600276965647936,1.90791548407442,-2.17871639149144,343.314004943999
738280.36409609322436153889,1.51402325510422,-2.65877254554888,343.474023662018
738280.36409618367906659842,1.48940499079358,-2.83110039572334,343.437096265552
738280.36409627401735633612,1.58787804803613,-2.76955473494675,343.350932340465
738280.36409636447206139565,1.72327850174464,-2.67108167770419,343.400168869086
738280.36409645492676645517,1.82175155898719,-2.59722688477228,343.449405397707
738280.36409654538147151470,1.84636982329783,-2.57260862046164,343.412478001241
738280.36409663583617657423,1.93253374838506,-2.48644469537441,343.36324147262
738280.36409672629088163376,1.87098808760847,-2.54799035615101,343.314004943999
738280.36409681662917137146,1.78482416252124,-2.64646341339356,343.350932340465
738280.36409690708387643099,1.87098808760847,-2.65877254554888,343.38785973693
738280.36409699753858149052,1.88329721976379,-2.56029948830632,343.412478001241
738280.36409708799328655005,1.9571520126957,-2.48644469537441,343.227841018911
738280.36409717844799160957,1.84636982329783,-2.58491775261696,343.264768415377
738280.36409726878628134727,1.85867895545315,-2.49875382752973,343.375550604775
738280.36409735924098640680,1.89560635191911,-2.46182643106377,343.424787133396
738280.36409744969569146633,1.93253374838506,-2.51106295968505,343.437096265552
738280.36409754015039652586,1.94484288054038,-2.51106295968505,343.36324147262
738280.36409763060510158539,1.93253374838506,-2.48644469537441,343.38785973693
738280.36409772105980664492,1.98177027700634,-2.44951729890845,343.338623208309
738280.36409781139809638262,1.9571520126957,-2.48644469537441,343.338623208309
738280.36409790185280144215,1.90791548407442,-2.57260862046164,343.38785973693
738280.36409799230750650167,2.00638854131698,-2.4125899024425,343.314004943999
738280.36409808276221156120,1.99407940916166,-2.36335337382122,343.36324147262
738280.36409817321691662073,2.06793420209357,-2.28949858088931,343.400168869086
738280.36409826355520635843,2.09255246640421,-2.30180771304463,343.424787133396
738280.36409835400991141796,2.19102552364676,-2.24026205226803,343.375550604775
738280.36409844446461647749,2.22795292011272,-2.16640725933612,343.38785973693
738280.36409853491932153702,2.20333465580208,-2.1540981271808,343.424787133396
738280.36409862537402659655,2.25257118442335,-2.1540981271808,343.350932340465
738280.36409871582873165607,2.31411684519995,-2.00638854131698,343.36324147262
738280.36409880616702139378,2.1540981271808,-2.14178899502548,343.437096265552
738280.36409889662172645330,2.20333465580208,-2.19102552364676,343.38785973693
738280.36409898707643151283,2.12947986287016,-2.20333465580208,343.36324147262
738280.36409907753113657236,2.05562506993825,-2.32642597735527,343.375550604775
738280.36409916798584163189,2.05562506993825,-2.31411684519995,343.38785973693
738280.36409925832413136959,1.9571520126957,-2.46182643106377,343.400168869086
738280.36409934877883642912,1.92022461622974,-2.43720816675314,343.38785973693
738280.36409943923354148865,1.94484288054038,-2.44951729890845,343.400168869086
738280.36409952968824654818,1.94484288054038,-2.4125899024425,343.36324147262
738280.36409962014295160770,1.89560635191911,-2.48644469537441,343.38785973693
738280.36409971059765666723,1.89560635191911,-2.51106295968505,343.338623208309
738280.36409980093594640493,1.93253374838506,-2.46182643106377,343.350932340465
738280.36409989139065146446,1.84636982329783,-2.56029948830632,343.338623208309
738280.36409998184535652399,1.93253374838506,-2.48644469537441,343.36324147262
738280.36410007230006158352,1.85867895545315,-2.56029948830632,343.350932340465
738280.36410016275476664305,1.92022461622974,-2.54799035615101,343.350932340465
738280.36410025320947170258,1.87098808760847,-2.56029948830632,343.350932340465
738280.36410034354776144028,1.89560635191911,-2.49875382752973,343.350932340465
738280.36410043400246649981,1.84636982329783,-2.53568122399569,343.412478001241
738280.36410052445717155933,1.92022461622974,-2.49875382752973,343.326314076154
738280.36410061491187661886,1.92022461622974,-2.46182643106377,343.117058829513
738280.36410070536658167839,1.94484288054038,-2.44951729890845,343.215531886756
738280.36410079570487141609,1.92022461622974,-2.51106295968505,343.314004943999
738280.36410088615957647562,1.87098808760847,-2.56029948830632,343.326314076154
738280.36410097661428153515,1.90791548407442,-2.46182643106377,343.301695811843
738280.36410106706898659468,1.90791548407442,-2.46182643106377,343.375550604775
738280.36410115752369165421,1.98177027700634,-2.4125899024425,343.326314076154
738280.36410124797839671373,1.88329721976379,-2.53568122399569,343.350932340465
738280.36410133831668645144,1.9571520126957,-2.48644469537441,343.400168869086
738280.36410142877139151096,1.87098808760847,-2.52337209184037,343.301695811843
738280.36410151922609657049,1.88329721976379,-2.51106295968505,343.375550604775
738280.36410160968080163002,1.88329721976379,-2.52337209184037,343.338623208309
738280.36410170013550668955,1.92022461622974,-2.48644469537441,343.437096265552
738280.36410179047379642725,1.88329721976379,-2.54799035615101,343.412478001241
738280.36410188092850148678,1.87098808760847,-2.49875382752973,343.338623208309
738280.36410197138320654631,1.89560635191911,-2.54799035615101,343.38785973693
738280.36410206183791160583,1.98177027700634,-2.42489903459782,343.400168869086
738280.36410215229261666536,1.90791548407442,-2.46182643106377,343.449405397707
738280.36410224274732172489,1.9571520126957,-2.42489903459782,343.338623208309
738280.36410233308561146259,1.85867895545315,-2.57260862046164,343.424787133396
738280.36410242354031652212,1.93253374838506,-2.51106295968505,343.424787133396
738280.36410251399502158165,1.89560635191911,-2.52337209184037,343.350932340465
738280.36410260444972664118,1.9571520126957,-2.46182643106377,343.449405397707
738280.36410269490443170071,1.9571520126957,-2.43720816675314,343.437096265552
738280.36410278524272143841,1.9571520126957,-2.44951729890845,343.498641926328
738280.36410287569742649794,1.94484288054038,-2.48644469537441,343.437096265552
738280.36410296615213155746,1.94484288054038,-2.43720816675314,343.424787133396
738280.36410305660683661699,1.92022461622974,-2.48644469537441,343.449405397707
738280.36410314706154167652,1.89560635191911,-2.51106295968505,343.498641926328
738280.36410323751624673605,1.89560635191911,-2.54799035615101,343.461714529862
738280.36410332785453647375,1.85867895545315,-2.51106295968505,343.424787133396
738280.36410341830924153328,1.89560635191911,-2.53568122399569,343.449405397707
738280.36410350876394659281,1.84636982329783,-2.52337209184037,343.461714529862
738280.36410359921865165234,1.88329721976379,-2.49875382752973,343.36324147262
738280.36410368967335671186,1.87098808760847,-2.53568122399569,343.400168869086
738280.36410378001164644957,1.90791548407442,-2.51106295968505,343.338623208309
738280.36410387046635150909,1.83406069114251,-2.69569994201483,343.240150151067
738280.36410396092105656862,1.99407940916166,-2.70800907417015,343.203222754601
738280.36410405137576162815,2.28949858088931,-2.19102552364676,343.203222754601
738280.36410414183046668768,2.57260862046164,-1.31707714061912,343.289386679688
738280.36410423228517174721,2.49875382752973,-0.824711854406364,343.535569322794
738280.36410432262346148491,2.1540981271808,-1.64942370881273,343.38785973693
738280.36410441307816654444,1.67404197312337,-2.43720816675314,343.54787845495
738280.36410450353287160397,1.46478672648295,-2.73262733848079,343.609424115726
738280.36410459398757666349,1.60018718019145,-2.75724560279143,343.510951058484
738280.36410468444228172302,1.72327850174464,-2.74493647063611,343.449405397707
738280.36410477478057146072,1.77251503036592,-2.63415428123824,343.486332794173
738280.36410486523527652025,1.90791548407442,-2.52337209184037,343.437096265552
738280.36410495568998157978,1.85867895545315,-2.52337209184037,343.338623208309
738280.36410504614468663931,1.83406069114251,-2.54799035615101,343.326314076154
738280.36410513659939169884,1.85867895545315,-2.56029948830632,343.314004943999
738280.36410522705409675837,1.88329721976379,-2.54799035615101,343.350932340465
738280.36410531739238649607,1.88329721976379,-2.57260862046164,343.461714529862
738280.36410540784709155560,1.89560635191911,-2.56029948830632,343.449405397707
738280.36410549830179661512,1.88329721976379,-2.52337209184037,343.338623208309
738280.36410558875650167465,1.90791548407442,-2.52337209184037,343.350932340465
738280.36410567921120673418,1.84636982329783,-2.54799035615101,343.474023662018
738280.36410576954949647188,1.89560635191911,-2.53568122399569,343.424787133396
738280.36410586000420153141,1.92022461622974,-2.52337209184037,343.338623208309
738280.36410595045890659094,1.96946114485102,-2.48644469537441,343.400168869086
738280.36410604091361165047,1.96946114485102,-2.49875382752973,343.412478001241
738280.36410613136831671000,1.93253374838506,-2.57260862046164,343.424787133396
738280.36410622182302176952,1.99407940916166,-2.42489903459782,343.424787133396
738280.36410631216131150723,2.06793420209357,-2.31411684519995,343.424787133396
738280.36410640261601656675,1.94484288054038,-2.48644469537441,343.437096265552
738280.36410649307072162628,2.03100680562761,-2.33873510951058,343.326314076154
738280.36410658352542668581,2.05562506993825,-2.30180771304463,343.400168869086
738280.36410667398013174534,2.10486159855953,-2.33873510951058,343.424787133396
738280.36410676431842148304,2.17871639149144,-2.16640725933612,343.400168869086
738280.36410685477312654257,2.19102552364676,-2.1540981271808,343.38785973693
738280.36410694522783160210,2.27718944873399,-2.09255246640421,343.449405397707
738280.36410703568253666162,2.30180771304463,-2.09255246640421,343.412478001241
738280.36410712613724172115,2.28949858088931,-2.09255246640421,343.424787133396
738280.36410721659194678068,2.27718944873399,-2.06793420209357,343.400168869086
738280.36410730693023651838,2.26488031657867,-2.06793420209357,343.400168869086
738280.36410739738494157791,2.22795292011272,-2.12947986287016,343.461714529862
738280.36410748783964663744,2.01869767347229,-2.38797163813186,343.449405397707
738280.36410757829435169697,2.03100680562761,-2.4125899024425,343.412478001241
738280.36410766874905675650,1.99407940916166,-2.4125899024425,343.314004943999
738280.36410775908734649420,2.00638854131698,-2.40028077028718,343.350932340465
738280.36410784954205155373,1.89560635191911,-2.51106295968505,343.375550604775
738280.36410793999675661325,1.98177027700634,-2.37566250597654,343.437096265552
738280.36410803045146167278,1.92022461622974,-2.42489903459782,343.474023662018
738280.36410812090616673231,1.93253374838506,-2.42489903459782,343.400168869086
738280.36410821136087179184,1.85867895545315,-2.56029948830632,343.375550604775
738280.36410830169916152954,1.87098808760847,-2.56029948830632,343.326314076154
738280.36410839215386658907,1.90791548407442,-2.46182643106377,343.338623208309
738280.36410848260857164860,1.85867895545315,-2.53568122399569,343.350932340465
738280.36410857306327670813,1.92022461622974,-2.44951729890845,343.400168869086
738280.36410866351798176765,1.89560635191911,-2.51106295968505,343.338623208309
738280.36410875397268682718,1.94484288054038,-2.44951729890845,343.36324147262
738280.36410884431097656488,1.94484288054038,-2.47413556321909,343.301695811843
738280.36410893476568162441,1.85867895545315,-2.57260862046164,343.338623208309
738280.36410902522038668394,1.92022461622974,-2.53568122399569,343.375550604775
738280.36410911567509174347,1.90791548407442,-2.49875382752973,343.338623208309
738280.36410920612979680300,2.03100680562761,-2.37566250597654,343.350932340465
738280.36410929646808654070,1.87098808760847,-2.54799035615101,343.326314076154
738280.36410938692279160023,1.89560635191911,-2.49875382752973,343.350932340465
738280.36410947737749665976,1.94484288054038,-2.46182643106377,343.36324147262
738280.36410956783220171928,1.9571520126957,-2.47413556321909,343.412478001241
738280.36410965828690677881,1.89560635191911,-2.53568122399569,343.350932340465
738280.36410974874161183834,1.89560635191911,-2.52337209184037,343.400168869086
738280.36410983907990157604,1.90791548407442,-2.48644469537441,343.338623208309
738280.36410992953460663557,1.9571520126957,-2.46182643106377,343.36324147262
738280.36411001998931169510,1.99407940916166,-2.42489903459782,343.412478001241
738280.36411011044401675463,1.85867895545315,-2.6095360169276,343.437096265552
738280.36411020089872181416,1.87098808760847,-2.49875382752973,343.437096265552
738280.36411029123701155186,1.9571520126957,-2.49875382752973,343.338623208309
738280.36411038169171661139,1.93253374838506,-2.51106295968505,343.38785973693
738280.36411047214642167091,1.9571520126957,-2.40028077028718,343.38785973693
738280.36411056260112673044,1.9571520126957,-2.44951729890845,343.412478001241
738280.36411065305583178997,1.93253374838506,-2.48644469537441,343.350932340465
738280.36411074351053684950,1.84636982329783,-2.59722688477228,343.338623208309
738280.36411083384882658720,1.9571520126957,-2.48644469537441,343.38785973693
738280.36411092430353164673,1.93253374838506,-2.48644469537441,343.437096265552
738280.36411101475823670626,1.93253374838506,-2.44951729890845,343.437096265552
738280.36411110521294176579,1.9571520126957,-2.4125899024425,343.326314076154
738280.36411119566764682531,1.98177027700634,-2.38797163813186,343.314004943999
738280.36411128600593656301,1.96946114485102,-2.52337209184037,343.326314076154
738280.36411137646064162254,1.90791548407442,-2.42489903459782,343.375550604775
738280.36411146691534668207,1.96946114485102,-2.36335337382122,343.474023662018
738280.36411155737005174160,1.84636982329783,-2.52337209184037,343.474023662018
738280.36411164782475680113,1.87098808760847,-2.56029948830632,343.424787133396
738280.36411173827946186066,1.88329721976379,-2.52337209184037,343.400168869086
738280.36411182861775159836,1.87098808760847,-2.54799035615101,343.437096265552
738280.36411191907245665789,1.84636982329783,-2.56029948830632,343.437096265552
738280.36411200952716171741,1.88329721976379,-2.57260862046164,343.350932340465
738280.36411209998186677694,1.87098808760847,-2.53568122399569,343.461714529862
738280.36411219043657183647,1.87098808760847,-2.51106295968505,343.474023662018
738280.36411228077486157417,1.89560635191911,-2.59722688477228,343.38785973693
738280.36411237122956663370,1.96946114485102,-2.6095360169276,343.252459283222
738280.36411246168427169323,2.2156437879574,-2.17871639149144,343.437096265552
738280.36411255213897675276,2.58491775261696,-1.20629495122125,343.646351512192
738280.36411264259368181229,2.51106295968505,-0.837020986561683,343.75713370159
738280.36411273304838687181,2.14178899502548,-1.72327850174464,343.510951058484
738280.36411282338667660952,1.58787804803613,-2.49875382752973,343.560187587105
738280.36411291384138166904,1.45247759432763,-2.74493647063611,343.658660644347
738280.36411300429608672857,1.61249631234677,-2.78186386710206,343.498641926328
738280.36411309475079178810,1.71096936958932,-2.68339080985951,343.461714529862
738280.36411318520549684763,1.78482416252124,-2.67108167770419,343.36324147262
738280.36411327554378658533,1.90791548407442,-2.49875382752973,343.277077547533
738280.36411336599849164486,1.87098808760847,-2.51106295968505,343.338623208309
738280.36411345645319670439,1.83406069114251,-2.53568122399569,343.350932340465
738280.36411354690790176392,1.88329721976379,-2.52337209184037,343.314004943999
738280.36411363736260682344,1.84636982329783,-2.57260862046164,343.338623208309
738280.36411372781731188297,1.88329721976379,-2.57260862046164,343.36324147262
738280.36411381815560162067,1.85867895545315,-2.58491775261696,343.424787133396
738280.36411390861030668020,1.87098808760847,-2.57260862046164,343.375550604775
738280.36411399906501173973,1.87098808760847,-2.56029948830632,343.38785973693
738280.36411408951971679926,1.88329721976379,-2.52337209184037,343.461714529862
738280.36411417997442185879,1.92022461622974,-2.47413556321909,343.36324147262
738280.36411427031271159649,1.94484288054038,-2.47413556321909,343.301695811843
738280.36411436076741665602,1.9571520126957,-2.47413556321909,343.289386679688
738280.36411445122212171555,1.9571520126957,-2.44951729890845,343.400168869086
738280.36411454167682677507,1.90791548407442,-2.48644469537441,343.424787133396
738280.36411463213153183460,1.93253374838506,-2.46182643106377,343.326314076154
738280.36411472258623689413,2.03100680562761,-2.38797163813186,343.289386679688
738280.36411481292452663183,2.04331593778293,-2.4125899024425,343.289386679688
738280.36411490337923169136,2.08024333424889,-2.28949858088931,343.400168869086
738280.36411499383393675089,2.08024333424889,-2.32642597735527,343.375550604775
738280.36411508428864181042,2.11717073071485,-2.26488031657867,343.412478001241
738280.36411517474334686995,2.1540981271808,-2.26488031657867,343.400168869086
738280.36411526508163660765,2.2156437879574,-2.12947986287016,343.350932340465
738280.36411535553634166718,2.27718944873399,-2.05562506993825,343.38785973693
738280.36411544599104672670,2.25257118442335,-2.06793420209357,343.437096265552
738280.36411553644575178623,2.25257118442335,-2.09255246640421,343.437096265552
738280.36411562690045684576,2.28949858088931,-2.06793420209357,343.350932340465
738280.36411571735516190529,2.17871639149144,-2.16640725933612,343.400168869086
738280.36411580769345164299,2.11717073071485,-2.22795292011272,343.449405397707
738280.36411589814815670252,2.08024333424889,-2.27718944873399,343.437096265552
738280.36411598860286176205,2.04331593778293,-2.33873510951058,343.375550604775
738280.36411607905756682158,1.99407940916166,-2.44951729890845,343.424787133396
738280.36411616951227188110,2.00638854131698,-2.4125899024425,343.38785973693
738280.36411625996697694063,1.88329721976379,-2.48644469537441,343.350932340465
738280.36411635030526667833,1.87098808760847,-2.53568122399569,343.38785973693
738280.36411644075997173786,1.90791548407442,-2.52337209184037,343.412478001241
738280.36411653121467679739,1.90791548407442,-2.49875382752973,343.400168869086
738280.36411662166938185692,1.88329721976379,-2.48644469537441,343.326314076154
738280.36411671212408691645,1.87098808760847,-2.51106295968505,343.350932340465
738280.36411680246237665415,1.88329721976379,-2.48644469537441,343.338623208309
738280.36411689291708171368,1.84636982329783,-2.52337209184037,343.301695811843
738280.36411698337178677320,1.93253374838506,-2.46182643106377,343.289386679688
738280.36411707382649183273,1.94484288054038,-2.44951729890845,343.314004943999
738280.36411716428119689226,1.87098808760847,-2.53568122399569,343.314004943999
738280.36411725473590195179,1.92022461622974,-2.49875382752973,343.36324147262
738280.36411734507419168949,1.88329721976379,-2.58491775261696,343.338623208309
738280.36411743552889674902,1.85867895545315,-2.53568122399569,343.326314076154
738280.36411752598360180855,1.92022461622974,-2.48644469537441,343.350932340465
738280.36411761643830686808,1.92022461622974,-2.51106295968505,343.314004943999
738280.36411770689301192760,1.98177027700634,-2.44951729890845,343.36324147262
738280.36411779723130166531,2.00638854131698,-2.46182643106377,343.350932340465
738280.36411788768600672483,1.92022461622974,-2.48644469537441,343.38785973693
738280.36411797814071178436,1.90791548407442,-2.52337209184037,343.400168869086
738280.36411806859541684389,1.90791548407442,-2.51106295968505,343.36324147262
738280.36411815905012190342,1.84636982329783,-2.52337209184037,343.36324147262
738280.36411824950482696295,1.92022461622974,-2.47413556321909,343.350932340465
738280.36411833984311670065,1.90791548407442,-2.48644469537441,343.264768415377
738280.36411843029782176018,1.85867895545315,-2.53568122399569,343.350932340465
738280.36411852075252681971,1.90791548407442,-2.53568122399569,343.400168869086
738280.36411861120723187923,1.94484288054038,-2.49875382752973,343.375550604775
738280.36411870166193693876,1.94484288054038,-2.49875382752973,343.326314076154
738280.36411879200022667646,1.94484288054038,-2.48644469537441,343.36324147262
738280.36411888245493173599,1.96946114485102,-2.47413556321909,343.412478001241
738280.36411897290963679552,2.01869767347229,-2.43720816675314,343.400168869086
738280.36411906336434185505,1.99407940916166,-2.46182643106377,343.36324147262
738280.36411915381904691458,1.99407940916166,-2.42489903459782,343.412478001241
738280.36411924427375197411,1.98177027700634,-2.42489903459782,343.400168869086
738280.36411933461204171181,1.9571520126957,-2.43720816675314,343.424787133396
738280.36411942506674677134,1.96946114485102,-2.42489903459782,343.36324147262
738280.36411951552145183086,1.85867895545315,-2.52337209184037,343.461714529862
738280.36411960597615689039,1.83406069114251,-2.59722688477228,343.412478001241
738280.36411969643086194992,1.87098808760847,-2.58491775261696,343.412478001241
738280.36411978676915168762,1.89560635191911,-2.57260862046164,343.375550604775
738280.36411987722385674715,1.85867895545315,-2.57260862046164,343.412478001241
738280.36411996767856180668,1.93253374838506,-2.48644469537441,343.424787133396
738280.36412005813326686621,1.84636982329783,-2.56029948830632,343.38785973693
738280.36412014858797192574,1.83406069114251,-2.56029948830632,343.486332794173
738280.36412023904267698526,1.82175155898719,-2.65877254554888,343.437096265552
738280.36412032938096672297,1.93253374838506,-2.72031820632547,343.227841018911
738280.36412041983567178249,2.14178899502548,-2.37566250597654,343.375550604775
738280.36412051029037684202,2.56029948830632,-1.39093193355103,343.597114983571
738280.36412060074508190155,2.51106295968505,-0.861639250872321,343.75713370159
738280.36412069119978696108,2.24026205226803,-1.57556891588082,343.498641926328
738280.36412078153807669878,1.72327850174464,-2.42489903459782,343.584805851416
738280.36412087199278175831,1.51402325510422,-2.67108167770419,343.646351512192
738280.36412096244748681784,1.57556891588082,-2.75724560279143,343.486332794173
738280.36412105290219187737,1.72327850174464,-2.69569994201483,343.350932340465
738280.36412114335689693689,1.88329721976379,-2.56029948830632,343.424787133396
738280.36412123381160199642,1.87098808760847,-2.58491775261696,343.449405397707
738280.36412132414989173412,1.84636982329783,-2.59722688477228,343.326314076154
738280.36412141460459679365,1.79713329467655,-2.63415428123824,343.36324147262
738280.36412150505930185318,1.87098808760847,-2.53568122399569,343.326314076154
738280.36412159551400691271,1.84636982329783,-2.56029948830632,343.338623208309
738280.36412168596871197224,1.83406069114251,-2.59722688477228,343.36324147262
738280.36412177630700170994,1.87098808760847,-2.56029948830632,343.301695811843
738280.36412186676170676947,1.87098808760847,-2.58491775261696,343.240150151067
738280.36412195721641182899,1.89560635191911,-2.56029948830632,343.400168869086
738280.36412204767111688852,1.87098808760847,-2.6095360169276,343.412478001241
738280.36412213812582194805,1.89560635191911,-2.57260862046164,343.338623208309
738280.36412222858052700758,1.94484288054038,-2.57260862046164,343.400168869086
738280.36412231891881674528,1.94484288054038,-2.46182643106377,343.424787133396
738280.36412240937352180481,2.00638854131698,-2.43720816675314,343.301695811843
738280.36412249982822686434,1.87098808760847,-2.48644469537441,343.424787133396
738280.36412259028293192387,1.98177027700634,-2.40028077028718,343.449405397707
738280.36412268073763698339,2.03100680562761,-2.4125899024425,343.375550604775
738280.36412277107592672110,1.98177027700634,-2.44951729890845,343.375550604775
738280.36412286153063178062,2.01869767347229,-2.40028077028718,343.437096265552
738280.36412295198533684015,2.10486159855953,-2.33873510951058,343.38785973693
738280.36412304244004189968,2.11717073071485,-2.27718944873399,343.36324147262
738280.36412313289474695921,2.20333465580208,-2.20333465580208,343.350932340465
738280.36412322334945201874,2.22795292011272,-2.19102552364676,343.301695811843
738280.36412331368774175644,2.2156437879574,-2.10486159855953,343.350932340465
738280.36412340414244681597,2.22795292011272,-2.10486159855953,343.326314076154
738280.36412349459715187550,2.30180771304463,-2.05562506993825,343.38785973693
738280.36412358505185693502,2.2156437879574,-2.12947986287016,343.400168869086
738280.36412367550656199455,2.19102552364676,-2.16640725933612,343.350932340465
738280.36412376596126705408,2.19102552364676,-2.19102552364676,343.412478001241
738280.36412385629955679178,2.10486159855953,-2.28949858088931,343.424787133396
738280.36412394675426185131,1.99407940916166,-2.40028077028718,343.449405397707
738280.36412403720896691084,1.9571520126957,-2.46182643106377,343.38785973693
738280.36412412766367197037,1.92022461622974,-2.52337209184037,343.424787133396
738280.36412421811837702990,1.99407940916166,-2.44951729890845,343.400168869086
738280.36412430845666676760,1.90791548407442,-2.53568122399569,343.375550604775
738280.36412439891137182713,1.90791548407442,-2.53568122399569,343.437096265552
738280.36412448936607688665,1.89560635191911,-2.48644469537441,343.338623208309
738280.36412457982078194618,1.88329721976379,-2.51106295968505,343.264768415377
738280.36412467027548700571,1.87098808760847,-2.53568122399569,343.326314076154
738280.36412476073019206524,1.88329721976379,-2.54799035615101,343.326314076154
738280.36412485106848180294,1.92022461622974,-2.52337209184037,343.338623208309
738280.36412494152318686247,1.84636982329783,-2.57260862046164,343.36324147262
738280.36412503197789192200,1.88329721976379,-2.58491775261696,343.203222754601
738280.36412512243259698153,1.92022461622974,-2.49875382752973,343.326314076154
738280.36412521288730204105,1.93253374838506,-2.51106295968505,343.36324147262
738280.36412530322559177876,1.92022461622974,-2.54799035615101,343.289386679688
738280.36412539368029683828,1.94484288054038,-2.49875382752973,343.153986225979
738280.36412548413500189781,1.92022461622974,-2.52337209184037,343.314004943999
738280.36412557458970695734,1.90791548407442,-2.53568122399569,343.301695811843
738280.36412566504441201687,2.00638854131698,-2.47413556321909,343.375550604775
738280.36412575549911707640,1.93253374838506,-2.53568122399569,343.301695811843
738280.36412584583740681410,1.93253374838506,-2.49875382752973,343.338623208309
738280.36412593629211187363,1.92022461622974,-2.52337209184037,343.375550604775
738280.36412602674681693316,1.93253374838506,-2.52337209184037,343.314004943999
738280.36412611720152199268,1.87098808760847,-2.56029948830632,343.350932340465
738280.36412620765622705221,1.92022461622974,-2.54799035615101,343.400168869086
738280.36412629799451678991,1.88329721976379,-2.58491775261696,343.350932340465
738280.36412638844922184944,1.92022461622974,-2.53568122399569,343.36324147262
738280.36412647890392690897,1.93253374838506,-2.52337209184037,343.350932340465
738280.36412656935863196850,1.89560635191911,-2.53568122399569,343.36324147262
738280.36412665981333702803,1.98177027700634,-2.46182643106377,343.375550604775
738280.36412675026804208755,1.98177027700634,-2.48644469537441,343.375550604775
738280.36412684060633182526,1.96946114485102,-2.47413556321909,343.412478001241
738280.36412693106103688478,1.96946114485102,-2.47413556321909,343.461714529862
738280.36412702151574194431,1.9571520126957,-2.49875382752973,343.375550604775
738280.36412711197044700384,1.96946114485102,-2.47413556321909,343.314004943999
738280.36412720242515206337,1.94484288054038,-2.49875382752973,343.36324147262
738280.36412729276344180107,1.94484288054038,-2.51106295968505,343.338623208309
738280.36412738321814686060,1.93253374838506,-2.48644469537441,343.375550604775
738280.36412747367285192013,1.92022461622974,-2.52337209184037,343.350932340465
738280.36412756412755697966,1.93253374838506,-2.52337209184037,343.412478001241
738280.36412765458226203918,1.82175155898719,-2.62184514908292,343.449405397707
738280.36412774503696709871,1.84636982329783,-2.57260862046164,343.38785973693
738280.36412783537525683641,1.89560635191911,-2.57260862046164,343.412478001241
738280.36412792582996189594,1.82175155898719,-2.59722688477228,343.437096265552
738280.36412801628466695547,1.84636982329783,-2.57260862046164,343.461714529862
738280.36412810673937201500,1.89560635191911,-2.74493647063611,343.277077547533
738280.36412819719407707453,2.01869767347229,-2.6095360169276,343.350932340465
738280.36412828753236681223,2.37566250597654,-1.87098808760847,343.486332794173
738280.36412837798707187176,2.6095360169276,-0.935494043804234,343.658660644347
738280.36412846844177693129,2.42489903459782,-1.12013102613402,343.621733247881
738280.36412855889648199081,1.99407940916166,-2.04331593778293,343.498641926328
738280.36412864935118705034,1.48940499079358,-2.69569994201483,343.510951058484
738280.36412873980589210987,1.53864151941486,-2.75724560279143,343.54787845495
738280.36412883014418184757,1.63711457665741,-2.78186386710206,343.252459283222
738280.36412892059888690710,1.67404197312337,-2.76955473494675,343.289386679688
738280.36412901105359196663,1.83406069114251,-2.62184514908292,343.437096265552
738280.36412910150829702616,1.79713329467655,-2.63415428123824,343.400168869086
738280.36412919196300208569,1.84636982329783,-2.63415428123824,343.350932340465
738280.36412928230129182339,1.89560635191911,-2.53568122399569,343.301695811843
738280.36412937275599688292,1.88329721976379,-2.54799035615101,343.38785973693
738280.36412946321070194244,1.87098808760847,-2.54799035615101,343.375550604775
738280.36412955366540700197,1.94484288054038,-2.49875382752973,343.375550604775
738280.36412964412011206150,1.92022461622974,-2.54799035615101,343.38785973693
738280.36412973457481712103,1.85867895545315,-2.6095360169276,343.36324147262
738280.36412982491310685873,1.83406069114251,-2.67108167770419,343.338623208309
738280.36412991536781191826,1.88329721976379,-2.52337209184037,343.301695811843
738280.36413000582251697779,1.88329721976379,-2.52337209184037,343.326314076154
738280.36413009627722203732,1.93253374838506,-2.48644469537441,343.326314076154
738280.36413018673192709684,1.9571520126957,-2.48644469537441,343.375550604775
738280.36413027707021683455,1.90791548407442,-2.52337209184037,343.326314076154
738280.36413036752492189407,1.98177027700634,-2.46182643106377,343.350932340465
738280.36413045797962695360,2.03100680562761,-2.43720816675314,343.350932340465
738280.36413054843433201313,1.99407940916166,-2.53568122399569,343.36324147262
738280.36413063888903707266,2.01869767347229,-2.38797163813186,343.400168869086
738280.36413072934374213219,2.10486159855953,-2.37566250597654,343.38785973693
738280.36413081968203186989,2.12947986287016,-2.30180771304463,343.400168869086
738280.36413091013673692942,2.16640725933612,-2.22795292011272,343.437096265552
738280.36413100059144198895,2.20333465580208,-2.24026205226803,343.38785973693
738280.36413109104614704847,2.17871639149144,-2.22795292011272,343.350932340465
738280.36413118150085210800,2.25257118442335,-2.12947986287016,343.326314076154
738280.36413127183914184570,2.27718944873399,-2.06793420209357,343.326314076154
738280.36413136229384690523,2.27718944873399,-2.03100680562761,343.412478001241
738280.36413145274855196476,2.2156437879574,-2.11717073071485,343.424787133396
738280.36413154320325702429,2.1540981271808,-2.19102552364676,343.289386679688
738280.36413163365796208382,2.10486159855953,-2.30180771304463,343.375550604775
738280.36413172411266714334,2.00638854131698,-2.40028077028718,343.424787133396
738280.36413181445095688105,1.99407940916166,-2.43720816675314,343.412478001241
738280.36413190490566194057,1.98177027700634,-2.43720816675314,343.400168869086
