time_dn,ecg_projection_ll_ra_mV,ecg_projection_la_ra_mV,ecg_projection_vx_rl_mV
738280.39969991904217749834,-30.0465915911334,-0.87394838302764,118.88159835607
738280.39970000949688255787,-30.0835189875993,-0.861639250872321,118.709270505895
738280.39970009995158761740,-30.1204463840653,-0.861639250872321,118.524633523565
738280.39970019040629267693,-30.1943011769972,-0.861639250872321,118.339996541236
738280.39970028086099773645,-30.1943011769972,-0.861639250872321,118.278450880459
738280.39970037119928747416,-30.1819920448419,-0.861639250872321,118.278450880459
738280.39970046165399253368,-30.1819920448419,-0.861639250872321,118.278450880459
738280.39970055210869759321,-30.1943011769972,-0.861639250872321,118.30306914477
738280.39970064256340265274,-30.1696829126865,-0.849330118717002,118.364614805546
738280.39970073301810771227,-30.1450646483759,-0.861639250872321,118.450778730633
738280.39970082347281277180,-30.1450646483759,-0.861639250872321,118.389233069857
738280.39970091392751783133,-30.1696829126865,-0.861639250872321,118.352305673391
738280.39970100438222289085,-30.1450646483759,-0.861639250872321,118.413851334168
738280.39970109483692795038,-30.10813725191,-0.87394838302764,118.598488316497
738280.39970118517521768808,-30.0219733268227,-0.87394838302764,118.807743563138
738280.39970127562992274761,-29.9973550625121,-0.87394838302764,118.943144016846
738280.39970136608462780714,-29.9973550625121,-0.87394838302764,118.930834884691
738280.39970145653933286667,-30.0096641946674,-0.861639250872321,118.918525752536
738280.39970154699403792620,-30.0096641946674,-0.87394838302764,119.041617074089
738280.39970163744874298573,-29.9481185338908,-0.886257515182958,119.250872320729
738280.39970172790344804525,-29.9481185338908,-0.898566647338277,119.373963642282
738280.39970181835815310478,-29.9111911374248,-0.910875779493596,119.509364095991
738280.39970190869644284248,-29.8742637409589,-0.935494043804234,119.718619342631
738280.39970199915114790201,-29.8373363444929,-0.923184911648915,119.829401532029
738280.39970208960585296154,-29.800408948027,-0.947803175959553,120.001729382204
738280.39970218006055802107,-29.7511724194057,-0.935494043804234,120.149438968067
738280.39970227051526308060,-29.7142450229397,-0.935494043804234,120.297148553931
738280.39970236096996814013,-29.6526993621632,-0.947803175959553,120.494094668416
738280.39970245142467319965,-29.6157719656972,-0.947803175959553,120.666422518591
738280.39970254187937825918,-29.5542263049206,-0.997039704580828,120.814132104455
738280.39970263233408331871,-29.4188258512121,-0.947803175959553,120.961841690319
738280.39970272267237305641,-29.3326619261249,-0.824711854406364,121.121860408338
738280.39970281312707811594,-29.221879736727,-0.590838343455306,121.257260862046
738280.39970290358178317547,-29.2464980010376,-0.627765739921262,121.368043051444
738280.39970299403648823500,-29.3695893225908,-0.837020986561683,121.540370901619
738280.39970308449119329453,-29.4311349833674,-0.960112308114872,121.885026601967
738280.39970317494589835405,-29.4434441155227,-1.02165796889147,121.958881394899
738280.39970326540060341358,-29.3449710582802,-1.02165796889147,122.045045319987
738280.39970335585530847311,-29.2464980010376,-1.00934883673615,122.16813664154
738280.39970344619359821081,-29.1603340759504,-1.00934883673615,122.254300566627
738280.39970353664830327034,-29.0987884151738,-0.984730572425509,122.328155359559
738280.39970362710300832987,-29.0741701508632,-0.997039704580828,122.475864945423
738280.39970371755771338940,-29.0618610187078,-1.00934883673615,122.525101474044
738280.39970380801241844893,-29.0249336222419,-1.00934883673615,122.623574531287
738280.39970389846712350845,-28.9880062257759,-1.00934883673615,122.734356720684
738280.39970398892182856798,-28.9756970936206,-1.00934883673615,122.808211513616
738280.39970407937653362751,-28.95107882931,-1.02165796889147,122.869757174393
738280.39970416983123868704,-28.9387696971547,-1.03396710104678,122.95592109948
738280.39970426016952842474,-28.8402966399121,-1.02165796889147,123.152867213965
738280.39970435062423348427,-28.8033692434461,-1.00934883673615,123.226722006897
738280.39970444107893854380,-28.7295144505142,-1.03396710104678,123.435977253538
738280.39970453153364360332,-28.643350525427,-1.03396710104678,123.657541632333
738280.39970462198834866285,-28.606423128961,-1.03396710104678,123.792942086042
738280.39970471244305372238,-28.5448774681845,-1.03396710104678,123.92834253975
738280.39970480289775878191,-28.4464044109419,-1.02165796889147,124.100670389925
738280.39970489335246384144,-28.4340952787866,-1.02165796889147,124.125288654235
738280.39970498380716890097,-28.4217861466313,-1.03396710104678,124.162216050701
738280.39970507414545863867,-28.4587135430972,-1.03396710104678,124.11297952208
738280.39970516460016369820,-28.3971678823206,-1.00934883673615,124.137597786391
738280.39970525505486875772,-28.4217861466313,-1.00934883673615,124.137597786391
738280.39970534550957381725,-28.37254961801,-1.00934883673615,124.11297952208
738280.39970543596427887678,-28.3233130893887,-0.972421440270191,124.063742993459
738280.39970552641898393631,-28.3602404858547,-0.960112308114872,123.977579068372
738280.39970561687368899584,-28.3848587501653,-0.935494043804234,123.879106011129
738280.39970570732839405537,-28.4340952787866,-0.923184911648915,123.743705557421
738280.39970579766668379307,-28.4710226752525,-0.935494043804234,123.657541632333
738280.39970588812138885260,-28.4833318074079,-0.898566647338277,123.595995971557
738280.39970597857609391212,-28.4710226752525,-0.910875779493596,123.645232500178
738280.39970606903079897165,-28.5571866003398,-0.935494043804234,123.571377707246
738280.39970615948550403118,-28.6310413932717,-0.960112308114872,123.522141178625
738280.39970624994020909071,-28.6187322611164,-0.984730572425509,123.559068575091
738280.39970634039491415024,-28.6556596575823,-0.997039704580828,123.53445031078
738280.39970643084961920977,-28.643350525427,-0.997039704580828,123.583686839401
738280.39970652130432426929,-28.6556596575823,-1.00934883673615,123.620614235867
738280.39970661164261400700,-28.6925870540483,-1.00934883673615,123.53445031078
738280.39970670209731906652,-28.7787509791355,-1.02165796889147,123.399049857072
738280.39970679255202412605,-28.8156783756015,-1.02165796889147,123.34981332845
738280.39970688300672918558,-28.8033692434461,-1.02165796889147,123.337504196295
738280.39970697346143424511,-28.7787509791355,-1.03396710104678,123.374431592761
738280.39970706391613930464,-28.7664418469802,-1.00934883673615,123.362122460606
738280.39970715437084436417,-28.8156783756015,-1.03396710104678,123.337504196295
738280.39970724482554942369,-28.8156783756015,-1.02165796889147,123.300576799829
738280.39970733516383916140,-28.8279875077568,-1.02165796889147,123.275958535518
738280.39970742561854422092,-28.8402966399121,-1.02165796889147,123.239031139052
738280.39970751607324928045,-28.8526057720674,-1.03396710104678,123.226722006897
738280.39970760652795433998,-28.8279875077568,-1.03396710104678,123.251340271208
738280.39970769698265939951,-28.8649149042227,-1.0462762332021,123.214412874742
738280.39970778743736445904,-28.8649149042227,-1.02165796889147,123.214412874742
738280.39970787789206951857,-28.8526057720674,-1.02165796889147,123.214412874742
738280.39970796834677457809,-28.8402966399121,-1.02165796889147,123.165176346121
738280.39970805880147963762,-28.8526057720674,-1.02165796889147,123.103630685344
738280.39970814913976937532,-28.8649149042227,-1.03396710104678,123.128248949655
738280.39970823959447443485,-28.8895331685334,-1.02165796889147,123.066703288878
738280.39970833004917949438,-28.9018423006887,-1.02165796889147,123.029775892412
738280.39970842050388455391,-28.914151432844,-1.00934883673615,123.005157628101
738280.39970851095858961344,-28.914151432844,-1.02165796889147,123.005157628101
738280.39970860141329467297,-28.95107882931,-1.00934883673615,122.894375438704
738280.39970869186799973249,-28.9756970936206,-1.00934883673615,122.882066306548
738280.39970878232270479202,-28.9264605649993,-0.984730572425509,122.857448042238
738280.39970887277740985155,-28.9756970936206,-1.00934883673615,122.857448042238
738280.39970896311569958925,-29.0003153579313,-1.0462762332021,122.882066306548
738280.39970905357040464878,-28.914151432844,-1.03396710104678,123.029775892412
738280.39970914402510970831,-28.8402966399121,-1.03396710104678,123.251340271208
738280.39970923447981476784,-28.7418235826696,-1.03396710104678,123.485213782159
738280.39970932493451982737,-28.7048961862036,-1.0462762332021,123.645232500178
738280.39970941538922488689,-28.606423128961,-1.0462762332021,123.854487746818
738280.39970950584392994642,-28.6187322611164,-1.0462762332021,123.854487746818
738280.39970959629863500595,-28.5694957324951,-1.03396710104678,123.916033407595
738280.39970968663692474365,-28.5202592038738,-1.03396710104678,123.977579068372
738280.39970977709162980318,-28.5202592038738,-1.05858536535742,124.076052125614
738280.39970986754633486271,-28.5448774681845,-1.07089449751274,124.08836125777
738280.39970995800103992224,-28.5079500717185,-1.05858536535742,124.137597786391
738280.39971004845574498177,-28.4956409395632,-1.07089449751274,124.223761711478
738280.39971013891045004129,-28.4587135430972,-1.05858536535742,124.272998240099
738280.39971022936515510082,-28.4464044109419,-1.05858536535742,124.272998240099
738280.39971031981986016035,-28.4217861466313,-1.05858536535742,124.309925636565
738280.39971041027456521988,-28.4340952787866,-1.07089449751274,124.309925636565
738280.39971050061285495758,-28.4217861466313,-1.0462762332021,124.260689107944
738280.39971059106756001711,-28.4464044109419,-1.07089449751274,124.29761650441
738280.39971068152226507664,-28.4094770144759,-1.02165796889147,124.248379975789
738280.39971077197697013617,-28.4464044109419,-1.0462762332021,124.211452579323
738280.39971086243167519569,-28.4833318074079,-1.05858536535742,124.149906918546
738280.39971095288638025522,-28.5079500717185,-1.0462762332021,124.08836125777
738280.39971104334108531475,-28.4833318074079,-1.03396710104678,124.076052125614
738280.39971113379579037428,-28.4956409395632,-1.0462762332021,124.08836125777
738280.39971122413408011198,-28.5325683360291,-1.0462762332021,124.08836125777
738280.39971131458878517151,-28.5325683360291,-1.0462762332021,124.076052125614
738280.39971140504349023104,-28.4833318074079,-1.05858536535742,124.162216050701
738280.39971149549819529057,-28.4833318074079,-1.07089449751274,124.174525182857
738280.39971158595290035009,-28.4587135430972,-1.05858536535742,124.285307372255
738280.39971167640760540962,-28.4340952787866,-1.05858536535742,124.371471297342
738280.39971176686231046915,-28.2986948250781,-1.0462762332021,124.593035676138
738280.39971185731701552868,-28.2986948250781,-1.07089449751274,124.666890469069
738280.39971194777172058821,-28.2740765607674,-1.08320362966806,124.777672658467
738280.39971203811001032591,-28.1632943713696,-1.09551276182338,124.937691376487
738280.39971212856471538544,-28.0771304462823,-1.12013102613402,124.962309640797
738280.39971221901942044497,-27.8924934639526,-1.03396710104678,125.171564887438
738280.39971230947412550449,-27.6955473494675,-0.812402722251045,125.319274473301
738280.39971239992883056402,-27.7694021423994,-0.664693136387219,125.380820134078
738280.39971249038353562355,-27.8555660674866,-0.837020986561683,125.306965341146
738280.39971258083824068308,-28.064821314127,-1.03396710104678,125.516220587786
738280.39971267129294574261,-28.2125308999908,-1.12013102613402,125.540838852097
738280.39971276174765080214,-28.101748710593,-1.12013102613402,125.540838852097
738280.39971285208594053984,-27.9909665211951,-1.13244015828934,125.577766248563
738280.39971294254064559937,-27.9171117282632,-1.1078218939787,125.577766248563
738280.39971303299535065889,-27.8678751996419,-1.09551276182338,125.602384512874
738280.39971312345005571842,-27.757093010244,-1.09551276182338,125.799330627359
738280.39971321390476077795,-27.6832382173121,-1.12013102613402,126.045513270465
738280.39971330435946583748,-27.5109103671377,-1.13244015828934,126.353241574348
738280.39971339481417089701,-27.3139642526526,-1.15705842259997,126.562496820989
738280.39971348526887595654,-27.1785637989441,-1.15705842259997,127.017934710735
738280.39971357560716569424,-26.9693085523036,-1.14474929044465,127.39951780755
738280.39971366606187075377,-26.8462172307505,-1.15705842259997,127.645700450657
738280.39971375651657581329,-26.7600533056632,-1.18167668691061,127.830337432986
738280.39971384697128087282,-26.63696198411,-1.16936755475529,128.014974415316
738280.39971393742598593235,-26.63696198411,-1.18167668691061,128.039592679627
738280.39971402788069099188,-26.6985076448866,-1.16936755475529,127.916501358074
738280.39971411833539605141,-26.7600533056632,-1.15705842259997,127.76879177221
738280.39971420879010111094,-26.8462172307505,-1.15705842259997,127.608773054191
738280.39971429924480617046,-26.907762891527,-1.14474929044465,127.485681732638
738280.39971438958309590816,-26.9939268166143,-1.12013102613402,127.337972146774
738280.39971448003780096769,-27.0185450809249,-1.1078218939787,127.239499089531
738280.39971457049250602722,-27.0923998738568,-1.1078218939787,127.079480371512
738280.39971466094721108675,-27.1539455346334,-1.1078218939787,126.931770785648
738280.39971475140191614628,-27.21549119541,-1.08320362966806,126.734824671163
738280.39971484185662120581,-27.2647277240313,-1.0462762332021,126.562496820989
738280.39971493231132626534,-27.3139642526526,-1.0462762332021,126.42709636728
738280.39971502276603132486,-27.4001281777398,-1.03396710104678,126.21784112064
738280.39971511310432106256,-27.4370555742058,-0.997039704580828,126.082440666931
738280.39971520355902612209,-27.4739829706717,-0.984730572425509,125.959349345378
738280.39971529401373118162,-27.5109103671377,-0.984730572425509,125.860876288135
738280.39971538446843624115,-27.5847651600696,-0.972421440270191,125.737784966582
738280.39971547492314130068,-27.6463108208462,-0.984730572425509,125.63931190934
738280.39971556537784636021,-27.6832382173121,-0.972421440270191,125.553147984252
738280.39971565583255141973,-27.757093010244,-0.997039704580828,125.45467492701
738280.39971574628725647926,-27.8063295388653,-0.997039704580828,125.430056662699
738280.39971583674196153879,-27.830947803176,-1.00934883673615,125.417747530544
738280.39971592708025127649,-27.9417299925738,-1.05858536535742,125.380820134078
738280.39971601753495633602,-27.9294208604185,-1.05858536535742,125.356201869767
738280.39971610798966139555,-27.9663482568845,-1.05858536535742,125.331583605457
738280.39971619844436645508,-28.0155847855057,-1.08320362966806,125.294656208991
738280.39971628889907151461,-28.0402030498164,-1.05858536535742,125.233110548214
738280.39971637935377657413,-28.0402030498164,-1.07089449751274,125.233110548214
738280.39971646980848163366,-28.0894395784377,-1.08320362966806,125.183874019593
738280.39971656026318669319,-28.0525121819717,-1.05858536535742,125.146946623127
738280.39971665071789175272,-28.1263669749036,-1.07089449751274,125.073091830195
738280.39971674105618149042,-28.1632943713696,-1.08320362966806,125.036164433729
738280.39971683151088654995,-28.1632943713696,-1.07089449751274,124.974618772952
738280.39971692196559160948,-28.1756035035249,-1.05858536535742,124.925382244331
738280.39971701242029666901,-28.2371491643015,-1.05858536535742,124.802290922778
738280.39971710287500172853,-28.3110039572334,-1.07089449751274,124.740745262001
738280.39971719332970678806,-28.335622221544,-1.08320362966806,124.642272204759
738280.39971728378441184759,-28.2863856929228,-1.0462762332021,124.617653940448
738280.39971737423911690712,-28.335622221544,-1.0462762332021,124.519180883206
738280.39971746457740664482,-28.4094770144759,-1.05858536535742,124.420707825963
738280.39971755503211170435,-28.4094770144759,-1.05858536535742,124.371471297342
738280.39971764548681676388,-28.4094770144759,-1.02165796889147,124.236070843633
738280.39971773594152182341,-28.5448774681845,-1.0462762332021,124.08836125777
738280.39971782639622688293,-28.5818048646504,-1.0462762332021,124.002197332682
738280.39971791685093194246,-28.5694957324951,-1.02165796889147,123.940651671906
738280.39971800730563700199,-28.5818048646504,-1.00934883673615,123.879106011129
738280.39971809776034206152,-28.643350525427,-1.02165796889147,123.817560350352
738280.39971818821504712105,-28.6679687897376,-1.00934883673615,123.682159896644
738280.39971827855333685875,-28.7295144505142,-1.02165796889147,123.583686839401
738280.39971836900804191828,-28.7541327148249,-1.02165796889147,123.522141178625
738280.39971845946274697781,-28.8033692434461,-1.03396710104678,123.411358989227
738280.39971854991745203733,-28.7910601112908,-1.00934883673615,123.337504196295
738280.39971864037215709686,-28.7910601112908,-1.00934883673615,123.312885931984
738280.39971873082686215639,-28.8772240363781,-1.02165796889147,123.189794610431
738280.39971882128156721592,-28.9018423006887,-1.00934883673615,123.14055808181
738280.39971891173627227545,-28.914151432844,-1.02165796889147,123.079012421033
738280.39971900207456201315,-28.914151432844,-0.997039704580828,123.054394156723
738280.39971909252926707268,-28.9387696971547,-1.00934883673615,122.95592109948
738280.39971918298397213221,-28.9633879614653,-0.997039704580828,122.906684570859
738280.39971927343867719173,-28.9387696971547,-1.00934883673615,122.980539363791
738280.39971936389338225126,-28.9633879614653,-1.00934883673615,122.980539363791
738280.39971945434808731079,-28.914151432844,-0.984730572425509,122.95592109948
738280.39971954480279237032,-28.9880062257759,-1.02165796889147,122.943611967325
738280.39971963525749742985,-28.9633879614653,-1.02165796889147,122.968230231635
738280.39971972571220248938,-28.95107882931,-1.00934883673615,122.980539363791
738280.39971981605049222708,-28.9633879614653,-1.00934883673615,122.943611967325
738280.39971990650519728661,-28.95107882931,-0.984730572425509,122.918993703014
738280.39971999695990234613,-28.9880062257759,-1.00934883673615,122.845138910082
738280.39972008741460740566,-29.0249336222419,-1.00934883673615,122.758974984995
738280.39972017786931246519,-29.0495518865525,-0.997039704580828,122.660501927753
738280.39972026832401752472,-29.0618610187078,-0.984730572425509,122.586647134821
738280.39972035877872258425,-29.0741701508632,-0.984730572425509,122.537410606199
738280.39972044923342764378,-29.0864792830185,-0.984730572425509,122.512792341889
738280.39972053968813270330,-29.0864792830185,-0.972421440270191,122.475864945423
738280.39972063002642244101,-29.0864792830185,-0.972421440270191,122.438937548957
738280.39972072048112750053,-29.0987884151738,-0.972421440270191,122.37739188818
738280.39972081093583256006,-29.1357158116398,-0.960112308114872,122.303537095248
738280.39972090139053761959,-29.1480249437951,-0.972421440270191,122.291227963093
738280.39972099184524267912,-29.1480249437951,-0.960112308114872,122.241991434472
738280.39972108229994773865,-29.2464980010376,-0.997039704580828,122.106590980763
738280.39972117275465279818,-29.2834253975036,-0.960112308114872,121.934263130589
738280.39972126320935785770,-29.3695893225908,-0.972421440270191,121.712698751793
738280.39972135354764759541,-29.3942075869015,-0.960112308114872,121.540370901619
738280.39972144400235265493,-29.4311349833674,-0.935494043804234,121.355733919289
738280.39972153445705771446,-29.5788445692312,-0.960112308114872,120.998769086784
738280.39972162491176277399,-29.6280810978525,-0.935494043804234,120.715659047212
738280.39972171536646783352,-29.7388632872504,-0.923184911648915,120.358694214708
738280.39972180582117289305,-29.8127180801823,-0.935494043804234,120.06327504298
738280.39972189627587795258,-29.8742637409589,-0.910875779493596,119.755546739097
738280.39972198673058301210,-29.9481185338908,-0.898566647338277,119.48474583168
738280.39972207718528807163,-29.9973550625121,-0.923184911648915,119.250872320729
738280.39972216752357780933,-29.9481185338908,-0.910875779493596,119.140090131331
738280.39972225797828286886,-29.8988820052695,-0.837020986561683,119.127780999176
738280.39972234843298792839,-29.800408948027,-0.615456607765943,119.189326659953
738280.39972243888769298792,-29.8742637409589,-0.492365286212755,119.250872320729
738280.39972252934239804745,-29.9604276660461,-0.640074872076581,119.004689677623
738280.39972261979710310698,-30.1450646483759,-0.837020986561683,119.078544470555
738280.39972271025180816650,-30.2189194413078,-0.910875779493596,119.115471867021
738280.39972280070651322603,-30.2312285734631,-0.935494043804234,119.140090131331
738280.39972289104480296373,-30.1573737805312,-0.947803175959553,119.127780999176
738280.39972298149950802326,-30.0589007232887,-0.923184911648915,119.27549058504
738280.39972307195421308279,-29.9481185338908,-0.898566647338277,119.447818435214
738280.39972316240891814232,-29.8988820052695,-0.898566647338277,119.558600624612
738280.39972325286362320185,-29.9111911374248,-0.898566647338277,119.533982360302
738280.39972334331832826138,-29.9481185338908,-0.935494043804234,119.558600624612
738280.39972343377303332090,-29.8988820052695,-0.886257515182958,119.620146285389
738280.39972352422773838043,-29.8988820052695,-0.910875779493596,119.706310210476
738280.39972361468244343996,-29.8250272123376,-0.910875779493596,119.915565457116
738280.39972370502073317766,-29.8127180801823,-0.923184911648915,119.964801985738
738280.39972379547543823719,-29.7880998158717,-0.910875779493596,120.050965910825
738280.39972388593014329672,-29.7511724194057,-0.923184911648915,120.149438968067
738280.39972397638484835625,-29.7388632872504,-0.898566647338277,120.112511571602
738280.39972406683955341578,-29.7511724194057,-0.898566647338277,120.124820703757
738280.39972415729425847530,-29.7019358907844,-0.886257515182958,120.198675496689
738280.39972424774896353483,-29.7265541550951,-0.910875779493596,120.260221157465
738280.39972433820366859436,-29.6773176264738,-0.910875779493596,120.395621611174
738280.39972442865837365389,-29.6034628335419,-0.886257515182958,120.531022064882
738280.39972451899666339159,-29.5788445692312,-0.886257515182958,120.592567725659
738280.39972460945136845112,-29.5788445692312,-0.898566647338277,120.64180425428
738280.39972469990607351065,-29.5665354370759,-0.910875779493596,120.814132104455
738280.39972479036077857018,-29.492680644144,-0.898566647338277,120.949532558163
738280.39972488081548362970,-29.4557532476781,-0.898566647338277,121.03569648325
738280.39972497127018868923,-29.4188258512121,-0.87394838302764,121.134169540493
738280.39972506172489374876,-29.3572801904355,-0.849330118717002,121.22033346558
738280.39972515217959880829,-29.3326619261249,-0.849330118717002,121.232642597736
738280.39972524251788854599,-29.3080436618142,-0.849330118717002,121.281879126357
738280.39972533297259360552,-29.2957345296589,-0.837020986561683,121.331115654978
738280.39972542342729866505,-29.2588071331929,-0.824711854406364,121.331115654978
738280.39972551388200372458,-29.2464980010376,-0.824711854406364,121.417279580065
738280.39972560433670878410,-29.221879736727,-0.824711854406364,121.503443505153
738280.39972569479141384363,-29.221879736727,-0.837020986561683,121.528061769463
738280.39972578524611890316,-29.2341888688823,-0.849330118717002,121.638843958861
738280.39972587570082396269,-29.2341888688823,-0.886257515182958,121.737317016104
738280.39972596615552902222,-29.2341888688823,-0.910875779493596,121.811171809036
738280.39972605649381875992,-29.2095706045717,-0.923184911648915,121.946572262744
738280.39972614694852381945,-29.2464980010376,-0.947803175959553,121.995808791365
738280.39972623740322887897,-29.2095706045717,-0.923184911648915,122.032736187831
738280.39972632785793393850,-29.1480249437951,-0.935494043804234,122.180445773695
738280.39972641831263899803,-29.1726432081057,-0.972421440270191,122.266609698782
738280.39972650876734405756,-29.1726432081057,-0.997039704580828,122.365082756025
738280.39972659922204911709,-29.0987884151738,-0.972421440270191,122.525101474044
738280.39972668967675417662,-29.0126244900866,-0.972421440270191,122.734356720684
738280.39972678001504391432,-28.9264605649993,-0.984730572425509,122.918993703014
738280.39972687046974897385,-28.8526057720674,-0.997039704580828,123.165176346121
738280.39972696092445403337,-28.7541327148249,-0.997039704580828,123.448286385693
738280.39972705137915909290,-28.7172053183589,-1.02165796889147,123.595995971557
738280.39972714183386415243,-28.6310413932717,-0.997039704580828,123.780632953887
738280.39972723228856921196,-28.5325683360291,-1.03396710104678,124.08836125777
738280.39972732274327427149,-28.3602404858547,-1.02165796889147,124.433016958118
738280.39972741319797933102,-28.2125308999908,-1.03396710104678,124.814600054933
738280.39972750365268439054,-28.0894395784377,-1.03396710104678,125.08540096235
738280.39972759399097412825,-27.9048025961079,-1.0462762332021,125.491602323476
738280.39972768444567918777,-27.7694021423994,-1.07089449751274,125.762403230893
738280.39972777490038424730,-27.6586199530015,-1.07089449751274,126.020895006155
738280.39972786535508930683,-27.5109103671377,-1.08320362966806,126.279386781416
738280.39972795580979436636,-27.3878190455845,-1.08320362966806,126.525569424523
738280.39972804626449942589,-27.3262733848079,-1.09551276182338,126.685588142542
738280.39972813671920448542,-27.2031820632547,-1.09551276182338,126.919461653493
738280.39972822717390954494,-27.0554724773909,-1.08320362966806,127.116407767978
738280.39972831751219928265,-27.1047090060121,-1.12013102613402,127.128716900133
738280.39972840796690434217,-27.1170181381675,-1.14474929044465,127.19026256091
738280.39972849842160940170,-27.0923998738568,-1.13244015828934,127.251808221686
738280.39972858887631446123,-27.0431633452356,-1.13244015828934,127.276426485997
738280.39972867933101952076,-27.0554724773909,-1.13244015828934,127.251808221686
738280.39972876978572458029,-27.0308542130802,-1.13244015828934,127.264117353842
738280.39972886024042963982,-27.0554724773909,-1.13244015828934,127.264117353842
738280.39972895069513469934,-27.0062359487696,-1.09551276182338,127.227189957376
738280.39972904114983975887,-27.1416364024781,-1.1078218939787,127.104098635823
738280.39972913148812949657,-27.2401094597207,-1.13244015828934,126.981007314269
738280.39972922194283455610,-27.2770368561866,-1.1078218939787,126.845606860561
738280.39972931239753961563,-27.3508916491185,-1.09551276182338,126.660969878231
738280.39972940285224467516,-27.4124373098951,-1.08320362966806,126.513260292367
738280.39972949330694973469,-27.5478377636036,-1.08320362966806,126.24245938495
738280.39972958376165479422,-27.6340016886909,-1.05858536535742,126.03320413831
738280.39972967421635985374,-27.7817112745547,-1.07089449751274,125.787021495204
738280.39972976467106491327,-27.9417299925738,-1.0462762332021,125.466984059165
738280.39972985512576997280,-27.9786573890398,-1.03396710104678,125.27003794468
738280.39972994546405971050,-28.1756035035249,-1.07089449751274,125.011546169418
738280.39973003591876477003,-28.2494582964568,-1.03396710104678,124.789981790623
738280.39973012637346982956,-28.3110039572334,-1.02165796889147,124.642272204759
738280.39973021682817488909,-28.3848587501653,-1.03396710104678,124.48225348674
738280.39973030728287994862,-28.4340952787866,-1.03396710104678,124.285307372255
738280.39973039773758500814,-28.5448774681845,-1.02165796889147,124.014506464838
738280.39973048819229006767,-28.643350525427,-1.00934883673615,123.768323821731
738280.39973057864699512720,-28.7172053183589,-0.997039704580828,123.522141178625
738280.39973066898528486490,-28.7664418469802,-0.972421440270191,123.337504196295
738280.39973075943998992443,-28.8402966399121,-0.984730572425509,123.202103742587
738280.39973084989469498396,-28.8402966399121,-1.02165796889147,123.115939817499
738280.39973094034940004349,-28.8772240363781,-0.984730572425509,122.918993703014
738280.39973103080410510302,-28.7664418469802,-0.76316619362977,122.857448042238
738280.39973112125881016254,-28.7910601112908,-0.603147475610625,122.869757174393
738280.39973121171351522207,-28.8772240363781,-0.689311400697857,122.598956266976
738280.39973130216822028160,-29.0987884151738,-0.910875779493596,122.500483209733
738280.39973139262292534113,-29.3080436618142,-1.00934883673615,122.463555813267
738280.39973148296121507883,-29.3942075869015,-1.02165796889147,122.081972716453
738280.39973157341592013836,-29.4188258512121,-0.997039704580828,121.712698751793
738280.39973166387062519789,-29.4434441155227,-0.947803175959553,121.380352183599
738280.39973175432533025742,-29.492680644144,-0.910875779493596,121.084933011872
738280.39973184478003531694,-29.6034628335419,-0.923184911648915,120.727968179367
738280.39973193523474037647,-29.6034628335419,-0.886257515182958,120.64180425428
738280.39973202568944543600,-29.6650084943185,-0.898566647338277,120.531022064882
738280.39973211614415049553,-29.7019358907844,-0.898566647338277,120.24791202531
738280.39973220648244023323,-29.763481551561,-0.886257515182958,120.087893307291
738280.39973229693714529276,-29.8127180801823,-0.886257515182958,119.927874589272
738280.39973238739185035229,-29.8619546088036,-0.886257515182958,119.730928474787
738280.39973247784655541182,-29.8619546088036,-0.849330118717002,119.657073681855
738280.39973256830126047134,-29.8619546088036,-0.861639250872321,119.595528021078
738280.39973265875596553087,-29.9111911374248,-0.861639250872321,119.435509303059
738280.39973274921067059040,-29.9235002695802,-0.861639250872321,119.324727113661
738280.39973283966537564993,-29.9235002695802,-0.861639250872321,119.349345377972
738280.39973293012008070946,-29.9358094017355,-0.837020986561683,119.27549058504
738280.39973302045837044716,-29.9358094017355,-0.837020986561683,119.263181452885
738280.39973311091307550669,-29.8988820052695,-0.824711854406364,119.349345377972
738280.39973320136778056622,-29.8865728731142,-0.812402722251045,119.398581906593
738280.39973329182248562574,-29.8619546088036,-0.812402722251045,119.410891038748
738280.39973338227719068527,-29.7880998158717,-0.800093590095726,119.583218888923
738280.39973347273189574480,-29.7880998158717,-0.824711854406364,119.694001078321
738280.39973356318660080433,-29.7265541550951,-0.800093590095726,119.85401979634
738280.39973365364130586386,-29.6773176264738,-0.812402722251045,120.050965910825
738280.39973374409601092339,-29.6157719656972,-0.800093590095726,120.284839421776
738280.39973383443430066109,-29.5049897762993,-0.775475325785089,120.481785536261
738280.39973392488900572062,-29.492680644144,-0.775475325785089,120.555640329193
738280.39973401534371078014,-29.4434441155227,-0.800093590095726,120.715659047212
738280.39973410579841583967,-29.3818984547461,-0.775475325785089,120.838750368765
738280.39973419625312089920,-29.3326619261249,-0.787784457940408,120.974150822474
738280.39973428670782595873,-29.2957345296589,-0.787784457940408,121.146478672648
738280.39973437716253101826,-29.2711162653483,-0.824711854406364,121.331115654978
738280.39973446761723607779,-29.2464980010376,-0.824711854406364,121.478825240842
738280.39973455795552581549,-29.2464980010376,-0.849330118717002,121.601916562395
738280.39973464841023087502,-29.2711162653483,-0.898566647338277,121.700389619638
738280.39973473886493593454,-29.2464980010376,-0.923184911648915,121.823480941191
738280.39973482931964099407,-29.2341888688823,-0.935494043804234,121.885026601967
738280.39973491977434605360,-29.2095706045717,-0.923184911648915,121.909644866278
738280.39973501022905111313,-29.2464980010376,-0.935494043804234,121.885026601967
738280.39973510068375617266,-29.2711162653483,-0.960112308114872,121.860408337657
738280.39973519113846123219,-29.2834253975036,-0.947803175959553,121.823480941191
738280.39973528159316629171,-29.2711162653483,-0.935494043804234,121.786553544725
738280.39973537193145602942,-29.3080436618142,-0.935494043804234,121.749626148259
738280.39973546238616108894,-29.2711162653483,-0.935494043804234,121.79886267688
738280.39973555284086614847,-29.2711162653483,-0.935494043804234,121.79886267688
738280.39973564329557120800,-29.2957345296589,-0.947803175959553,121.786553544725
738280.39973573375027626753,-29.2464980010376,-0.935494043804234,121.885026601967
738280.39973582420498132706,-29.221879736727,-0.923184911648915,121.921953998433
738280.39973591465968638659,-29.2464980010376,-0.947803175959553,121.934263130589
738280.39973600511439144611,-29.221879736727,-0.947803175959553,121.971190527055
738280.39973609545268118382,-29.2095706045717,-0.947803175959553,122.057354452142
738280.39973618590738624334,-29.1726432081057,-0.935494043804234,122.094281848608
738280.39973627636209130287,-29.1480249437951,-0.935494043804234,122.16813664154
738280.39973636681679636240,-29.1480249437951,-0.947803175959553,122.229682302316
738280.39973645727150142193,-29.1234066794844,-0.972421440270191,122.303537095248
738280.39973654772620648146,-29.0864792830185,-0.947803175959553,122.389701020335
738280.39973663818091154099,-29.0495518865525,-0.947803175959553,122.488174077578
738280.39973672863561660051,-29.0249336222419,-0.947803175959553,122.537410606199
738280.39973681909032166004,-29.0987884151738,-0.972421440270191,122.500483209733
738280.39973690942861139774,-29.0372427543972,-0.972421440270191,122.635883663442
738280.39973699988331645727,-28.9880062257759,-0.972421440270191,122.685120192063
738280.39973709033802151680,-28.9880062257759,-0.972421440270191,122.709738456374
738280.39973718079272657633,-28.9633879614653,-0.960112308114872,122.783593249306
738280.39973727124743163586,-28.9880062257759,-0.972421440270191,122.74666585284
738280.39973736170213669538,-28.9633879614653,-0.972421440270191,122.77128411715
738280.39973745215684175491,-28.914151432844,-0.960112308114872,122.820520645772
738280.39973754261154681444,-28.95107882931,-0.960112308114872,122.77128411715
738280.39973763306625187397,-28.9264605649993,-0.972421440270191,122.783593249306
738280.39973772340454161167,-28.9264605649993,-0.960112308114872,122.845138910082
738280.39973781385924667120,-28.9018423006887,-0.960112308114872,122.906684570859
738280.39973790431395173073,-28.9264605649993,-0.960112308114872,122.845138910082
738280.39973799476865679026,-28.9387696971547,-0.972421440270191,122.857448042238
738280.39973808522336184978,-28.8772240363781,-0.947803175959553,122.906684570859
738280.39973817567806690931,-28.9264605649993,-0.972421440270191,122.894375438704
738280.39973826613277196884,-28.914151432844,-0.984730572425509,122.95592109948
738280.39973835658747702837,-28.8279875077568,-0.960112308114872,123.054394156723
738280.39973844692576676607,-28.8772240363781,-0.984730572425509,123.017466760257
738280.39973853738047182560,-28.9018423006887,-0.997039704580828,123.029775892412
738280.39973862783517688513,-28.8649149042227,-0.972421440270191,123.091321553189
738280.39973871828988194466,-28.8895331685334,-0.997039704580828,123.066703288878
738280.39973880874458700418,-28.8649149042227,-0.997039704580828,123.152867213965
738280.39973889919929206371,-28.8033692434461,-0.984730572425509,123.202103742587
738280.39973898965399712324,-28.8402966399121,-0.997039704580828,123.165176346121
738280.39973908010870218277,-28.8526057720674,-0.984730572425509,123.14055808181
738280.39973917056340724230,-28.8156783756015,-0.997039704580828,123.177485478276
738280.39973926090169698000,-28.8526057720674,-1.02165796889147,123.14055808181
738280.39973935135640203953,-28.7541327148249,-1.00934883673615,123.152867213965
738280.39973944181110709906,-28.6679687897376,-0.923184911648915,123.214412874742
738280.39973953226581215858,-28.606423128961,-0.837020986561683,123.226722006897
738280.39973962272051721811,-28.5941139968057,-0.6523840042319,123.152867213965
738280.39973971317522227764,-28.680277921893,-0.713929665008494,123.079012421033
738280.39973980362992733717,-28.8156783756015,-0.935494043804234,123.177485478276
738280.39973989408463239670,-29.0003153579313,-1.0462762332021,123.300576799829
738280.39973998442292213440,-28.9756970936206,-1.07089449751274,123.288267667674
738280.39974007487762719393,-28.9018423006887,-1.0462762332021,123.263649403363
738280.39974016533233225346,-28.8402966399121,-1.02165796889147,123.263649403363
738280.39974025578703731298,-28.8402966399121,-0.997039704580828,123.165176346121
738280.39974034624174237251,-28.8402966399121,-0.984730572425509,123.177485478276
738280.39974043669644743204,-28.8033692434461,-0.984730572425509,123.165176346121
738280.39974052715115249157,-28.7910601112908,-0.997039704580828,123.226722006897
738280.39974061760585755110,-28.7787509791355,-0.984730572425509,123.275958535518
738280.39974070806056261063,-28.7541327148249,-0.997039704580828,123.337504196295
738280.39974079839885234833,-28.7541327148249,-0.984730572425509,123.288267667674
738280.39974088885355740786,-28.7541327148249,-0.984730572425509,123.288267667674
738280.39974097930826246738,-28.7664418469802,-0.972421440270191,123.300576799829
738280.39974106976296752691,-28.7787509791355,-0.997039704580828,123.251340271208
738280.39974116021767258644,-28.7664418469802,-0.997039704580828,123.300576799829
738280.39974125067237764597,-28.7664418469802,-0.984730572425509,123.32519506414
738280.39974134112708270550,-28.7418235826696,-0.984730572425509,123.300576799829
738280.39974143158178776503,-28.7541327148249,-0.972421440270191,123.312885931984
738280.39974152203649282455,-28.7295144505142,-0.972421440270191,123.337504196295
738280.39974161237478256226,-28.7295144505142,-0.972421440270191,123.32519506414
738280.39974170282948762178,-28.6925870540483,-0.935494043804234,123.34981332845
738280.39974179328419268131,-28.7172053183589,-0.960112308114872,123.34981332845
738280.39974188373889774084,-28.680277921893,-0.960112308114872,123.362122460606
738280.39974197419360280037,-28.6679687897376,-0.947803175959553,123.386740724916
738280.39974206464830785990,-28.6310413932717,-0.923184911648915,123.386740724916
738280.39974215510301291943,-28.6556596575823,-0.935494043804234,123.374431592761
738280.39974224555771797895,-28.6187322611164,-0.923184911648915,123.337504196295
738280.39974233589600771666,-28.5571866003398,-0.886257515182958,123.34981332845
738280.39974242635071277618,-28.5571866003398,-0.886257515182958,123.362122460606
738280.39974251680541783571,-28.5818048646504,-0.886257515182958,123.312885931984
738280.39974260726012289524,-28.5694957324951,-0.87394838302764,123.288267667674
738280.39974269771482795477,-28.5202592038738,-0.861639250872321,123.337504196295
738280.39974278816953301430,-28.5818048646504,-0.886257515182958,123.300576799829
738280.39974287862423807383,-28.6187322611164,-0.923184911648915,123.300576799829
738280.39974296907894313335,-28.6187322611164,-0.947803175959553,123.386740724916
738280.39974305953364819288,-28.6679687897376,-0.972421440270191,123.362122460606
738280.39974314987193793058,-28.7048961862036,-0.997039704580828,123.411358989227
738280.39974324032664299011,-28.6187322611164,-0.972421440270191,123.460595517848
738280.39974333078134804964,-28.643350525427,-0.972421440270191,123.497522914314
738280.39974342123605310917,-28.7048961862036,-1.00934883673615,123.472904650004
738280.39974351169075816870,-28.6679687897376,-0.997039704580828,123.50983204647
738280.39974360214546322823,-28.6679687897376,-0.997039704580828,123.546759442935
738280.39974369260016828775,-28.7295144505142,-1.02165796889147,123.497522914314
738280.39974378305487334728,-28.7048961862036,-1.00934883673615,123.497522914314
738280.39974387339316308498,-28.7295144505142,-1.02165796889147,123.435977253538
738280.39974396384786814451,-28.7295144505142,-1.02165796889147,123.448286385693
738280.39974405430257320404,-28.6679687897376,-0.997039704580828,123.485213782159
738280.39974414475727826357,-28.7048961862036,-1.02165796889147,123.497522914314
738280.39974423521198332310,-28.7172053183589,-0.997039704580828,123.423668121382
738280.39974432566668838263,-28.7541327148249,-1.00934883673615,123.423668121382
738280.39974441612139344215,-28.7048961862036,-0.997039704580828,123.448286385693
738280.39974450657609850168,-28.680277921893,-0.997039704580828,123.50983204647
738280.39974459703080356121,-28.6310413932717,-0.997039704580828,123.657541632333
738280.39974468736909329891,-28.5941139968057,-0.997039704580828,123.731396425265
738280.39974477782379835844,-28.5941139968057,-0.997039704580828,123.731396425265
738280.39974486827850341797,-28.5818048646504,-0.997039704580828,123.743705557421
738280.39974495873320847750,-28.5818048646504,-1.02165796889147,123.842178614663
738280.39974504918791353703,-28.5941139968057,-1.02165796889147,123.842178614663
738280.39974513964261859655,-28.5448774681845,-1.00934883673615,123.879106011129
738280.39974523009732365608,-28.5818048646504,-1.03396710104678,123.842178614663
738280.39974532055202871561,-28.5941139968057,-1.02165796889147,123.829869482508
738280.39974541100673377514,-28.5941139968057,-1.02165796889147,123.756014689576
738280.39974550134502351284,-28.6187322611164,-1.00934883673615,123.694469028799
738280.39974559179972857237,-28.643350525427,-1.02165796889147,123.706778160955
738280.39974568225443363190,-28.680277921893,-1.02165796889147,123.608305103712
738280.39974577270913869143,-28.5941139968057,-0.984730572425509,123.669850764489
738280.39974586316384375095,-28.7048961862036,-1.03396710104678,123.595995971557
738280.39974595361854881048,-28.7418235826696,-1.02165796889147,123.497522914314
738280.39974604407325387001,-28.7664418469802,-1.02165796889147,123.460595517848
738280.39974613452795892954,-28.7295144505142,-1.02165796889147,123.435977253538
738280.39974622486624866724,-28.7418235826696,-1.02165796889147,123.399049857072
738280.39974631532095372677,-28.7295144505142,-1.00934883673615,123.34981332845
738280.39974640577565878630,-28.7418235826696,-0.997039704580828,123.362122460606
738280.39974649623036384583,-28.7787509791355,-0.997039704580828,123.312885931984
738280.39974658668506890535,-28.7910601112908,-0.984730572425509,123.239031139052
738280.39974667713977396488,-28.7787509791355,-0.997039704580828,123.275958535518
738280.39974676759447902441,-28.7664418469802,-0.984730572425509,123.275958535518
738280.39974685804918408394,-28.7664418469802,-0.972421440270191,123.275958535518
738280.39974694850388914347,-28.7910601112908,-0.997039704580828,123.300576799829
738280.39974703884217888117,-28.7910601112908,-1.00934883673615,123.362122460606
738280.39974712929688394070,-28.8156783756015,-1.02165796889147,123.312885931984
738280.39974721975158900023,-28.8402966399121,-1.03396710104678,123.312885931984
738280.39974731020629405975,-28.7664418469802,-1.00934883673615,123.386740724916
738280.39974740066099911928,-28.7787509791355,-1.00934883673615,123.362122460606
738280.39974749111570417881,-28.7787509791355,-1.02165796889147,123.435977253538
738280.39974758157040923834,-28.7048961862036,-1.02165796889147,123.53445031078
738280.39974767202511429787,-28.7172053183589,-1.02165796889147,123.53445031078
738280.39974776236340403557,-28.7418235826696,-1.05858536535742,123.546759442935
738280.39974785281810909510,-28.6310413932717,-1.05858536535742,123.546759442935
738280.39974794327281415462,-28.5448774681845,-0.960112308114872,123.559068575091
738280.39974803372751921415,-28.335622221544,-0.738547929319132,123.497522914314
738280.39974812418222427368,-28.4833318074079,-0.6523840042319,123.460595517848
738280.39974821463692933321,-28.643350525427,-0.837020986561683,123.386740724916
738280.39974830509163439274,-28.8402966399121,-1.00934883673615,123.485213782159
738280.39974839554633945227,-28.9633879614653,-1.0462762332021,123.497522914314
738280.39974848600104451180,-28.914151432844,-1.0462762332021,123.399049857072
738280.39974857633933424950,-28.8772240363781,-1.0462762332021,123.312885931984
738280.39974866679403930902,-28.8279875077568,-1.03396710104678,123.251340271208
738280.39974875724874436855,-28.8279875077568,-1.02165796889147,123.202103742587
738280.39974884770344942808,-28.8526057720674,-1.00934883673615,123.152867213965
738280.39974893815815448761,-28.8649149042227,-1.00934883673615,123.091321553189
738280.39974902861285954714,-28.8649149042227,-0.997039704580828,123.079012421033
738280.39974911906756460667,-28.8772240363781,-0.997039704580828,123.017466760257
738280.39974920952226966619,-28.8895331685334,-1.00934883673615,123.005157628101
738280.39974929986055940390,-28.914151432844,-1.02165796889147,122.992848495946
738280.39974939031526446342,-28.8772240363781,-1.02165796889147,123.042085024567
738280.39974948076996952295,-28.914151432844,-1.02165796889147,123.005157628101
738280.39974957122467458248,-28.9018423006887,-1.00934883673615,122.968230231635
738280.39974966167937964201,-28.9018423006887,-1.00934883673615,123.005157628101
738280.39974975213408470154,-28.8649149042227,-0.997039704580828,122.968230231635
738280.39974984258878976107,-28.8649149042227,-0.997039704580828,122.980539363791
738280.39974993304349482059,-28.8772240363781,-0.997039704580828,123.005157628101
738280.39975002349819988012,-28.8649149042227,-0.997039704580828,122.968230231635
738280.39975011383648961782,-28.8895331685334,-0.984730572425509,122.943611967325
738280.39975020429119467735,-28.8279875077568,-0.972421440270191,122.992848495946
738280.39975029474589973688,-28.8402966399121,-0.972421440270191,122.943611967325
738280.39975038520060479641,-28.8279875077568,-0.972421440270191,122.992848495946
738280.39975047565530985594,-28.8156783756015,-0.972421440270191,122.968230231635
738280.39975056611001491547,-28.8156783756015,-0.947803175959553,122.918993703014
738280.39975065656471997499,-28.8033692434461,-0.947803175959553,122.882066306548
738280.39975074701942503452,-28.7910601112908,-0.935494043804234,122.882066306548
738280.39975083747413009405,-28.7787509791355,-0.923184911648915,122.857448042238
738280.39975092781241983175,-28.8033692434461,-0.910875779493596,122.758974984995
738280.39975101826712489128,-28.7418235826696,-0.898566647338277,122.820520645772
738280.39975110872182995081,-28.7048961862036,-0.898566647338277,122.894375438704
738280.39975119917653501034,-28.7664418469802,-0.923184911648915,122.820520645772
738280.39975128963124006987,-28.7910601112908,-0.910875779493596,122.783593249306
738280.39975138008594512939,-28.7910601112908,-0.935494043804234,122.857448042238
738280.39975147054065018892,-28.8402966399121,-0.947803175959553,122.845138910082
738280.39975156099535524845,-28.8402966399121,-0.960112308114872,122.882066306548
738280.39975165133364498615,-28.8526057720674,-0.972421440270191,122.95592109948
738280.39975174178835004568,-28.8895331685334,-0.984730572425509,122.906684570859
738280.39975183224305510521,-28.9018423006887,-0.997039704580828,122.906684570859
738280.39975192269776016474,-28.9264605649993,-1.00934883673615,122.918993703014
738280.39975201315246522427,-28.9387696971547,-1.02165796889147,122.93130283517
738280.39975210360717028379,-28.9018423006887,-1.00934883673615,122.968230231635
738280.39975219406187534332,-28.9018423006887,-0.997039704580828,123.017466760257
738280.39975228451658040285,-28.8895331685334,-1.00934883673615,122.992848495946
738280.39975237497128546238,-28.914151432844,-1.02165796889147,122.968230231635
738280.39975246530957520008,-28.9018423006887,-1.02165796889147,122.968230231635
738280.39975255576428025961,-28.914151432844,-1.02165796889147,122.95592109948
738280.39975264621898531914,-28.914151432844,-1.02165796889147,122.943611967325
738280.39975273667369037867,-28.9018423006887,-1.02165796889147,122.992848495946
738280.39975282712839543819,-28.8895331685334,-1.03396710104678,123.005157628101
738280.39975291758310049772,-28.8895331685334,-1.00934883673615,122.980539363791
738280.39975300803780555725,-28.8772240363781,-1.00934883673615,123.005157628101
738280.39975309849251061678,-28.8649149042227,-1.02165796889147,123.029775892412
738280.39975318883080035448,-28.8649149042227,-1.00934883673615,123.029775892412
738280.39975327928550541401,-28.8649149042227,-1.00934883673615,123.054394156723
738280.39975336974021047354,-28.8526057720674,-1.02165796889147,123.103630685344
738280.39975346019491553307,-28.8649149042227,-1.00934883673615,123.066703288878
738280.39975355064962059259,-28.8649149042227,-1.00934883673615,123.042085024567
738280.39975364110432565212,-28.8649149042227,-1.02165796889147,123.079012421033
738280.39975373155903071165,-28.8526057720674,-1.00934883673615,123.091321553189
738280.39975382201373577118,-28.8649149042227,-1.02165796889147,123.091321553189
738280.39975391246844083071,-28.8402966399121,-1.02165796889147,123.103630685344
738280.39975400280673056841,-28.8772240363781,-1.02165796889147,123.091321553189
738280.39975409326143562794,-28.8895331685334,-1.02165796889147,123.066703288878
738280.39975418371614068747,-28.8526057720674,-0.997039704580828,123.091321553189
738280.39975427417084574699,-28.8772240363781,-1.02165796889147,123.091321553189
738280.39975436462555080652,-28.914151432844,-1.02165796889147,123.066703288878
738280.39975445508025586605,-28.8895331685334,-1.02165796889147,123.054394156723
738280.39975454553496092558,-28.8279875077568,-1.00934883673615,123.115939817499
738280.39975463598966598511,-28.8649149042227,-1.02165796889147,123.066703288878
738280.39975472644437104464,-28.8526057720674,-1.02165796889147,123.079012421033
738280.39975481678266078234,-28.8772240363781,-1.03396710104678,123.079012421033
738280.39975490723736584187,-28.8402966399121,-1.02165796889147,123.091321553189
738280.39975499769207090139,-28.8402966399121,-1.00934883673615,123.103630685344
738280.39975508814677596092,-28.8279875077568,-0.997039704580828,123.103630685344
738280.39975517860148102045,-28.8649149042227,-1.02165796889147,123.091321553189
738280.39975526905618607998,-28.8526057720674,-1.02165796889147,123.103630685344
738280.39975535951089113951,-28.8156783756015,-0.997039704580828,123.079012421033
738280.39975544996559619904,-28.8649149042227,-1.02165796889147,123.103630685344
738280.39975554030388593674,-28.8649149042227,-1.02165796889147,123.079012421033
738280.39975563075859099627,-28.8526057720674,-1.02165796889147,123.115939817499
738280.39975572121329605579,-28.8279875077568,-1.02165796889147,123.189794610431
738280.39975581166800111532,-28.8279875077568,-1.02165796889147,123.189794610431
738280.39975590212270617485,-28.8772240363781,-1.03396710104678,123.14055808181
738280.39975599257741123438,-28.8279875077568,-1.02165796889147,123.177485478276
738280.39975608303211629391,-28.8402966399121,-1.03396710104678,123.189794610431
738280.39975617348682135344,-28.8526057720674,-1.03396710104678,123.202103742587
738280.39975626394152641296,-28.8156783756015,-1.02165796889147,123.189794610431
738280.39975635427981615067,-28.8526057720674,-1.02165796889147,123.177485478276
738280.39975644473452121019,-28.8649149042227,-1.0462762332021,123.202103742587
738280.39975653518922626972,-28.8526057720674,-1.07089449751274,123.165176346121
738280.39975662564393132925,-28.7295144505142,-1.03396710104678,123.165176346121
738280.39975671609863638878,-28.5571866003398,-0.861639250872321,123.177485478276
738280.39975680655334144831,-28.4464044109419,-0.664693136387219,123.189794610431
738280.39975689700804650784,-28.5448774681845,-0.713929665008494,123.152867213965
738280.39975698746275156736,-28.7418235826696,-0.87394838302764,123.239031139052
738280.39975707780104130507,-29.0249336222419,-1.03396710104678,123.312885931984
738280.39975716825574636459,-28.9633879614653,-1.0462762332021,123.362122460606
738280.39975725871045142412,-28.9264605649993,-1.07089449751274,123.263649403363
738280.39975734916515648365,-28.8279875077568,-1.0462762332021,123.300576799829
738280.39975743961986154318,-28.8033692434461,-1.0462762332021,123.312885931984
738280.39975753007456660271,-28.8033692434461,-1.02165796889147,123.288267667674
738280.39975762052927166224,-28.7787509791355,-1.03396710104678,123.275958535518
738280.39975771098397672176,-28.7664418469802,-1.02165796889147,123.300576799829
738280.39975780143868178129,-28.7787509791355,-1.02165796889147,123.312885931984
738280.39975789177697151899,-28.8033692434461,-1.03396710104678,123.288267667674
738280.39975798223167657852,-28.7787509791355,-1.03396710104678,123.300576799829
738280.39975807268638163805,-28.7541327148249,-1.03396710104678,123.34981332845
738280.39975816314108669758,-28.7295144505142,-1.02165796889147,123.386740724916
738280.39975825359579175711,-28.7541327148249,-1.03396710104678,123.337504196295
738280.39975834405049681664,-28.7172053183589,-1.02165796889147,123.374431592761
738280.39975843450520187616,-28.7787509791355,-1.03396710104678,123.312885931984
738280.39975852495990693569,-28.7664418469802,-1.03396710104678,123.32519506414
738280.39975861541461199522,-28.6925870540483,-1.02165796889147,123.411358989227
738280.39975870575290173292,-28.7418235826696,-1.02165796889147,123.32519506414
738280.39975879620760679245,-28.7418235826696,-1.00934883673615,123.300576799829
738280.39975888666231185198,-28.6925870540483,-1.00934883673615,123.337504196295
738280.39975897711701691151,-28.7295144505142,-1.00934883673615,123.288267667674
738280.39975906757172197104,-28.7295144505142,-1.00934883673615,123.300576799829
738280.39975915802642703056,-28.6679687897376,-0.984730572425509,123.32519506414
738280.39975924848113209009,-28.6925870540483,-0.997039704580828,123.263649403363
738280.39975933893583714962,-28.680277921893,-0.972421440270191,123.226722006897
738280.39975942927412688732,-28.6310413932717,-0.972421440270191,123.226722006897
738280.39975951972883194685,-28.6187322611164,-0.947803175959553,123.214412874742
738280.39975961018353700638,-28.6310413932717,-0.947803175959553,123.189794610431
738280.39975970063824206591,-28.6187322611164,-0.923184911648915,123.165176346121
738280.39975979109294712543,-28.5941139968057,-0.923184911648915,123.152867213965
738280.39975988154765218496,-28.606423128961,-0.910875779493596,123.152867213965
738280.39975997200235724449,-28.6556596575823,-0.935494043804234,123.091321553189
738280.39976006245706230402,-28.6679687897376,-0.935494043804234,123.115939817499
738280.39976015291176736355,-28.6679687897376,-0.923184911648915,123.128248949655
738280.39976024325005710125,-28.7541327148249,-0.972421440270191,123.115939817499
738280.39976033370476216078,-28.7787509791355,-1.00934883673615,123.152867213965
738280.39976042415946722031,-28.7787509791355,-0.997039704580828,123.128248949655
738280.39976051461417227983,-28.8279875077568,-1.00934883673615,123.103630685344
738280.39976060506887733936,-28.8156783756015,-1.00934883673615,123.152867213965
738280.39976069552358239889,-28.8526057720674,-1.03396710104678,123.091321553189
738280.39976078597828745842,-28.8526057720674,-1.02165796889147,123.103630685344
738280.39976087643299251795,-28.8526057720674,-1.03396710104678,123.14055808181
738280.39976096677128225565,-28.8895331685334,-1.03396710104678,123.091321553189
738280.39976105722598731518,-28.8649149042227,-1.02165796889147,123.091321553189
738280.39976114768069237471,-28.8772240363781,-1.02165796889147,123.079012421033
738280.39976123813539743423,-28.8649149042227,-1.02165796889147,123.091321553189
738280.39976132859010249376,-28.8772240363781,-1.02165796889147,123.042085024567
738280.39976141904480755329,-28.8649149042227,-1.00934883673615,123.054394156723
738280.39976150949951261282,-28.8772240363781,-1.02165796889147,123.017466760257
738280.39976159995421767235,-28.914151432844,-1.0462762332021,123.042085024567
738280.39976169040892273188,-28.9018423006887,-1.03396710104678,123.029775892412
738280.39976178074721246958,-28.8649149042227,-1.02165796889147,123.042085024567
738280.39976187120191752911,-28.8895331685334,-1.03396710104678,123.029775892412
738280.39976196165662258863,-28.8649149042227,-1.02165796889147,123.079012421033
738280.39976205211132764816,-28.8279875077568,-1.02165796889147,123.103630685344
738280.39976214256603270769,-28.8526057720674,-1.00934883673615,123.042085024567
738280.39976223302073776722,-28.8772240363781,-1.03396710104678,123.042085024567
738280.39976232347544282675,-28.8895331685334,-1.03396710104678,123.054394156723
738280.39976241393014788628,-28.8649149042227,-1.02165796889147,123.017466760257
738280.39976250438485294580,-28.8772240363781,-1.03396710104678,123.042085024567
738280.39976259472314268351,-28.8772240363781,-1.02165796889147,123.066703288878
738280.39976268517784774303,-28.8772240363781,-1.03396710104678,123.042085024567
738280.39976277563255280256,-28.8402966399121,-1.00934883673615,123.091321553189
738280.39976286608725786209,-28.8649149042227,-1.02165796889147,123.066703288878
738280.39976295654196292162,-28.8526057720674,-1.03396710104678,123.066703288878
738280.39976304699666798115,-28.8895331685334,-1.0462762332021,123.054394156723
738280.39976313745137304068,-28.8649149042227,-1.03396710104678,123.079012421033
738280.39976322790607810020,-28.8526057720674,-1.02165796889147,123.128248949655
738280.39976331824436783791,-28.914151432844,-1.03396710104678,123.029775892412
738280.39976340869907289743,-28.8895331685334,-1.02165796889147,123.054394156723
738280.39976349915377795696,-28.8649149042227,-1.02165796889147,123.079012421033
738280.39976358960848301649,-28.8895331685334,-1.00934883673615,123.005157628101
738280.39976368006318807602,-28.8526057720674,-1.02165796889147,123.029775892412
738280.39976377051789313555,-28.8526057720674,-1.00934883673615,123.029775892412
738280.39976386097259819508,-28.8772240363781,-1.00934883673615,123.017466760257
738280.39976395142730325460,-28.8649149042227,-1.00934883673615,123.005157628101
738280.39976404188200831413,-28.8772240363781,-1.00934883673615,122.980539363791
738280.39976413222029805183,-28.8649149042227,-1.00934883673615,123.005157628101
738280.39976422267500311136,-28.8772240363781,-0.997039704580828,122.980539363791
738280.39976431312970817089,-28.914151432844,-1.00934883673615,122.980539363791
738280.39976440358441323042,-28.9018423006887,-1.03396710104678,122.992848495946
738280.39976449403911828995,-28.9387696971547,-1.02165796889147,122.943611967325
738280.39976458449382334948,-28.95107882931,-1.03396710104678,122.906684570859
738280.39976467494852840900,-28.9387696971547,-1.03396710104678,122.93130283517
738280.39976476540323346853,-28.9264605649993,-1.03396710104678,122.95592109948
738280.39976485574152320623,-28.914151432844,-1.03396710104678,122.980539363791
738280.39976494619622826576,-28.8772240363781,-1.02165796889147,123.066703288878
738280.39976503665093332529,-28.9018423006887,-1.03396710104678,123.017466760257
738280.39976512710563838482,-28.8649149042227,-1.0462762332021,123.066703288878
738280.39976521756034344435,-28.7787509791355,-1.0462762332021,123.115939817499
738280.39976530801504850388,-28.6556596575823,-0.935494043804234,123.128248949655
738280.39976539846975356340,-28.5325683360291,-0.726238797163813,123.079012421033
738280.39976548892445862293,-28.5694957324951,-0.664693136387219,123.128248949655
738280.39976557937916368246,-28.7418235826696,-0.849330118717002,123.128248949655
738280.39976566971745342016,-28.8772240363781,-0.947803175959553,123.214412874742
738280.39976576017215847969,-29.0495518865525,-1.03396710104678,123.263649403363
738280.39976585062686353922,-28.9756970936206,-1.0462762332021,123.251340271208
738280.39976594108156859875,-28.9264605649993,-1.05858536535742,123.202103742587
738280.39976603153627365828,-28.8895331685334,-1.0462762332021,123.226722006897
738280.39976612199097871780,-28.7910601112908,-1.02165796889147,123.275958535518
738280.39976621244568377733,-28.8033692434461,-1.03396710104678,123.251340271208
738280.39976630290038883686,-28.8279875077568,-1.03396710104678,123.214412874742
738280.39976639335509389639,-28.8156783756015,-1.0462762332021,123.226722006897
738280.39976648369338363409,-28.8033692434461,-1.0462762332021,123.251340271208
738280.39976657414808869362,-28.7787509791355,-1.02165796889147,123.251340271208
738280.39976666460279375315,-28.7910601112908,-1.03396710104678,123.288267667674
738280.39976675505749881268,-28.7910601112908,-1.03396710104678,123.251340271208
738280.39976684551220387220,-28.7787509791355,-1.0462762332021,123.263649403363
738280.39976693596690893173,-28.7664418469802,-1.03396710104678,123.275958535518
738280.39976702642161399126,-28.8033692434461,-1.0462762332021,123.251340271208
738280.39976711687631905079,-28.7541327148249,-1.02165796889147,123.275958535518
738280.39976720721460878849,-28.7541327148249,-1.03396710104678,123.300576799829
738280.39976729766931384802,-28.7664418469802,-1.00934883673615,123.239031139052
738280.39976738812401890755,-28.7910601112908,-1.00934883673615,123.202103742587
738280.39976747857872396708,-28.8279875077568,-1.00934883673615,123.115939817499
738280.39976756903342902660,-28.8526057720674,-1.00934883673615,123.005157628101
738280.39976765948813408613,-28.8649149042227,-0.997039704580828,122.906684570859
738280.39976774994283914566,-28.9018423006887,-0.984730572425509,122.783593249306
738280.39976784039754420519,-28.8895331685334,-0.972421440270191,122.758974984995
738280.39976793085224926472,-28.914151432844,-0.960112308114872,122.648192795597
738280.39976802119053900242,-28.914151432844,-0.947803175959553,122.598956266976
738280.39976811164524406195,-28.8772240363781,-0.923184911648915,122.549719738355
738280.39976820209994912148,-28.9264605649993,-0.935494043804234,122.438937548957
738280.39976829255465418100,-28.914151432844,-0.910875779493596,122.414319284646
738280.39976838300935924053,-28.8895331685334,-0.898566647338277,122.438937548957
738280.39976847346406430006,-28.8895331685334,-0.898566647338277,122.37739188818
738280.39976856391876935959,-28.9387696971547,-0.898566647338277,122.315846227404
738280.39976865437347441912,-28.914151432844,-0.898566647338277,122.402010152491
738280.39976874471176415682,-28.914151432844,-0.935494043804234,122.525101474044
738280.39976883516646921635,-28.8772240363781,-0.960112308114872,122.734356720684
738280.39976892562117427588,-28.8156783756015,-0.972421440270191,122.992848495946
738280.39976901607587933540,-28.7418235826696,-0.997039704580828,123.263649403363
738280.39976910653058439493,-28.6925870540483,-1.02165796889147,123.460595517848
738280.39976919698528945446,-28.680277921893,-1.02165796889147,123.497522914314
738280.39976928743999451399,-28.643350525427,-1.02165796889147,123.645232500178
738280.39976937789469957352,-28.6187322611164,-1.03396710104678,123.706778160955
738280.39976946834940463305,-28.5941139968057,-1.03396710104678,123.768323821731
738280.39976955868769437075,-28.5694957324951,-1.03396710104678,123.829869482508
738280.39976964914239943027,-28.5079500717185,-1.02165796889147,123.891415143284
738280.39976973959710448980,-28.6187322611164,-1.05858536535742,123.866796878974
738280.39976983005180954933,-28.606423128961,-1.05858536535742,123.866796878974
738280.39976992050651460886,-28.5571866003398,-1.05858536535742,123.940651671906
738280.39977001096121966839,-28.5325683360291,-1.0462762332021,124.002197332682
738280.39977010141592472792,-28.4833318074079,-1.0462762332021,124.100670389925
738280.39977019187062978745,-28.3971678823206,-1.0462762332021,124.260689107944
738280.39977028220891952515,-28.37254961801,-1.05858536535742,124.334543900876
738280.39977037266362458467,-28.3233130893887,-1.07089449751274,124.457635222429
738280.39977046311832964420,-28.2494582964568,-1.08320362966806,124.629963072604
738280.39977055357303470373,-28.2002217678355,-1.08320362966806,124.728436129846
738280.39977064402773976326,-28.1509852392143,-1.08320362966806,124.851527451399
738280.39977073448244482279,-28.0771304462823,-1.08320362966806,125.011546169418
738280.39977082493714988232,-28.0525121819717,-1.08320362966806,125.06078269804
738280.39977091539185494184,-28.0032756533504,-1.08320362966806,125.159255755282
738280.39977100584656000137,-27.9786573890398,-1.07089449751274,125.208492283904
738280.39977109618484973907,-28.0278939176611,-1.09551276182338,125.196183151748
738280.39977118663955479860,-28.064821314127,-1.08320362966806,125.146946623127
738280.39977127709425985813,-28.0894395784377,-1.08320362966806,125.06078269804
738280.39977136754896491766,-28.1140578427483,-1.08320362966806,124.950000508642
738280.39977145800366997719,-28.1756035035249,-1.07089449751274,124.789981790623
738280.39977154845837503672,-28.2986948250781,-1.07089449751274,124.568417411827
738280.39977163891308009624,-28.335622221544,-1.07089449751274,124.445326090274
738280.39977172936778515577,-28.3971678823206,-1.07089449751274,124.29761650441
738280.39977181982249021530,-28.4464044109419,-1.05858536535742,124.186834315012
738280.39977191016077995300,-28.4833318074079,-1.05858536535742,124.08836125777
738280.39977200061548501253,-28.5448774681845,-1.0462762332021,123.92834253975
738280.39977209107019007206,-28.5818048646504,-1.03396710104678,123.829869482508
738280.39977218152489513159,-28.5818048646504,-1.03396710104678,123.792942086042
738280.39977227197960019112,-28.5694957324951,-1.02165796889147,123.756014689576
738280.39977236243430525064,-28.5941139968057,-1.02165796889147,123.756014689576
738280.39977245288901031017,-28.5941139968057,-1.02165796889147,123.743705557421
738280.39977254334371536970,-28.5818048646504,-1.02165796889147,123.731396425265
738280.39977263368200510740,-28.5941139968057,-1.02165796889147,123.706778160955
738280.39977272413671016693,-28.606423128961,-1.02165796889147,123.694469028799
738280.39977281459141522646,-28.6310413932717,-1.0462762332021,123.682159896644
738280.39977290504612028599,-28.6187322611164,-1.03396710104678,123.682159896644
738280.39977299550082534552,-28.6310413932717,-1.03396710104678,123.71908729311
738280.39977308595553040504,-28.6310413932717,-1.03396710104678,123.768323821731
738280.39977317641023546457,-28.643350525427,-1.03396710104678,123.669850764489
738280.39977326686494052410,-28.680277921893,-1.0462762332021,123.645232500178
738280.39977335731964558363,-28.6556596575823,-1.0462762332021,123.657541632333
738280.39977344765793532133,-28.6679687897376,-1.0462762332021,123.645232500178
738280.39977353811264038086,-28.6310413932717,-1.0462762332021,123.71908729311
738280.39977362856734544039,-28.5941139968057,-1.03396710104678,123.780632953887
738280.39977371902205049992,-28.6310413932717,-1.05858536535742,123.780632953887
738280.39977380947675555944,-28.5694957324951,-1.09551276182338,123.805251218197
738280.39977389993146061897,-28.4464044109419,-1.03396710104678,123.854487746818
738280.39977399038616567850,-28.3110039572334,-0.910875779493596,123.92834253975
738280.39977408084087073803,-28.2371491643015,-0.689311400697857,123.965269936216
738280.39977417117916047573,-28.2740765607674,-0.713929665008494,124.039124729148
738280.39977426163386553526,-28.4217861466313,-0.935494043804234,124.137597786391
738280.39977435208857059479,-28.5941139968057,-1.0462762332021,124.371471297342
738280.39977444254327565432,-28.5818048646504,-1.09551276182338,124.420707825963
738280.39977453299798071384,-28.4956409395632,-1.1078218939787,124.396089561652
738280.39977462345268577337,-28.4094770144759,-1.08320362966806,124.383780429497
738280.39977471390739083290,-28.3479313536994,-1.05858536535742,124.383780429497
738280.39977480436209589243,-28.3602404858547,-1.05858536535742,124.408398693808
738280.39977489481680095196,-28.3848587501653,-1.07089449751274,124.371471297342
738280.39977498515509068966,-28.3971678823206,-1.07089449751274,124.359162165187
738280.39977507560979574919,-28.3971678823206,-1.07089449751274,124.309925636565
738280.39977516606450080872,-28.3848587501653,-1.07089449751274,124.309925636565
738280.39977525651920586824,-28.3971678823206,-1.05858536535742,124.272998240099
738280.39977534697391092777,-28.4094770144759,-1.05858536535742,124.260689107944
738280.39977543742861598730,-28.4464044109419,-1.05858536535742,124.186834315012
738280.39977552788332104683,-28.4587135430972,-1.05858536535742,124.125288654235
738280.39977561833802610636,-28.4710226752525,-1.0462762332021,124.063742993459
738280.39977570879273116589,-28.4464044109419,-1.0462762332021,124.100670389925
738280.39977579913102090359,-28.4464044109419,-1.0462762332021,124.08836125777
738280.39977588958572596312,-28.4464044109419,-1.0462762332021,124.100670389925
738280.39977598004043102264,-28.4587135430972,-1.0462762332021,124.08836125777
738280.39977607049513608217,-28.4464044109419,-1.0462762332021,124.076052125614
738280.39977616094984114170,-28.4833318074079,-1.0462762332021,123.989888200527
738280.39977625140454620123,-28.4833318074079,-1.02165796889147,123.940651671906
738280.39977634185925126076,-28.5202592038738,-1.00934883673615,123.805251218197
738280.39977643231395632029,-28.5571866003398,-0.997039704580828,123.682159896644
738280.39977652265224605799,-28.5818048646504,-0.972421440270191,123.546759442935
738280.39977661310695111752,-28.5941139968057,-0.935494043804234,123.337504196295
738280.39977670356165617704,-28.643350525427,-0.935494043804234,123.152867213965
738280.39977679401636123657,-28.7541327148249,-0.935494043804234,123.066703288878
738280.39977688447106629610,-28.7910601112908,-0.935494043804234,122.882066306548
738280.39977697492577135563,-28.7910601112908,-0.923184911648915,122.795902381461
738280.39977706538047641516,-28.7664418469802,-0.898566647338277,122.77128411715
738280.39977715583518147469,-28.7541327148249,-0.886257515182958,122.697429324218
738280.39977724628988653421,-28.8156783756015,-0.886257515182958,122.635883663442
738280.39977733662817627192,-28.8526057720674,-0.898566647338277,122.598956266976
738280.39977742708288133144,-28.8772240363781,-0.923184911648915,122.685120192063
738280.39977751753758639097,-28.8649149042227,-0.935494043804234,122.685120192063
738280.39977760799229145050,-28.8895331685334,-0.972421440270191,122.77128411715
738280.39977769844699651003,-28.8649149042227,-0.972421440270191,122.894375438704
738280.39977778890170156956,-28.8772240363781,-1.00934883673615,122.906684570859
738280.39977787935640662909,-28.8649149042227,-0.997039704580828,122.980539363791
738280.39977796981111168861,-28.8156783756015,-1.00934883673615,123.103630685344
738280.39977806014940142632,-28.7910601112908,-0.997039704580828,123.14055808181
738280.39977815060410648584,-28.7910601112908,-0.997039704580828,123.214412874742
738280.39977824105881154537,-28.7910601112908,-1.00934883673615,123.263649403363
738280.39977833151351660490,-28.7910601112908,-1.00934883673615,123.239031139052
738280.39977842196822166443,-28.7664418469802,-1.00934883673615,123.300576799829
738280.39977851242292672396,-28.7787509791355,-1.02165796889147,123.32519506414
738280.39977860287763178349,-28.7664418469802,-1.02165796889147,123.32519506414
738280.39977869333233684301,-28.7787509791355,-1.02165796889147,123.312885931984
738280.39977878378704190254,-28.7418235826696,-1.02165796889147,123.374431592761
738280.39977887412533164024,-28.7048961862036,-1.02165796889147,123.460595517848
738280.39977896458003669977,-28.680277921893,-1.00934883673615,123.448286385693
738280.39977905503474175930,-28.7172053183589,-1.02165796889147,123.435977253538
738280.39977914548944681883,-28.7295144505142,-1.02165796889147,123.411358989227
738280.39977923594415187836,-28.6925870540483,-1.03396710104678,123.485213782159
738280.39977932639885693789,-28.6925870540483,-1.02165796889147,123.497522914314
738280.39977941685356199741,-28.6310413932717,-1.02165796889147,123.620614235867
738280.39977950730826705694,-28.6556596575823,-1.02165796889147,123.583686839401
738280.39977959776297211647,-28.6556596575823,-1.02165796889147,123.571377707246
738280.39977968810126185417,-28.6679687897376,-1.03396710104678,123.595995971557
738280.39977977855596691370,-28.6556596575823,-1.03396710104678,123.620614235867
738280.39977986901067197323,-28.643350525427,-1.03396710104678,123.645232500178
738280.39977995946537703276,-28.6310413932717,-1.02165796889147,123.657541632333
738280.39978004992008209229,-28.606423128961,-1.00934883673615,123.669850764489
738280.39978014037478715181,-28.6310413932717,-1.02165796889147,123.682159896644
738280.39978023082949221134,-28.6679687897376,-1.03396710104678,123.669850764489
738280.39978032128419727087,-28.643350525427,-1.03396710104678,123.669850764489
738280.39978041162248700857,-28.6310413932717,-1.03396710104678,123.71908729311
738280.39978050207719206810,-28.606423128961,-1.03396710104678,123.743705557421
738280.39978059253189712763,-28.606423128961,-1.0462762332021,123.768323821731
738280.39978068298660218716,-28.6187322611164,-1.03396710104678,123.706778160955
738280.39978077344130724669,-28.6187322611164,-1.03396710104678,123.694469028799
738280.39978086389601230621,-28.606423128961,-1.02165796889147,123.694469028799
738280.39978095435071736574,-28.643350525427,-1.00934883673615,123.632923368023
738280.39978104480542242527,-28.6187322611164,-1.00934883673615,123.632923368023
738280.39978113526012748480,-28.643350525427,-1.02165796889147,123.608305103712
738280.39978122559841722250,-28.6556596575823,-1.00934883673615,123.583686839401
738280.39978131605312228203,-28.643350525427,-1.00934883673615,123.583686839401
738280.39978140650782734156,-28.643350525427,-0.997039704580828,123.595995971557
738280.39978149696253240108,-28.680277921893,-1.02165796889147,123.595995971557
738280.39978158741723746061,-28.680277921893,-1.03396710104678,123.583686839401
738280.39978167787194252014,-28.6679687897376,-1.02165796889147,123.608305103712
738280.39978176832664757967,-28.6679687897376,-0.997039704580828,123.583686839401
738280.39978185878135263920,-28.7172053183589,-1.03396710104678,123.559068575091
738280.39978194911964237690,-28.7295144505142,-1.03396710104678,123.497522914314
738280.39978203957434743643,-28.7172053183589,-1.03396710104678,123.546759442935
738280.39978213002905249596,-28.7295144505142,-1.03396710104678,123.497522914314
738280.39978222048375755548,-28.7295144505142,-1.02165796889147,123.472904650004
738280.39978231093846261501,-28.7295144505142,-1.02165796889147,123.460595517848
738280.39978240139316767454,-28.7664418469802,-1.02165796889147,123.386740724916
738280.39978249184787273407,-28.7664418469802,-1.0462762332021,123.362122460606
738280.39978258230257779360,-28.7048961862036,-1.05858536535742,123.312885931984
738280.39978267275728285313,-28.6187322611164,-0.923184911648915,123.251340271208
738280.39978276309557259083,-28.4710226752525,-0.701620532853175,123.275958535518
738280.39978285355027765036,-28.606423128961,-0.615456607765943,123.312885931984
738280.39978294400498270988,-28.6925870540483,-0.824711854406364,123.263649403363
738280.39978303445968776941,-28.914151432844,-0.997039704580828,123.411358989227
738280.39978312491439282894,-28.9756970936206,-1.0462762332021,123.448286385693
738280.39978321536909788847,-28.8649149042227,-1.0462762332021,123.435977253538
738280.39978330582380294800,-28.8156783756015,-1.03396710104678,123.435977253538
738280.39978339627850800753,-28.7787509791355,-1.03396710104678,123.411358989227
738280.39978348673321306705,-28.7295144505142,-1.00934883673615,123.435977253538
738280.39978357707150280476,-28.7295144505142,-1.02165796889147,123.448286385693
738280.39978366752620786428,-28.7418235826696,-1.02165796889147,123.423668121382
738280.39978375798091292381,-28.7048961862036,-1.02165796889147,123.460595517848
738280.39978384843561798334,-28.7172053183589,-1.02165796889147,123.460595517848
738280.39978393889032304287,-28.7172053183589,-1.00934883673615,123.472904650004
738280.39978402934502810240,-28.7048961862036,-1.00934883673615,123.50983204647
738280.39978411979973316193,-28.6925870540483,-1.00934883673615,123.50983204647
738280.39978421025443822145,-28.6925870540483,-1.00934883673615,123.50983204647
738280.39978430059272795916,-28.7048961862036,-1.00934883673615,123.497522914314
738280.39978439104743301868,-28.6679687897376,-0.997039704580828,123.53445031078
738280.39978448150213807821,-28.680277921893,-0.984730572425509,123.522141178625
738280.39978457195684313774,-28.6679687897376,-1.00934883673615,123.583686839401
738280.39978466241154819727,-28.6187322611164,-1.00934883673615,123.682159896644
738280.39978475286625325680,-28.5941139968057,-0.997039704580828,123.682159896644
738280.39978484332095831633,-28.606423128961,-0.972421440270191,123.669850764489
738280.39978493377566337585,-28.5325683360291,-0.960112308114872,123.756014689576
738280.39978502423036843538,-28.5448774681845,-0.984730572425509,123.780632953887
738280.39978511456865817308,-28.5694957324951,-0.984730572425509,123.768323821731
738280.39978520502336323261,-28.4956409395632,-0.984730572425509,123.842178614663
738280.39978529547806829214,-28.4710226752525,-0.960112308114872,123.829869482508
738280.39978538593277335167,-28.4340952787866,-0.947803175959553,123.854487746818
738280.39978547638747841120,-28.4094770144759,-0.947803175959553,123.866796878974
738280.39978556684218347073,-28.4094770144759,-0.910875779493596,123.866796878974
738280.39978565729688853025,-28.37254961801,-0.898566647338277,123.879106011129
738280.39978574775159358978,-28.3479313536994,-0.910875779493596,123.92834253975
738280.39978583808988332748,-28.37254961801,-0.898566647338277,123.90372427544
738280.39978592854458838701,-28.335622221544,-0.910875779493596,123.92834253975
738280.39978601899929344654,-28.3602404858547,-0.910875779493596,123.952960804061
738280.39978610945399850607,-28.4217861466313,-0.935494043804234,123.965269936216
738280.39978619990870356560,-28.4094770144759,-0.935494043804234,123.916033407595
738280.39978629036340862513,-28.4587135430972,-0.984730572425509,124.002197332682
738280.39978638081811368465,-28.4710226752525,-0.997039704580828,124.063742993459
738280.39978647127281874418,-28.5079500717185,-0.997039704580828,123.965269936216
738280.39978656172752380371,-28.4956409395632,-1.00934883673615,124.026815596993
738280.39978665206581354141,-28.4833318074079,-1.00934883673615,124.063742993459
738280.39978674252051860094,-28.5079500717185,-1.00934883673615,124.076052125614
738280.39978683297522366047,-28.5325683360291,-1.03396710104678,124.051433861304
738280.39978692342992872000,-28.4956409395632,-1.02165796889147,124.11297952208
738280.39978701388463377953,-28.4956409395632,-1.02165796889147,124.076052125614
738280.39978710433933883905,-28.4710226752525,-0.997039704580828,124.08836125777
738280.39978719479404389858,-28.4710226752525,-1.02165796889147,124.100670389925
738280.39978728524874895811,-28.4956409395632,-1.03396710104678,124.08836125777
738280.39978737570345401764,-28.4833318074079,-1.00934883673615,124.100670389925
738280.39978746604174375534,-28.4464044109419,-1.03396710104678,124.149906918546
738280.39978755649644881487,-28.4587135430972,-1.02165796889147,124.149906918546
738280.39978764695115387440,-28.4833318074079,-1.02165796889147,124.137597786391
738280.39978773740585893393,-28.4710226752525,-1.03396710104678,124.162216050701
738280.39978782786056399345,-28.4217861466313,-1.02165796889147,124.236070843633
738280.39978791831526905298,-28.4464044109419,-1.03396710104678,124.186834315012
738280.39978800876997411251,-28.4340952787866,-1.02165796889147,124.186834315012
738280.39978809922467917204,-28.3971678823206,-1.02165796889147,124.29761650441
738280.39978818956296890974,-28.4217861466313,-1.00934883673615,124.260689107944
738280.39978828001767396927,-28.4094770144759,-1.02165796889147,124.29761650441
738280.39978837047237902880,-28.3971678823206,-1.02165796889147,124.322234768721
738280.39978846092708408833,-28.3971678823206,-1.0462762332021,124.346853033031
738280.39978855138178914785,-28.3971678823206,-1.02165796889147,124.334543900876
738280.39978864183649420738,-28.3848587501653,-1.02165796889147,124.371471297342
738280.39978873229119926691,-28.3971678823206,-1.02165796889147,124.334543900876
738280.39978882274590432644,-28.3971678823206,-1.02165796889147,124.346853033031
738280.39978891320060938597,-28.3848587501653,-1.02165796889147,124.322234768721
738280.39978900353889912367,-28.3848587501653,-1.03396710104678,124.371471297342
738280.39978909399360418320,-28.3971678823206,-1.03396710104678,124.359162165187
738280.39978918444830924273,-28.3848587501653,-1.0462762332021,124.371471297342
738280.39978927490301430225,-28.3848587501653,-1.00934883673615,124.359162165187
738280.39978936535771936178,-28.37254961801,-1.02165796889147,124.359162165187
738280.39978945581242442131,-28.4094770144759,-1.03396710104678,124.309925636565
738280.39978954626712948084,-28.3602404858547,-1.02165796889147,124.334543900876
738280.39978963672183454037,-28.3602404858547,-1.00934883673615,124.334543900876
738280.39978972706012427807,-28.4094770144759,-1.02165796889147,124.285307372255
738280.39978981751482933760,-28.37254961801,-1.02165796889147,124.359162165187
738280.39978990796953439713,-28.3848587501653,-1.02165796889147,124.334543900876
738280.39978999842423945665,-28.37254961801,-1.00934883673615,124.346853033031
738280.39979008887894451618,-28.4094770144759,-1.02165796889147,124.285307372255
738280.39979017933364957571,-28.4094770144759,-1.02165796889147,124.322234768721
738280.39979026978835463524,-28.4094770144759,-1.03396710104678,124.334543900876
738280.39979036024305969477,-28.4094770144759,-1.02165796889147,124.322234768721
738280.39979045069776475430,-28.4094770144759,-1.00934883673615,124.29761650441
738280.39979054103605449200,-28.3971678823206,-1.02165796889147,124.29761650441
738280.39979063149075955153,-28.4217861466313,-1.02165796889147,124.248379975789
738280.39979072194546461105,-28.4464044109419,-1.03396710104678,124.236070843633
738280.39979081240016967058,-28.4587135430972,-1.03396710104678,124.211452579323
738280.39979090285487473011,-28.4587135430972,-1.00934883673615,124.199143447167
738280.39979099330957978964,-28.4464044109419,-1.00934883673615,124.223761711478
738280.39979108376428484917,-28.4464044109419,-1.00934883673615,124.162216050701
738280.39979117421898990870,-28.4710226752525,-1.0462762332021,124.162216050701
738280.39979126455727964640,-28.4094770144759,-1.0462762332021,124.125288654235
738280.39979135501198470592,-28.3233130893887,-0.960112308114872,124.149906918546
738280.39979144546668976545,-28.1632943713696,-0.713929665008494,124.149906918546
738280.39979153592139482498,-28.2740765607674,-0.6523840042319,124.211452579323
738280.39979162637609988451,-28.4094770144759,-0.837020986561683,124.063742993459
738280.39979171683080494404,-28.606423128961,-1.00934883673615,124.149906918546
738280.39979180728551000357,-28.643350525427,-1.0462762332021,124.309925636565
738280.39979189774021506310,-28.6310413932717,-1.05858536535742,124.285307372255
738280.39979198819492012262,-28.5694957324951,-1.0462762332021,124.211452579323
738280.39979207853320986032,-28.5079500717185,-1.03396710104678,124.199143447167
738280.39979216898791491985,-28.4464044109419,-1.03396710104678,124.248379975789
738280.39979225944261997938,-28.4587135430972,-1.02165796889147,124.199143447167
738280.39979234989732503891,-28.4710226752525,-1.02165796889147,124.186834315012
738280.39979244035203009844,-28.4464044109419,-1.02165796889147,124.174525182857
738280.39979253080673515797,-28.4587135430972,-1.00934883673615,124.125288654235
738280.39979262126144021749,-28.4464044109419,-1.00934883673615,124.174525182857
738280.39979271171614527702,-28.4464044109419,-1.00934883673615,124.211452579323
738280.39979280217085033655,-28.4587135430972,-0.997039704580828,124.149906918546
738280.39979289250914007425,-28.4464044109419,-1.00934883673615,124.174525182857
738280.39979298296384513378,-28.4340952787866,-1.02165796889147,124.223761711478
738280.39979307341855019331,-28.4094770144759,-1.02165796889147,124.236070843633
738280.39979316387325525284,-28.4464044109419,-0.997039704580828,124.162216050701
738280.39979325432796031237,-28.4340952787866,-0.997039704580828,124.137597786391
738280.39979334478266537189,-28.3971678823206,-0.997039704580828,124.186834315012
738280.39979343523737043142,-28.3848587501653,-0.984730572425509,124.223761711478
738280.39979352569207549095,-28.4217861466313,-0.997039704580828,124.199143447167
738280.39979361603036522865,-28.4217861466313,-0.984730572425509,124.186834315012
738280.39979370648507028818,-28.3848587501653,-0.984730572425509,124.174525182857
738280.39979379693977534771,-28.3602404858547,-0.947803175959553,124.162216050701
738280.39979388739448040724,-28.335622221544,-0.972421440270191,124.211452579323
738280.39979397784918546677,-28.3971678823206,-0.972421440270191,124.125288654235
738280.39979406830389052629,-28.3848587501653,-0.947803175959553,124.08836125777
738280.39979415875859558582,-28.3479313536994,-0.910875779493596,124.051433861304
738280.39979424921330064535,-28.3479313536994,-0.910875779493596,124.014506464838
738280.39979433966800570488,-28.3233130893887,-0.898566647338277,124.002197332682
738280.39979443000629544258,-28.2863856929228,-0.898566647338277,124.014506464838
738280.39979452046100050211,-28.335622221544,-0.898566647338277,123.952960804061
738280.39979461091570556164,-28.3602404858547,-0.898566647338277,123.940651671906
738280.39979470137041062117,-28.3602404858547,-0.898566647338277,123.92834253975
738280.39979479182511568069,-28.3971678823206,-0.923184911648915,123.952960804061
738280.39979488227982074022,-28.4217861466313,-0.935494043804234,123.952960804061
738280.39979497273452579975,-28.4464044109419,-0.947803175959553,123.977579068372
738280.39979506318923085928,-28.4464044109419,-0.984730572425509,124.002197332682
738280.39979515352752059698,-28.4587135430972,-0.984730572425509,124.014506464838
738280.39979524398222565651,-28.4956409395632,-0.984730572425509,123.989888200527
738280.39979533443693071604,-28.5202592038738,-1.02165796889147,124.002197332682
738280.39979542489163577557,-28.5325683360291,-0.997039704580828,124.002197332682
738280.39979551534634083509,-28.5448774681845,-1.00934883673615,123.952960804061
738280.39979560580104589462,-28.5202592038738,-0.997039704580828,123.965269936216
738280.39979569625575095415,-28.5448774681845,-1.00934883673615,123.916033407595
738280.39979578671045601368,-28.5571866003398,-1.00934883673615,123.90372427544
738280.39979587716516107321,-28.5448774681845,-0.997039704580828,123.90372427544
738280.39979596750345081091,-28.5325683360291,-1.00934883673615,123.952960804061
738280.39979605795815587044,-28.5571866003398,-1.00934883673615,123.891415143284
738280.39979614841286092997,-28.5448774681845,-0.997039704580828,123.90372427544
738280.39979623886756598949,-28.5448774681845,-0.997039704580828,123.90372427544
738280.39979632932227104902,-28.5448774681845,-0.997039704580828,123.879106011129
738280.39979641977697610855,-28.5694957324951,-0.997039704580828,123.854487746818
738280.39979651023168116808,-28.5571866003398,-0.997039704580828,123.842178614663
738280.39979660068638622761,-28.5571866003398,-0.997039704580828,123.829869482508
738280.39979669114109128714,-28.5818048646504,-0.997039704580828,123.805251218197
738280.39979678147938102484,-28.5818048646504,-1.00934883673615,123.817560350352
738280.39979687193408608437,-28.5818048646504,-0.984730572425509,123.817560350352
738280.39979696238879114389,-28.5818048646504,-0.984730572425509,123.817560350352
738280.39979705284349620342,-28.5818048646504,-0.984730572425509,123.829869482508
738280.39979714329820126295,-28.5694957324951,-1.00934883673615,123.817560350352
738280.39979723375290632248,-28.5818048646504,-1.00934883673615,123.842178614663
738280.39979732420761138201,-28.5571866003398,-1.00934883673615,123.842178614663
738280.39979741466231644154,-28.5694957324951,-0.997039704580828,123.879106011129
738280.39979750500060617924,-28.5325683360291,-1.00934883673615,123.916033407595
738280.39979759545531123877,-28.5571866003398,-0.997039704580828,123.866796878974
738280.39979768591001629829,-28.5571866003398,-0.997039704580828,123.891415143284
738280.39979777636472135782,-28.5694957324951,-0.997039704580828,123.866796878974
738280.39979786681942641735,-28.5694957324951,-1.02165796889147,123.891415143284
738280.39979795727413147688,-28.5694957324951,-0.997039704580828,123.879106011129
738280.39979804772883653641,-28.5818048646504,-0.997039704580828,123.842178614663
738280.39979813818354159594,-28.5818048646504,-0.997039704580828,123.842178614663
738280.39979822863824665546,-28.5818048646504,-1.02165796889147,123.829869482508
738280.39979831897653639317,-28.5818048646504,-0.997039704580828,123.829869482508
738280.39979840943124145269,-28.5694957324951,-0.997039704580828,123.842178614663
738280.39979849988594651222,-28.5325683360291,-0.972421440270191,123.879106011129
738280.39979859034065157175,-28.5694957324951,-0.972421440270191,123.829869482508
738280.39979868079535663128,-28.5571866003398,-0.984730572425509,123.879106011129
738280.39979877125006169081,-28.5571866003398,-0.997039704580828,123.90372427544
738280.39979886170476675034,-28.5694957324951,-0.997039704580828,123.879106011129
738280.39979895215947180986,-28.5571866003398,-0.997039704580828,123.879106011129
738280.39979904249776154757,-28.5325683360291,-0.984730572425509,123.952960804061
738280.39979913295246660709,-28.5694957324951,-0.997039704580828,123.90372427544
738280.39979922340717166662,-28.5694957324951,-0.997039704580828,123.92834253975
738280.39979931386187672615,-28.5694957324951,-0.997039704580828,123.916033407595
738280.39979940431658178568,-28.5694957324951,-1.00934883673615,123.90372427544
738280.39979949477128684521,-28.606423128961,-1.02165796889147,123.842178614663
738280.39979958522599190474,-28.606423128961,-1.02165796889147,123.854487746818
738280.39979967568069696426,-28.5571866003398,-1.02165796889147,123.916033407595
738280.39979976613540202379,-28.5941139968057,-1.02165796889147,123.854487746818
738280.39979985647369176149,-28.606423128961,-0.997039704580828,123.817560350352
738280.39979994692839682102,-28.5818048646504,-1.02165796889147,123.842178614663
738280.39980003738310188055,-28.5202592038738,-1.03396710104678,123.817560350352
738280.39980012783780694008,-28.4217861466313,-0.935494043804234,123.854487746818
738280.39980021829251199961,-28.2986948250781,-0.726238797163813,123.829869482508
738280.39980030874721705914,-28.4340952787866,-0.627765739921262,123.792942086042
738280.39980039920192211866,-28.4956409395632,-0.812402722251045,123.792942086042
738280.39980048965662717819,-28.7048961862036,-0.984730572425509,123.891415143284
738280.39980058011133223772,-28.7910601112908,-1.03396710104678,123.940651671906
738280.39980067044962197542,-28.7418235826696,-1.05858536535742,123.879106011129
738280.39980076090432703495,-28.6679687897376,-1.0462762332021,123.866796878974
738280.39980085135903209448,-28.6556596575823,-0.997039704580828,123.756014689576
738280.39980094181373715401,-28.6187322611164,-1.00934883673615,123.743705557421
738280.39980103226844221354,-28.606423128961,-0.997039704580828,123.731396425265
738280.39980112272314727306,-28.606423128961,-0.997039704580828,123.743705557421
738280.39980121317785233259,-28.6187322611164,-1.00934883673615,123.71908729311
738280.39980130363255739212,-28.6310413932717,-1.02165796889147,123.71908729311
738280.39980139397084712982,-28.606423128961,-1.00934883673615,123.756014689576
738280.39980148442555218935,-28.6556596575823,-1.00934883673615,123.669850764489
738280.39980157488025724888,-28.6310413932717,-0.997039704580828,123.682159896644
738280.39980166533496230841,-28.6310413932717,-0.984730572425509,123.694469028799
738280.39980175578966736794,-28.606423128961,-0.997039704580828,123.71908729311
738280.39980184624437242746,-28.643350525427,-0.997039704580828,123.645232500178
738280.39980193669907748699,-28.6187322611164,-0.984730572425509,123.669850764489
738280.39980202715378254652,-28.6187322611164,-0.972421440270191,123.669850764489
738280.39980211760848760605,-28.606423128961,-0.984730572425509,123.706778160955
738280.39980220794677734375,-28.5941139968057,-0.984730572425509,123.706778160955
738280.39980229840148240328,-28.5818048646504,-0.984730572425509,123.731396425265
738280.39980238885618746281,-28.5571866003398,-0.972421440270191,123.756014689576
738280.39980247931089252234,-28.5202592038738,-0.960112308114872,123.817560350352
738280.39980256976559758186,-28.4833318074079,-0.960112308114872,123.854487746818
738280.39980266022030264139,-28.4710226752525,-0.947803175959553,123.829869482508
738280.39980275067500770092,-28.4833318074079,-0.935494043804234,123.792942086042
738280.39980284112971276045,-28.4464044109419,-0.923184911648915,123.829869482508
738280.39980293146800249815,-28.4464044109419,-0.923184911648915,123.817560350352
738280.39980302192270755768,-28.4094770144759,-0.923184911648915,123.854487746818
738280.39980311237741261721,-28.4094770144759,-0.923184911648915,123.854487746818
738280.39980320283211767673,-28.3602404858547,-0.886257515182958,123.879106011129
738280.39980329328682273626,-28.3479313536994,-0.886257515182958,123.891415143284
738280.39980338374152779579,-28.335622221544,-0.87394838302764,123.92834253975
738280.39980347419623285532,-28.335622221544,-0.886257515182958,123.940651671906
738280.39980356465093791485,-28.3848587501653,-0.910875779493596,123.92834253975
738280.39980365510564297438,-28.4340952787866,-0.923184911648915,123.92834253975
738280.39980374544393271208,-28.4587135430972,-0.947803175959553,123.90372427544
738280.39980383589863777161,-28.5079500717185,-0.972421440270191,123.842178614663
738280.39980392635334283113,-28.5325683360291,-0.997039704580828,123.879106011129
738280.39980401680804789066,-28.5202592038738,-0.997039704580828,123.92834253975
738280.39980410726275295019,-28.5202592038738,-0.997039704580828,123.92834253975
738280.39980419771745800972,-28.4956409395632,-1.00934883673615,124.014506464838
738280.39980428817216306925,-28.4710226752525,-0.997039704580828,124.063742993459
738280.39980437862686812878,-28.5079500717185,-0.997039704580828,124.002197332682
738280.39980446908157318830,-28.5325683360291,-0.997039704580828,123.952960804061
738280.39980455941986292601,-28.5325683360291,-1.00934883673615,123.940651671906
738280.39980464987456798553,-28.5325683360291,-0.997039704580828,123.940651671906
738280.39980474032927304506,-28.5448774681845,-0.997039704580828,123.891415143284
738280.39980483078397810459,-28.5571866003398,-1.00934883673615,123.879106011129
738280.39980492123868316412,-28.5818048646504,-0.997039704580828,123.829869482508
738280.39980501169338822365,-28.5818048646504,-1.00934883673615,123.768323821731
738280.39980510214809328318,-28.5941139968057,-1.00934883673615,123.731396425265
738280.39980519260279834270,-28.6310413932717,-0.997039704580828,123.632923368023
738280.39980528294108808041,-28.6925870540483,-1.00934883673615,123.485213782159
738280.39980537339579313993,-28.7295144505142,-0.984730572425509,123.386740724916
738280.39980546385049819946,-28.7541327148249,-0.972421440270191,123.312885931984
738280.39980555430520325899,-28.8156783756015,-0.984730572425509,123.152867213965
738280.39980564475990831852,-28.7910601112908,-0.984730572425509,123.214412874742
738280.39980573521461337805,-28.8033692434461,-0.984730572425509,123.214412874742
738280.39980582566931843758,-28.8156783756015,-0.972421440270191,123.177485478276
738280.39980591612402349710,-28.8156783756015,-0.984730572425509,123.189794610431
738280.39980600657872855663,-28.7664418469802,-0.997039704580828,123.312885931984
738280.39980609691701829433,-28.7418235826696,-0.984730572425509,123.32519506414
738280.39980618737172335386,-28.7418235826696,-0.972421440270191,123.34981332845
738280.39980627782642841339,-28.7541327148249,-0.997039704580828,123.399049857072
738280.39980636828113347292,-28.6925870540483,-0.997039704580828,123.497522914314
738280.39980645873583853245,-28.680277921893,-0.984730572425509,123.472904650004
738280.39980654919054359198,-28.7172053183589,-1.00934883673615,123.522141178625
738280.39980663964524865150,-28.6679687897376,-1.00934883673615,123.608305103712
738280.39980673009995371103,-28.6556596575823,-1.00934883673615,123.645232500178
738280.39980682043824344873,-28.6187322611164,-1.00934883673615,123.694469028799
738280.39980691089294850826,-28.606423128961,-1.02165796889147,123.780632953887
738280.39980700134765356779,-28.5818048646504,-1.00934883673615,123.817560350352
738280.39980709180235862732,-28.5694957324951,-0.997039704580828,123.829869482508
738280.39980718225706368685,-28.5079500717185,-1.00934883673615,123.952960804061
738280.39980727271176874638,-28.5079500717185,-0.997039704580828,123.952960804061
738280.39980736316647380590,-28.5079500717185,-0.997039704580828,123.940651671906
738280.39980745362117886543,-28.4833318074079,-0.997039704580828,124.014506464838
738280.39980754407588392496,-28.4710226752525,-1.00934883673615,124.051433861304
738280.39980763441417366266,-28.4833318074079,-0.997039704580828,124.063742993459
738280.39980772486887872219,-28.4587135430972,-1.00934883673615,124.125288654235
738280.39980781532358378172,-28.4587135430972,-0.997039704580828,124.100670389925
738280.39980790577828884125,-28.4587135430972,-1.00934883673615,124.100670389925
738280.39980799623299390078,-28.4833318074079,-1.00934883673615,124.063742993459
738280.39980808668769896030,-28.4833318074079,-1.00934883673615,124.100670389925
738280.39980817714240401983,-28.4956409395632,-1.02165796889147,124.051433861304
738280.39980826759710907936,-28.4710226752525,-1.02165796889147,124.076052125614
738280.39980835805181413889,-28.4833318074079,-1.00934883673615,124.100670389925
738280.39980844839010387659,-28.4956409395632,-1.02165796889147,124.08836125777
738280.39980853884480893612,-28.5079500717185,-1.02165796889147,124.039124729148
738280.39980862929951399565,-28.4956409395632,-1.02165796889147,124.063742993459
738280.39980871975421905518,-28.4340952787866,-1.00934883673615,124.125288654235
738280.39980881020892411470,-28.4217861466313,-1.0462762332021,124.100670389925
738280.39980890066362917423,-28.37254961801,-1.0462762332021,124.100670389925
738280.39980899111833423376,-28.2617674286121,-0.898566647338277,124.137597786391
738280.39980908157303929329,-28.1879126356802,-0.677002268542538,124.174525182857
738280.39980917191132903099,-28.3110039572334,-0.701620532853175,124.125288654235
738280.39980926236603409052,-28.4340952787866,-0.923184911648915,124.137597786391
738280.39980935282073915005,-28.6187322611164,-1.02165796889147,124.248379975789
738280.39980944327544420958,-28.6310413932717,-1.07089449751274,124.260689107944
738280.39980953373014926910,-28.5448774681845,-1.08320362966806,124.211452579323
738280.39980962418485432863,-28.4956409395632,-1.0462762332021,124.186834315012
738280.39980971463955938816,-28.4587135430972,-1.02165796889147,124.137597786391
738280.39980980509426444769,-28.4464044109419,-1.02165796889147,124.174525182857
738280.39980989554896950722,-28.4464044109419,-1.02165796889147,124.162216050701
738280.39980998588725924492,-28.4217861466313,-1.00934883673615,124.174525182857
738280.39981007634196430445,-28.4217861466313,-1.02165796889147,124.174525182857
738280.39981016679666936398,-28.4340952787866,-1.00934883673615,124.137597786391
738280.39981025725137442350,-28.4587135430972,-1.00934883673615,124.076052125614
738280.39981034770607948303,-28.4340952787866,-1.02165796889147,124.100670389925
738280.39981043816078454256,-28.4464044109419,-1.00934883673615,124.08836125777
738280.39981052861548960209,-28.4464044109419,-1.00934883673615,124.063742993459
738280.39981061907019466162,-28.4587135430972,-1.00934883673615,124.063742993459
738280.39981070940848439932,-28.4587135430972,-0.984730572425509,124.026815596993
738280.39981079986318945885,-28.4710226752525,-0.997039704580828,124.039124729148
738280.39981089031789451838,-28.5079500717185,-0.984730572425509,123.92834253975
738280.39981098077259957790,-28.4833318074079,-0.997039704580828,123.952960804061
738280.39981107122730463743,-28.4710226752525,-0.997039704580828,124.002197332682
738280.39981116168200969696,-28.4710226752525,-0.984730572425509,123.952960804061
738280.39981125213671475649,-28.4587135430972,-0.972421440270191,123.92834253975
738280.39981134259141981602,-28.4587135430972,-0.972421440270191,123.916033407595
738280.39981143304612487555,-28.4464044109419,-0.960112308114872,123.916033407595
738280.39981152338441461325,-28.4340952787866,-0.935494043804234,123.879106011129
738280.39981161383911967278,-28.4217861466313,-0.935494043804234,123.891415143284
738280.39981170429382473230,-28.4094770144759,-0.923184911648915,123.829869482508
738280.39981179474852979183,-28.3848587501653,-0.910875779493596,123.842178614663
738280.39981188520323485136,-28.4094770144759,-0.898566647338277,123.780632953887
738280.39981197565793991089,-28.3971678823206,-0.886257515182958,123.756014689576
738280.39981206611264497042,-28.3971678823206,-0.886257515182958,123.756014689576
738280.39981215656735002995,-28.3971678823206,-0.87394838302764,123.743705557421
738280.39981224702205508947,-28.3848587501653,-0.87394838302764,123.756014689576
738280.39981233736034482718,-28.4094770144759,-0.898566647338277,123.756014689576
738280.39981242781504988670,-28.4464044109419,-0.923184911648915,123.805251218197
738280.39981251826975494623,-28.4833318074079,-0.947803175959553,123.780632953887
738280.39981260872446000576,-28.5325683360291,-0.935494043804234,123.731396425265
738280.39981269917916506529,-28.5571866003398,-0.984730572425509,123.792942086042
738280.39981278963387012482,-28.5571866003398,-0.997039704580828,123.805251218197
738280.39981288008857518435,-28.5694957324951,-0.984730572425509,123.817560350352
738280.39981297054328024387,-28.5571866003398,-0.972421440270191,123.817560350352
738280.39981306088156998158,-28.5694957324951,-0.960112308114872,123.768323821731
738280.39981315133627504110,-28.5571866003398,-0.984730572425509,123.829869482508
738280.39981324179098010063,-28.5448774681845,-0.997039704580828,123.879106011129
738280.39981333224568516016,-28.5448774681845,-0.997039704580828,123.891415143284
738280.39981342270039021969,-28.5448774681845,-1.00934883673615,123.891415143284
738280.39981351315509527922,-28.5202592038738,-0.997039704580828,123.952960804061
738280.39981360360980033875,-28.5325683360291,-0.997039704580828,123.891415143284
738280.39981369406450539827,-28.5202592038738,-1.00934883673615,123.891415143284
738280.39981378451921045780,-28.5325683360291,-1.00934883673615,123.866796878974
738280.39981387485750019550,-28.5448774681845,-1.00934883673615,123.842178614663
738280.39981396531220525503,-28.5694957324951,-1.00934883673615,123.768323821731
738280.39981405576691031456,-28.5818048646504,-0.997039704580828,123.768323821731
738280.39981414622161537409,-28.5694957324951,-0.997039704580828,123.792942086042
738280.39981423667632043362,-28.606423128961,-0.984730572425509,123.706778160955
738280.39981432713102549314,-28.6187322611164,-0.984730572425509,123.645232500178
738280.39981441758573055267,-28.6556596575823,-0.984730572425509,123.559068575091
738280.39981450804043561220,-28.6187322611164,-0.984730572425509,123.632923368023
738280.39981459837872534990,-28.643350525427,-0.984730572425509,123.645232500178
738280.39981468883343040943,-28.6556596575823,-0.997039704580828,123.669850764489
738280.39981477928813546896,-28.6556596575823,-0.997039704580828,123.620614235867
738280.39981486974284052849,-28.6556596575823,-0.984730572425509,123.608305103712
738280.39981496019754558802,-28.6679687897376,-0.972421440270191,123.595995971557
738280.39981505065225064754,-28.643350525427,-0.984730572425509,123.620614235867
738280.39981514110695570707,-28.643350525427,-0.997039704580828,123.632923368023
738280.39981523156166076660,-28.6310413932717,-0.997039704580828,123.669850764489
738280.39981532201636582613,-28.643350525427,-1.00934883673615,123.657541632333
738280.39981541235465556383,-28.6187322611164,-1.00934883673615,123.694469028799
738280.39981550280936062336,-28.6310413932717,-0.997039704580828,123.669850764489
738280.39981559326406568289,-28.6187322611164,-0.984730572425509,123.71908729311
738280.39981568371877074242,-28.6310413932717,-0.997039704580828,123.682159896644
738280.39981577417347580194,-28.6310413932717,-0.984730572425509,123.657541632333
738280.39981586462818086147,-28.606423128961,-0.984730572425509,123.694469028799
738280.39981595508288592100,-28.6310413932717,-0.984730572425509,123.657541632333
738280.39981604553759098053,-28.6310413932717,-0.984730572425509,123.657541632333
738280.39981613587588071823,-28.6310413932717,-0.984730572425509,123.632923368023
738280.39981622633058577776,-28.6187322611164,-0.997039704580828,123.682159896644
738280.39981631678529083729,-28.6310413932717,-0.997039704580828,123.682159896644
738280.39981640723999589682,-28.643350525427,-0.984730572425509,123.657541632333
738280.39981649769470095634,-28.6310413932717,-0.960112308114872,123.657541632333
738280.39981658814940601587,-28.6310413932717,-0.984730572425509,123.645232500178
738280.39981667860411107540,-28.643350525427,-0.984730572425509,123.657541632333
738280.39981676905881613493,-28.6556596575823,-0.984730572425509,123.657541632333
738280.39981685951352119446,-28.6556596575823,-0.997039704580828,123.669850764489
738280.39981694985181093216,-28.6556596575823,-0.997039704580828,123.669850764489
738280.39981704030651599169,-28.643350525427,-1.00934883673615,123.71908729311
738280.39981713076122105122,-28.643350525427,-1.02165796889147,123.694469028799
738280.39981722121592611074,-28.643350525427,-0.997039704580828,123.706778160955
738280.39981731167063117027,-28.643350525427,-0.984730572425509,123.706778160955
738280.39981740212533622980,-28.6556596575823,-0.997039704580828,123.669850764489
738280.39981749258004128933,-28.6679687897376,-1.00934883673615,123.669850764489
738280.39981758303474634886,-28.606423128961,-1.03396710104678,123.706778160955
738280.39981767348945140839,-28.5448774681845,-1.02165796889147,123.682159896644
738280.39981776382774114609,-28.4464044109419,-0.861639250872321,123.71908729311
738280.39981785428244620562,-28.3971678823206,-0.738547929319132,123.694469028799
738280.39981794473715126514,-28.5202592038738,-0.603147475610625,123.694469028799
738280.39981803519185632467,-28.5571866003398,-0.800093590095726,123.645232500178
738280.39981812564656138420,-28.7295144505142,-0.984730572425509,123.780632953887
738280.39981821610126644373,-28.7910601112908,-1.0462762332021,123.879106011129
738280.39981830655597150326,-28.7541327148249,-1.05858536535742,123.817560350352
738280.39981839701067656279,-28.7172053183589,-1.05858536535742,123.756014689576
738280.39981848734896630049,-28.643350525427,-1.02165796889147,123.768323821731
738280.39981857780367136002,-28.6187322611164,-0.997039704580828,123.756014689576
738280.39981866825837641954,-28.6187322611164,-1.00934883673615,123.756014689576
738280.39981875871308147907,-28.606423128961,-1.00934883673615,123.768323821731
738280.39981884916778653860,-28.6310413932717,-1.00934883673615,123.706778160955
738280.39981893962249159813,-28.606423128961,-0.997039704580828,123.71908729311
738280.39981903007719665766,-28.6187322611164,-0.997039704580828,123.71908729311
738280.39981912053190171719,-28.606423128961,-0.997039704580828,123.706778160955
738280.39981921098660677671,-28.5941139968057,-0.997039704580828,123.71908729311
738280.39981930132489651442,-28.5818048646504,-0.997039704580828,123.756014689576
738280.39981939177960157394,-28.6310413932717,-0.972421440270191,123.669850764489
738280.39981948223430663347,-28.6310413932717,-0.997039704580828,123.657541632333
738280.39981957268901169300,-28.6310413932717,-0.972421440270191,123.645232500178
738280.39981966314371675253,-28.606423128961,-0.984730572425509,123.669850764489
738280.39981975359842181206,-28.6187322611164,-0.960112308114872,123.669850764489
738280.39981984405312687159,-28.5818048646504,-0.972421440270191,123.694469028799
738280.39981993450783193111,-28.5571866003398,-0.972421440270191,123.743705557421
738280.39982002484612166882,-28.5818048646504,-0.960112308114872,123.682159896644
738280.39982011530082672834,-28.5818048646504,-0.947803175959553,123.645232500178
738280.39982020575553178787,-28.5448774681845,-0.947803175959553,123.694469028799
738280.39982029621023684740,-28.5448774681845,-0.935494043804234,123.694469028799
738280.39982038666494190693,-28.5571866003398,-0.935494043804234,123.645232500178
738280.39982047711964696646,-28.5079500717185,-0.923184911648915,123.706778160955
738280.39982056757435202599,-28.5079500717185,-0.898566647338277,123.632923368023
738280.39982065802905708551,-28.4956409395632,-0.886257515182958,123.620614235867
738280.39982074848376214504,-28.4710226752525,-0.886257515182958,123.632923368023
738280.39982083882205188274,-28.4587135430972,-0.87394838302764,123.608305103712
738280.39982092927675694227,-28.4587135430972,-0.87394838302764,123.620614235867
738280.39982101973146200180,-28.4833318074079,-0.87394838302764,123.583686839401
738280.39982111018616706133,-28.4956409395632,-0.898566647338277,123.583686839401
738280.39982120064087212086,-28.5325683360291,-0.935494043804234,123.608305103712
738280.39982129109557718039,-28.5694957324951,-0.923184911648915,123.595995971557
738280.39982138155028223991,-28.6310413932717,-0.935494043804234,123.53445031078
738280.39982147200498729944,-28.6310413932717,-0.960112308114872,123.522141178625
738280.39982156245969235897,-28.643350525427,-0.984730572425509,123.559068575091
738280.39982165279798209667,-28.6310413932717,-0.984730572425509,123.583686839401
738280.39982174325268715620,-28.6679687897376,-0.972421440270191,123.53445031078
738280.39982183370739221573,-28.6679687897376,-0.984730572425509,123.53445031078
738280.39982192416209727526,-28.680277921893,-0.972421440270191,123.50983204647
738280.39982201461680233479,-28.7048961862036,-0.984730572425509,123.472904650004
738280.39982210507150739431,-28.7048961862036,-0.984730572425509,123.472904650004
738280.39982219552621245384,-28.7172053183589,-0.984730572425509,123.448286385693
738280.39982228598091751337,-28.7048961862036,-0.984730572425509,123.448286385693
738280.39982237631920725107,-28.6925870540483,-0.984730572425509,123.497522914314
738280.39982246677391231060,-28.6925870540483,-0.997039704580828,123.485213782159
738280.39982255722861737013,-28.7048961862036,-0.984730572425509,123.485213782159
738280.39982264768332242966,-28.680277921893,-0.984730572425509,123.50983204647
738280.39982273813802748919,-28.6679687897376,-0.984730572425509,123.559068575091
738280.39982282859273254871,-28.643350525427,-1.00934883673615,123.632923368023
738280.39982291904743760824,-28.6556596575823,-0.984730572425509,123.608305103712
738280.39982300950214266777,-28.6556596575823,-0.972421440270191,123.571377707246
738280.39982309995684772730,-28.680277921893,-0.984730572425509,123.546759442935
738280.39982319029513746500,-28.6925870540483,-0.984730572425509,123.497522914314
738280.39982328074984252453,-28.7295144505142,-0.984730572425509,123.411358989227
738280.39982337120454758406,-28.7295144505142,-0.972421440270191,123.399049857072
738280.39982346165925264359,-28.7541327148249,-0.972421440270191,123.32519506414
738280.39982355211395770311,-28.7910601112908,-0.972421440270191,123.263649403363
738280.39982364256866276264,-28.8156783756015,-0.984730572425509,123.189794610431
738280.39982373302336782217,-28.8156783756015,-0.972421440270191,123.177485478276
738280.39982382347807288170,-28.8526057720674,-0.997039704580828,123.091321553189
738280.39982391381636261940,-28.8526057720674,-0.972421440270191,123.079012421033
738280.39982400427106767893,-28.8402966399121,-0.972421440270191,123.079012421033
738280.39982409472577273846,-28.8279875077568,-0.984730572425509,123.115939817499
738280.39982418518047779799,-28.8279875077568,-0.984730572425509,123.128248949655
738280.39982427563518285751,-28.7910601112908,-0.997039704580828,123.251340271208
738280.39982436608988791704,-28.7664418469802,-0.984730572425509,123.312885931984
738280.39982445654459297657,-28.7541327148249,-0.984730572425509,123.34981332845
738280.39982454699929803610,-28.7172053183589,-0.997039704580828,123.423668121382
738280.39982463745400309563,-28.7048961862036,-0.984730572425509,123.423668121382
738280.39982472779229283333,-28.7048961862036,-0.984730572425509,123.435977253538
738280.39982481824699789286,-28.6925870540483,-0.984730572425509,123.472904650004
738280.39982490870170295238,-28.6925870540483,-0.972421440270191,123.448286385693
738280.39982499915640801191,-28.6925870540483,-0.972421440270191,123.460595517848
738280.39982508961111307144,-28.6556596575823,-0.972421440270191,123.53445031078
738280.39982518006581813097,-28.680277921893,-0.984730572425509,123.522141178625
738280.39982527052052319050,-28.680277921893,-0.984730572425509,123.559068575091
738280.39982536097522825003,-28.6925870540483,-0.984730572425509,123.53445031078
738280.39982545142993330956,-28.680277921893,-0.984730572425509,123.571377707246
738280.39982554176822304726,-28.6679687897376,-0.984730572425509,123.595995971557
738280.39982563222292810678,-28.643350525427,-0.984730572425509,123.669850764489
738280.39982572267763316631,-28.6310413932717,-0.984730572425509,123.731396425265
738280.39982581313233822584,-28.643350525427,-1.00934883673615,123.682159896644
738280.39982590358704328537,-28.6310413932717,-1.00934883673615,123.743705557421
738280.39982599404174834490,-28.6310413932717,-0.997039704580828,123.743705557421
738280.39982608449645340443,-28.6187322611164,-0.997039704580828,123.731396425265
738280.39982617495115846395,-28.6187322611164,-0.997039704580828,123.743705557421
738280.39982626528944820166,-28.606423128961,-0.997039704580828,123.756014689576
738280.39982635574415326118,-28.6310413932717,-1.03396710104678,123.71908729311
738280.39982644619885832071,-28.5571866003398,-1.02165796889147,123.706778160955
738280.39982653665356338024,-28.4956409395632,-0.923184911648915,123.706778160955
738280.39982662710826843977,-28.37254961801,-0.701620532853175,123.731396425265
738280.39982671756297349930,-28.4710226752525,-0.615456607765943,123.829869482508
738280.39982680801767855883,-28.5571866003398,-0.800093590095726,123.71908729311
738280.39982689847238361835,-28.7418235826696,-0.984730572425509,123.756014689576
738280.39982698892708867788,-28.8279875077568,-1.0462762332021,123.829869482508
738280.39982707926537841558,-28.7664418469802,-1.05858536535742,123.768323821731
738280.39982716972008347511,-28.7172053183589,-1.0462762332021,123.756014689576
738280.39982726017478853464,-28.6925870540483,-1.02165796889147,123.731396425265
738280.39982735062949359417,-28.643350525427,-0.997039704580828,123.682159896644
738280.39982744108419865370,-28.6310413932717,-0.997039704580828,123.71908729311
738280.39982753153890371323,-28.6310413932717,-0.997039704580828,123.669850764489
738280.39982762199360877275,-28.643350525427,-0.984730572425509,123.645232500178
738280.39982771244831383228,-28.643350525427,-0.984730572425509,123.645232500178
738280.39982780278660356998,-28.6310413932717,-0.984730572425509,123.669850764489
738280.39982789324130862951,-28.6310413932717,-0.997039704580828,123.669850764489
738280.39982798369601368904,-28.6310413932717,-0.997039704580828,123.657541632333
738280.39982807415071874857,-28.643350525427,-0.972421440270191,123.620614235867
738280.39982816460542380810,-28.6556596575823,-0.972421440270191,123.608305103712
738280.39982825506012886763,-28.643350525427,-0.972421440270191,123.571377707246
738280.39982834551483392715,-28.6679687897376,-0.972421440270191,123.522141178625
738280.39982843596953898668,-28.6925870540483,-0.972421440270191,123.472904650004
738280.39982852642424404621,-28.6679687897376,-0.972421440270191,123.522141178625
738280.39982861676253378391,-28.6556596575823,-0.972421440270191,123.522141178625
738280.39982870721723884344,-28.680277921893,-0.960112308114872,123.448286385693
738280.39982879767194390297,-28.680277921893,-0.947803175959553,123.399049857072
738280.39982888812664896250,-28.6925870540483,-0.935494043804234,123.362122460606
738280.39982897858135402203,-28.7172053183589,-0.923184911648915,123.251340271208
738280.39982906903605908155,-28.7172053183589,-0.923184911648915,123.202103742587
738280.39982915949076414108,-28.7172053183589,-0.898566647338277,123.202103742587
738280.39982924994546920061,-28.680277921893,-0.898566647338277,123.226722006897
738280.39982934040017426014,-28.6556596575823,-0.886257515182958,123.226722006897
738280.39982943073846399784,-28.6679687897376,-0.87394838302764,123.165176346121
738280.39982952119316905737,-28.6679687897376,-0.87394838302764,123.165176346121
738280.39982961164787411690,-28.6679687897376,-0.849330118717002,123.128248949655
738280.39982970210257917643,-28.6679687897376,-0.849330118717002,123.115939817499
738280.39982979255728423595,-28.680277921893,-0.849330118717002,123.066703288878
738280.39982988301198929548,-28.7295144505142,-0.861639250872321,123.005157628101
738280.39982997346669435501,-28.7664418469802,-0.87394838302764,122.943611967325
738280.39983006392139941454,-28.7787509791355,-0.886257515182958,122.980539363791
738280.39983015425968915224,-28.7787509791355,-0.910875779493596,123.079012421033
738280.39983024471439421177,-28.7664418469802,-0.935494043804234,123.177485478276
738280.39983033516909927130,-28.7541327148249,-0.947803175959553,123.226722006897
738280.39983042562380433083,-28.7664418469802,-0.960112308114872,123.239031139052
738280.39983051607850939035,-28.7541327148249,-0.972421440270191,123.275958535518
738280.39983060653321444988,-28.7664418469802,-0.960112308114872,123.300576799829
738280.39983069698791950941,-28.7664418469802,-0.972421440270191,123.312885931984
738280.39983078744262456894,-28.7664418469802,-0.984730572425509,123.32519506414
738280.39983087789732962847,-28.7541327148249,-0.984730572425509,123.337504196295
738280.39983096823561936617,-28.7418235826696,-0.960112308114872,123.374431592761
738280.39983105869032442570,-28.7418235826696,-0.972421440270191,123.374431592761
738280.39983114914502948523,-28.7541327148249,-0.984730572425509,123.362122460606
738280.39983123959973454475,-28.7295144505142,-0.984730572425509,123.399049857072
738280.39983133005443960428,-28.7295144505142,-0.960112308114872,123.399049857072
738280.39983142050914466381,-28.7418235826696,-0.984730572425509,123.423668121382
738280.39983151096384972334,-28.7295144505142,-0.972421440270191,123.435977253538
738280.39983160141855478287,-28.7295144505142,-0.960112308114872,123.411358989227
738280.39983169175684452057,-28.7172053183589,-0.972421440270191,123.435977253538
738280.39983178221154958010,-28.7295144505142,-0.972421440270191,123.423668121382
738280.39983187266625463963,-28.7418235826696,-0.960112308114872,123.423668121382
738280.39983196312095969915,-28.7541327148249,-0.960112308114872,123.411358989227
738280.39983205357566475868,-28.7295144505142,-0.972421440270191,123.448286385693
738280.39983214403036981821,-28.7048961862036,-0.984730572425509,123.497522914314
738280.39983223448507487774,-28.6925870540483,-0.984730572425509,123.571377707246
738280.39983232493977993727,-28.6925870540483,-0.972421440270191,123.559068575091
738280.39983241539448499680,-28.643350525427,-0.972421440270191,123.657541632333
738280.39983250573277473450,-28.6310413932717,-0.997039704580828,123.694469028799
738280.39983259618747979403,-28.643350525427,-0.984730572425509,123.706778160955
738280.39983268664218485355,-28.6556596575823,-0.984730572425509,123.682159896644
738280.39983277709688991308,-28.6310413932717,-0.984730572425509,123.71908729311
738280.39983286755159497261,-28.6187322611164,-0.984730572425509,123.756014689576
738280.39983295800630003214,-28.5941139968057,-0.984730572425509,123.805251218197
738280.39983304846100509167,-28.5941139968057,-0.984730572425509,123.792942086042
738280.39983313891571015120,-28.5941139968057,-0.972421440270191,123.805251218197
738280.39983322937041521072,-28.5818048646504,-0.997039704580828,123.817560350352
738280.39983331970870494843,-28.606423128961,-0.984730572425509,123.743705557421
