time_dn,ecg_projection_ll_ra_mV,ecg_projection_la_ra_mV,ecg_projection_vx_rl_mV
738332.45672281598672270775,5.29292682678711,3.01573737805312,336.014689575894
738332.45672290644142776728,5.29292682678711,3.01573737805312,335.817743461409
738332.45672299689613282681,5.30523595894243,3.01573737805312,335.903907386497
738332.45672308723442256451,5.30523595894243,3.02804651020844,335.965453047273
738332.45672317768912762403,5.30523595894243,3.02804651020844,336.002380443739
738332.45672326814383268356,5.30523595894243,3.02804651020844,336.002380443739
738332.45672335859853774309,5.30523595894243,3.02804651020844,335.977762179429
738332.45672344905324280262,5.30523595894243,3.02804651020844,335.990071311584
738332.45672353950794786215,5.30523595894243,3.02804651020844,336.014689575894
738332.45672362996265292168,5.30523595894243,3.01573737805312,336.02699870805
738332.45672372030094265938,5.30523595894243,3.02804651020844,335.953143915118
738332.45672381075564771891,5.29292682678711,3.01573737805312,336.014689575894
738332.45672390121035277843,5.29292682678711,3.01573737805312,336.05161697236
738332.45672399166505783796,5.28061769463179,3.01573737805312,335.916216518652
738332.45672408211976289749,5.26830856247648,3.0034282458978,336.014689575894
738332.45672417257446795702,5.23138116601052,2.96650084943185,336.039307840205
738332.45672426291275769472,5.31754509109775,3.05266477451908,335.990071311584
738332.45672435336746275425,5.30523595894243,3.05266477451908,336.014689575894
738332.45672444382216781378,5.24369029816584,3.0034282458978,336.05161697236
738332.45672453427687287331,5.25599943032116,2.97880998158717,336.002380443739
738332.45672462473157793283,5.29292682678711,3.01573737805312,335.977762179429
738332.45672471518628299236,5.24369029816584,2.97880998158717,336.014689575894
738332.45672480552457273006,5.28061769463179,2.99111911374248,335.965453047273
738332.45672489597927778959,5.37909075187434,3.11421043529567,335.891598254341
738332.45672498643398284912,5.25599943032116,2.99111911374248,335.903907386497
738332.45672507688868790865,5.23138116601052,2.95419171727653,335.928525650807
738332.45672516734339296818,5.23138116601052,2.96650084943185,335.940834782963
738332.45672525779809802771,5.29292682678711,3.02804651020844,335.953143915118
738332.45672534825280308723,5.26830856247648,3.01573737805312,335.965453047273
738332.45672543859109282494,5.30523595894243,3.02804651020844,335.928525650807
738332.45672552904579788446,5.25599943032116,2.99111911374248,335.953143915118
738332.45672561950050294399,5.28061769463179,3.0034282458978,335.953143915118
738332.45672570995520800352,5.30523595894243,3.04035564236376,335.990071311584
738332.45672580040991306305,5.26830856247648,3.0034282458978,336.002380443739
738332.45672589086461812258,5.32985422325307,3.05266477451908,335.928525650807
738332.45672598120290786028,5.32985422325307,3.05266477451908,335.965453047273
738332.45672607165761291981,5.28061769463179,3.0034282458978,335.990071311584
738332.45672616211231797934,5.26830856247648,3.0034282458978,336.014689575894
738332.45672625256702303886,5.26830856247648,3.01573737805312,336.014689575894
738332.45672634302172809839,5.28061769463179,3.01573737805312,335.965453047273
738332.45672643347643315792,5.28061769463179,3.02804651020844,335.830052593565
738332.45672652381472289562,5.29292682678711,3.04035564236376,335.903907386497
738332.45672661426942795515,5.28061769463179,3.04035564236376,335.965453047273
738332.45672670472413301468,5.29292682678711,3.04035564236376,336.014689575894
738332.45672679517883807421,5.29292682678711,3.05266477451908,335.990071311584
738332.45672688563354313374,5.30523595894243,3.04035564236376,335.953143915118
738332.45672697608824819326,5.26830856247648,3.02804651020844,335.977762179429
738332.45672706654295325279,5.25599943032116,3.0034282458978,336.02699870805
738332.45672715688124299049,5.30523595894243,3.04035564236376,336.05161697236
738332.45672724733594805002,5.35447248756371,3.07728303882972,335.965453047273
738332.45672733779065310955,5.32985422325307,3.02804651020844,336.014689575894
738332.45672742824535816908,5.37909075187434,3.0649739066744,335.965453047273
738332.45672751870006322861,5.36678161971903,3.05266477451908,335.879289122186
738332.45672760915476828814,5.37909075187434,3.08959217098504,336.002380443739
738332.45672769949305802584,5.37909075187434,3.10190130314035,336.02699870805
738332.45672778994776308537,5.36678161971903,3.11421043529567,335.977762179429
738332.45672788040246814489,5.35447248756371,3.08959217098504,335.965453047273
738332.45672797085717320442,5.31754509109775,3.0649739066744,336.02699870805
738332.45672806131187826395,5.28061769463179,3.04035564236376,336.02699870805
738332.45672815176658332348,5.28061769463179,3.05266477451908,335.940834782963
738332.45672824222128838301,5.25599943032116,3.02804651020844,336.05161697236
738332.45672833255957812071,5.28061769463179,3.04035564236376,336.014689575894
738332.45672842301428318024,5.24369029816584,3.01573737805312,335.977762179429
738332.45672851346898823977,5.25599943032116,3.04035564236376,336.02699870805
738332.45672860392369329929,5.26830856247648,3.04035564236376,336.076235236671
738332.45672869437839835882,5.26830856247648,3.0649739066744,335.953143915118
738332.45672878483310341835,5.25599943032116,3.07728303882972,335.940834782963
738332.45672887517139315605,5.26830856247648,3.07728303882972,335.953143915118
738332.45672896562609821558,5.4160181483403,3.12651956745099,335.953143915118
738332.45672905608080327511,5.63758252713604,3.29884741762546,335.928525650807
738332.45672914653550833464,5.92069256670838,3.42193873917865,335.743888668477
738332.45672923699021339417,5.94531083101901,3.32346568193609,335.620797346924
738332.45672932744491845369,5.18214463738924,2.65877254554888,335.706961272011
738332.45672941778320819139,4.88672546566159,2.48644469537441,335.866979990031
738332.45672950823791325092,4.87441633350627,2.69569994201483,336.002380443739
738332.45672959869261831045,4.97288939074882,2.85571866003398,336.162399161758
738332.45672968914732336998,5.03443505152542,2.94188258512121,336.260872219001
738332.45672977960202842951,5.16983550523392,3.04035564236376,336.150090029603
738332.45672987005673348904,5.2190720338552,3.05266477451908,336.162399161758
738332.45672996051143854856,5.18214463738924,2.97880998158717,335.953143915118
738332.45673005084972828627,5.2190720338552,3.0034282458978,335.891598254341
738332.45673014130443334579,5.23138116601052,3.0034282458978,335.953143915118
738332.45673023175913840532,5.26830856247648,3.02804651020844,335.953143915118
738332.45673032221384346485,5.26830856247648,3.02804651020844,336.05161697236
738332.45673041266854852438,5.29292682678711,3.04035564236376,336.02699870805
738332.45673050312325358391,5.29292682678711,3.04035564236376,336.014689575894
738332.45673059346154332161,5.30523595894243,3.05266477451908,336.039307840205
738332.45673068391624838114,5.32985422325307,3.07728303882972,335.977762179429
738332.45673077437095344067,5.31754509109775,3.0649739066744,335.928525650807
738332.45673086482565850019,5.29292682678711,3.02804651020844,335.965453047273
738332.45673095528036355972,5.34216335540839,3.0649739066744,335.965453047273
738332.45673104573506861925,5.46525467696158,3.16344696391695,336.002380443739
738332.45673113607335835695,5.36678161971903,3.08959217098504,335.990071311584
738332.45673122652806341648,5.40370901618498,3.10190130314035,335.977762179429
738332.45673131698276847601,5.4775638091169,3.17575609607227,335.965453047273
738332.45673140743747353554,5.53910946989349,3.21268349253822,336.014689575894
738332.45673149789217859507,5.53910946989349,3.20037436038291,336.002380443739
738332.45673158834688365459,5.60065513067009,3.23730175684886,335.965453047273
738332.45673167880158871412,5.62527339498072,3.24961088900418,335.977762179429
738332.45673176913987845182,5.62527339498072,3.24961088900418,335.965453047273
738332.45673185959458351135,5.66220079144668,3.27422915331482,335.866979990031
738332.45673195004928857088,5.68681905575732,3.27422915331482,335.977762179429
738332.45673204050399363041,5.64989165929136,3.24961088900418,335.965453047273
738332.45673213095869868994,5.63758252713604,3.2619200211595,335.916216518652
738332.45673222141340374947,5.62527339498072,3.2619200211595,335.977762179429
738332.45673231175169348717,5.57603686635945,3.22499262469354,336.014689575894
738332.45673240220639854670,5.52680033773817,3.21268349253822,336.002380443739
738332.45673249266110360622,5.55141860204881,3.23730175684886,336.002380443739
738332.45673258311580866575,5.51449120558285,3.21268349253822,336.063926104516
738332.45673267357051372528,5.44063641265094,3.16344696391695,336.039307840205
738332.45673276402521878481,5.40370901618498,3.13882869960631,335.965453047273
738332.45673285447992384434,5.40370901618498,3.12651956745099,335.965453047273
738332.45673294481821358204,5.36678161971903,3.11421043529567,335.977762179429
738332.45673303527291864157,5.26830856247648,3.01573737805312,335.990071311584
738332.45673312572762370110,5.29292682678711,3.02804651020844,335.965453047273
738332.45673321618232876062,5.26830856247648,3.0034282458978,335.953143915118
738332.45673330663703382015,5.26830856247648,3.0034282458978,335.990071311584
738332.45673339709173887968,5.25599943032116,2.99111911374248,335.965453047273
738332.45673348743002861738,5.25599943032116,2.97880998158717,335.830052593565
738332.45673357788473367691,5.26830856247648,3.0034282458978,335.891598254341
738332.45673366833943873644,5.25599943032116,2.97880998158717,336.002380443739
738332.45673375879414379597,5.20676290169988,2.95419171727653,335.990071311584
738332.45673384924884885550,5.32985422325307,3.07728303882972,335.990071311584
738332.45673393970355391502,5.24369029816584,2.99111911374248,335.940834782963
738332.45673403004184365273,5.23138116601052,2.97880998158717,335.977762179429
738332.45673412049654871225,5.24369029816584,2.99111911374248,335.953143915118
738332.45673421095125377178,5.26830856247648,3.0034282458978,335.990071311584
738332.45673430140595883131,5.30523595894243,3.04035564236376,335.916216518652
738332.45673439186066389084,5.2190720338552,2.95419171727653,335.965453047273
738332.45673448231536895037,5.20676290169988,2.94188258512121,335.953143915118
738332.45673457277007400990,5.25599943032116,2.99111911374248,335.928525650807
738332.45673466310836374760,5.31754509109775,3.05266477451908,335.965453047273
738332.45673475356306880713,5.20676290169988,2.95419171727653,335.990071311584
738332.45673484401777386665,5.2190720338552,2.95419171727653,335.977762179429
738332.45673493447247892618,5.23138116601052,2.99111911374248,335.940834782963
738332.45673502492718398571,5.28061769463179,3.02804651020844,336.014689575894
738332.45673511538188904524,5.23138116601052,2.95419171727653,335.977762179429
738332.45673520572017878294,5.24369029816584,2.99111911374248,335.940834782963
738332.45673529617488384247,5.2190720338552,2.97880998158717,335.977762179429
738332.45673538662958890200,5.26830856247648,3.01573737805312,335.965453047273
738332.45673547708429396152,5.23138116601052,2.97880998158717,335.953143915118
738332.45673556753899902105,5.2190720338552,2.96650084943185,336.002380443739
738332.45673565799370408058,5.23138116601052,2.97880998158717,336.014689575894
738332.45673574833199381828,5.25599943032116,3.0034282458978,335.990071311584
738332.45673583878669887781,5.23138116601052,2.96650084943185,336.014689575894
738332.45673592924140393734,5.23138116601052,2.97880998158717,335.977762179429
738332.45673601969610899687,5.20676290169988,2.96650084943185,336.05161697236
738332.45673611015081405640,5.24369029816584,2.99111911374248,335.990071311584
738332.45673620060551911592,5.29292682678711,3.04035564236376,336.014689575894
738332.45673629106022417545,5.26830856247648,3.01573737805312,336.039307840205
738332.45673638139851391315,5.20676290169988,2.95419171727653,336.002380443739
738332.45673647185321897268,5.2190720338552,2.95419171727653,335.990071311584
738332.45673656230792403221,5.23138116601052,2.97880998158717,335.977762179429
738332.45673665276262909174,5.24369029816584,2.99111911374248,336.014689575894
738332.45673674321733415127,5.25599943032116,2.99111911374248,336.002380443739
738332.45673683367203921080,5.25599943032116,2.99111911374248,336.014689575894
738332.45673692401032894850,5.24369029816584,3.0034282458978,335.916216518652
738332.45673701446503400803,5.23138116601052,2.99111911374248,335.793125197099
738332.45673710491973906755,5.26830856247648,3.01573737805312,335.793125197099
738332.45673719537444412708,5.25599943032116,2.99111911374248,335.928525650807
738332.45673728582914918661,5.26830856247648,2.97880998158717,335.866979990031
738332.45673737628385424614,5.30523595894243,3.01573737805312,335.903907386497
738332.45673746662214398384,5.37909075187434,3.04035564236376,335.879289122186
738332.45673755707684904337,5.32985422325307,3.01573737805312,335.928525650807
738332.45673764753155410290,5.34216335540839,3.04035564236376,335.916216518652
738332.45673773798625916243,5.31754509109775,3.02804651020844,335.965453047273
738332.45673782844096422195,5.28061769463179,3.0034282458978,335.965453047273
738332.45673791889566928148,5.26830856247648,3.0034282458978,335.977762179429
738332.45673800935037434101,5.24369029816584,2.97880998158717,335.953143915118
738332.45673809968866407871,5.14521724092329,2.89264605649993,335.977762179429
738332.45673819014336913824,5.16983550523392,2.91726432081057,335.916216518652
738332.45673828059807419777,5.26830856247648,3.02804651020844,335.903907386497
738332.45673837105277925730,5.13290810876797,2.89264605649993,335.940834782963
738332.45673846150748431683,5.15752637307861,2.91726432081057,335.990071311584
738332.45673855196218937635,5.19445376954456,2.94188258512121,335.953143915118
738332.45673864230047911406,5.19445376954456,2.94188258512121,335.953143915118
738332.45673873275518417358,5.16983550523392,2.94188258512121,335.990071311584
738332.45673882320988923311,5.18214463738924,2.99111911374248,335.977762179429
738332.45673891366459429264,5.2190720338552,2.99111911374248,336.039307840205
738332.45673900411929935217,5.35447248756371,3.02804651020844,335.953143915118
738332.45673909457400441170,5.69912818791264,3.27422915331482,335.84236172572
738332.45673918502870947123,5.85914690593178,3.21268349253822,335.65772474339
738332.45673927536699920893,5.55141860204881,2.8680277921893,335.571560818303
738332.45673936582170426846,4.99750765505946,2.44951729890845,335.694652139856
738332.45673945627640932798,4.80056154057436,2.49875382752973,335.891598254341
738332.45673954673111438751,4.81287067272968,2.69569994201483,336.088544368826
738332.45673963718581944704,4.93596199428287,2.83110039572334,336.100853500982
738332.45673972764052450657,5.0221259193701,2.92957345296589,336.21163569038
738332.45673981797881424427,5.14521724092329,3.01573737805312,336.23625395469
738332.45673990843351930380,5.19445376954456,3.02804651020844,336.137780897448
738332.45673999888822436333,5.20676290169988,3.01573737805312,336.088544368826
738332.45674008934292942286,5.24369029816584,3.01573737805312,336.039307840205
738332.45674017979763448238,5.26830856247648,3.01573737805312,336.039307840205
738332.45674027025233954191,5.28061769463179,3.01573737805312,336.002380443739
738332.45674036059062927961,5.25599943032116,2.99111911374248,335.977762179429
738332.45674045104533433914,5.36678161971903,3.08959217098504,336.05161697236
738332.45674054150003939867,5.28061769463179,3.0034282458978,335.940834782963
738332.45674063195474445820,5.28061769463179,3.0034282458978,335.793125197099
738332.45674072240944951773,5.30523595894243,3.02804651020844,335.965453047273
738332.45674081286415457726,5.31754509109775,3.04035564236376,336.002380443739
738332.45674090331885963678,5.35447248756371,3.07728303882972,335.928525650807
738332.45674099365714937449,5.34216335540839,3.04035564236376,336.002380443739
738332.45674108411185443401,5.37909075187434,3.0649739066744,335.990071311584
738332.45674117456655949354,5.37909075187434,3.0649739066744,335.977762179429
738332.45674126502126455307,5.42832728049562,3.11421043529567,335.903907386497
738332.45674135547596961260,5.45294554480626,3.10190130314035,335.940834782963
738332.45674144593067467213,5.46525467696158,3.10190130314035,335.953143915118
738332.45674153626896440983,5.50218207342753,3.11421043529567,335.84236172572
738332.45674162672366946936,5.52680033773817,3.13882869960631,335.891598254341
738332.45674171717837452888,5.57603686635945,3.16344696391695,335.830052593565
738332.45674180763307958841,5.53910946989349,3.13882869960631,335.879289122186
738332.45674189808778464794,5.53910946989349,3.13882869960631,335.866979990031
738332.45674198854248970747,5.50218207342753,3.08959217098504,335.817743461409
738332.45674207888077944517,5.56372773420413,3.13882869960631,335.854670857875
738332.45674216933548450470,5.48987294127221,3.08959217098504,335.866979990031
738332.45674225979018956423,5.39139988402966,3.0034282458978,335.830052593565
738332.45674235024489462376,5.35447248756371,2.99111911374248,335.866979990031
738332.45674244069959968328,5.31754509109775,2.97880998158717,335.866979990031
738332.45674253115430474281,5.29292682678711,2.97880998158717,335.866979990031
738332.45674262160900980234,5.28061769463179,2.96650084943185,335.903907386497
738332.45674271194729954004,5.25599943032116,2.96650084943185,335.965453047273
738332.45674280240200459957,5.23138116601052,2.95419171727653,335.928525650807
738332.45674289285670965910,5.23138116601052,2.94188258512121,335.953143915118
738332.45674298331141471863,5.24369029816584,2.95419171727653,335.965453047273
738332.45674307376611977816,5.20676290169988,2.92957345296589,335.916216518652
738332.45674316422082483768,5.23138116601052,2.94188258512121,335.940834782963
738332.45674325455911457539,5.2190720338552,2.92957345296589,335.953143915118
738332.45674334501381963491,5.18214463738924,2.90495518865525,335.965453047273
738332.45674343546852469444,5.20676290169988,2.91726432081057,336.002380443739
738332.45674352592322975397,5.2190720338552,2.94188258512121,336.014689575894
738332.45674361637793481350,5.20676290169988,2.91726432081057,335.990071311584
738332.45674370683263987303,5.20676290169988,2.92957345296589,335.965453047273
738332.45674379728734493256,5.19445376954456,2.92957345296589,335.928525650807
738332.45674388762563467026,5.25599943032116,2.97880998158717,335.916216518652
738332.45674397808033972979,5.20676290169988,2.92957345296589,335.940834782963
738332.45674406853504478931,5.23138116601052,2.95419171727653,335.879289122186
738332.45674415898974984884,5.20676290169988,2.92957345296589,335.879289122186
738332.45674424944445490837,5.23138116601052,2.95419171727653,336.014689575894
738332.45674433989915996790,5.24369029816584,2.96650084943185,335.903907386497
738332.45674443023744970560,5.23138116601052,2.95419171727653,335.990071311584
738332.45674452069215476513,5.23138116601052,2.96650084943185,336.02699870805
738332.45674461114685982466,5.2190720338552,2.95419171727653,335.990071311584
738332.45674470160156488419,5.25599943032116,2.97880998158717,335.965453047273
738332.45674479205626994371,5.23138116601052,2.95419171727653,336.002380443739
738332.45674488251097500324,5.26830856247648,3.0034282458978,336.002380443739
738332.45674497284926474094,5.23138116601052,2.96650084943185,335.916216518652
738332.45674506330396980047,5.18214463738924,2.90495518865525,336.014689575894
738332.45674515375867486000,5.19445376954456,2.92957345296589,335.990071311584
738332.45674524421337991953,5.2190720338552,2.96650084943185,335.916216518652
738332.45674533466808497906,5.2190720338552,2.95419171727653,335.990071311584
738332.45674542512279003859,5.20676290169988,2.96650084943185,336.002380443739
738332.45674551557749509811,5.19445376954456,2.92957345296589,336.002380443739
738332.45674560591578483582,5.23138116601052,2.96650084943185,335.916216518652
738332.45674569637048989534,5.23138116601052,2.96650084943185,335.990071311584
738332.45674578682519495487,5.15752637307861,2.90495518865525,336.014689575894
738332.45674587727990001440,5.15752637307861,2.90495518865525,335.916216518652
738332.45674596773460507393,5.2190720338552,2.96650084943185,335.990071311584
738332.45674605818931013346,5.2190720338552,2.95419171727653,335.990071311584
738332.45674614852759987116,5.15752637307861,2.91726432081057,335.928525650807
738332.45674623898230493069,5.19445376954456,2.92957345296589,335.891598254341
738332.45674632943700999022,5.19445376954456,2.94188258512121,335.903907386497
738332.45674641989171504974,5.19445376954456,2.94188258512121,335.903907386497
738332.45674651034642010927,5.19445376954456,2.94188258512121,335.84236172572
738332.45674660080112516880,5.2190720338552,2.95419171727653,335.903907386497
738332.45674669113941490650,5.16983550523392,2.91726432081057,335.965453047273
738332.45674678159411996603,5.16983550523392,2.91726432081057,335.940834782963
738332.45674687204882502556,5.23138116601052,2.94188258512121,335.953143915118
738332.45674696250353008509,5.24369029816584,2.95419171727653,335.965453047273
738332.45674705295823514462,5.24369029816584,2.92957345296589,335.953143915118
738332.45674714341294020414,5.29292682678711,2.96650084943185,335.940834782963
738332.45674723386764526367,5.29292682678711,2.96650084943185,335.965453047273
738332.45674732420593500137,5.30523595894243,3.0034282458978,335.953143915118
738332.45674741466064006090,5.30523595894243,3.01573737805312,335.903907386497
738332.45674750511534512043,5.25599943032116,2.99111911374248,335.940834782963
738332.45674759557005017996,5.23138116601052,2.94188258512121,335.916216518652
738332.45674768602475523949,5.24369029816584,2.96650084943185,335.780816064943
738332.45674777647946029902,5.12059897661265,2.88033692434461,335.891598254341
738332.45674786681775003672,5.12059897661265,2.89264605649993,335.965453047273
738332.45674795727245509624,5.15752637307861,2.94188258512121,335.953143915118
738332.45674804772716015577,5.09598071230201,2.89264605649993,335.940834782963
738332.45674813818186521530,5.10828984445733,2.89264605649993,335.916216518652
738332.45674822863657027483,5.12059897661265,2.89264605649993,335.965453047273
738332.45674831909127533436,5.14521724092329,2.91726432081057,336.02699870805
738332.45674840954598039389,5.10828984445733,2.88033692434461,336.05161697236
738332.45674849988427013159,5.12059897661265,2.92957345296589,335.940834782963
738332.45674859033897519112,5.14521724092329,2.91726432081057,336.05161697236
738332.45674868079368025064,5.34216335540839,3.02804651020844,336.05161697236
738332.45674877124838531017,5.6129642628254,3.22499262469354,335.928525650807
738332.45674886170309036970,5.80991037731051,3.20037436038291,335.706961272011
738332.45674895215779542923,5.46525467696158,2.8680277921893,335.694652139856
738332.45674904249608516693,4.88672546566159,2.40028077028718,335.793125197099
738332.45674913295079022646,4.73901587979776,2.48644469537441,335.965453047273
738332.45674922340549528599,4.80056154057436,2.68339080985951,336.076235236671
738332.45674931386020034552,4.83748893704032,2.72031820632547,336.150090029603
738332.45674940431490540504,4.93596199428287,2.84340952787866,336.21163569038
738332.45674949476961046457,5.12059897661265,2.99111911374248,336.21163569038
738332.45674958510790020227,5.10828984445733,2.91726432081057,336.150090029603
738332.45674967556260526180,5.14521724092329,2.92957345296589,336.088544368826
738332.45674976601731032133,5.20676290169988,2.95419171727653,335.977762179429
738332.45674985647201538086,5.18214463738924,2.94188258512121,335.953143915118
738332.45674994692672044039,5.19445376954456,2.95419171727653,335.891598254341
738332.45675003738142549992,5.20676290169988,2.95419171727653,335.891598254341
738332.45675012783613055944,5.2190720338552,2.96650084943185,335.916216518652
738332.45675021817442029715,5.23138116601052,2.97880998158717,335.928525650807
738332.45675030862912535667,5.24369029816584,2.99111911374248,335.903907386497
738332.45675039908383041620,5.24369029816584,2.97880998158717,335.953143915118
738332.45675048953853547573,5.25599943032116,2.97880998158717,335.928525650807
738332.45675057999324053526,5.31754509109775,3.04035564236376,335.903907386497
738332.45675067044794559479,5.31754509109775,3.02804651020844,335.940834782963
738332.45675076078623533249,5.30523595894243,3.01573737805312,335.854670857875
738332.45675085124094039202,5.29292682678711,2.99111911374248,335.879289122186
738332.45675094169564545155,5.34216335540839,3.02804651020844,335.866979990031
738332.45675103215035051107,5.37909075187434,3.05266477451908,335.866979990031
738332.45675112260505557060,5.40370901618498,3.0649739066744,335.830052593565
738332.45675121305976063013,5.46525467696158,3.11421043529567,335.694652139856
738332.45675130339805036783,5.44063641265094,3.07728303882972,335.854670857875
738332.45675139385275542736,5.52680033773817,3.15113783176163,335.879289122186
738332.45675148430746048689,5.4775638091169,3.07728303882972,335.916216518652
738332.45675157476216554642,5.46525467696158,3.07728303882972,335.817743461409
738332.45675166521687060595,5.46525467696158,3.05266477451908,335.866979990031
738332.45675175567157566547,5.45294554480626,3.0649739066744,335.903907386497
738332.45675184612628072500,5.40370901618498,3.0034282458978,335.916216518652
738332.45675193646457046270,5.36678161971903,3.02804651020844,335.84236172572
738332.45675202691927552223,5.32985422325307,3.04035564236376,335.879289122186
738332.45675211737398058176,5.28061769463179,2.88033692434461,335.928525650807
738332.45675220782868564129,5.25599943032116,2.97880998158717,335.940834782963
738332.45675229828339070082,5.20676290169988,2.94188258512121,335.990071311584
738332.45675238873809576035,5.19445376954456,2.92957345296589,335.977762179429
738332.45675247907638549805,5.19445376954456,2.94188258512121,335.928525650807
738332.45675256953109055758,5.18214463738924,2.91726432081057,336.039307840205
738332.45675265998579561710,5.19445376954456,2.90495518865525,336.014689575894
738332.45675275044050067663,5.20676290169988,2.88033692434461,335.965453047273
738332.45675284089520573616,5.14521724092329,2.8680277921893,335.940834782963
738332.45675293134991079569,5.16983550523392,2.90495518865525,335.965453047273
738332.45675302168820053339,5.15752637307861,2.90495518865525,335.965453047273
738332.45675311214290559292,5.15752637307861,2.89264605649993,335.977762179429
738332.45675320259761065245,5.18214463738924,2.90495518865525,335.977762179429
738332.45675329305231571198,5.16983550523392,2.89264605649993,336.002380443739
738332.45675338350702077150,5.14521724092329,2.8680277921893,336.02699870805
738332.45675347396172583103,5.19445376954456,2.90495518865525,335.940834782963
738332.45675356441643089056,5.18214463738924,2.88033692434461,335.990071311584
738332.45675365475472062826,5.16983550523392,2.8680277921893,335.990071311584
738332.45675374520942568779,5.19445376954456,2.90495518865525,335.965453047273
738332.45675383566413074732,5.19445376954456,2.90495518865525,335.990071311584
738332.45675392611883580685,5.18214463738924,2.90495518865525,336.014689575894
738332.45675401657354086637,5.19445376954456,2.92957345296589,336.002380443739
738332.45675410702824592590,5.15752637307861,2.89264605649993,335.953143915118
738332.45675419736653566360,5.20676290169988,2.91726432081057,335.977762179429
738332.45675428782124072313,5.23138116601052,2.92957345296589,336.02699870805
738332.45675437827594578266,5.23138116601052,2.90495518865525,335.928525650807
738332.45675446873065084219,5.18214463738924,2.94188258512121,335.953143915118
738332.45675455918535590172,5.19445376954456,2.91726432081057,335.879289122186
738332.45675464964006096125,5.18214463738924,2.91726432081057,335.694652139856
738332.45675474009476602077,5.18214463738924,2.90495518865525,335.805434329254
738332.45675483043305575848,5.18214463738924,2.89264605649993,335.916216518652
738332.45675492088776081800,5.18214463738924,2.88033692434461,335.903907386497
738332.45675501134246587753,5.20676290169988,2.91726432081057,335.817743461409
738332.45675510179717093706,5.16983550523392,2.85571866003398,335.805434329254
738332.45675519225187599659,5.15752637307861,2.8680277921893,335.916216518652
738332.45675528270658105612,5.15752637307861,2.88033692434461,335.879289122186
738332.45675537304487079382,5.15752637307861,2.8680277921893,335.854670857875
738332.45675546349957585335,5.13290810876797,2.84340952787866,335.916216518652
738332.45675555395428091288,5.15752637307861,2.8680277921893,335.928525650807
738332.45675564440898597240,5.14521724092329,2.8680277921893,335.891598254341
738332.45675573486369103193,5.13290810876797,2.85571866003398,335.903907386497
738332.45675582531839609146,5.14521724092329,2.90495518865525,335.866979990031
738332.45675591565668582916,5.13290810876797,2.8680277921893,335.928525650807
738332.45675600611139088869,5.13290810876797,2.88033692434461,335.940834782963
738332.45675609656609594822,5.16983550523392,2.89264605649993,335.940834782963
738332.45675618702080100775,5.12059897661265,2.88033692434461,335.965453047273
738332.45675627747550606728,5.13290810876797,2.8680277921893,336.014689575894
738332.45675636793021112680,5.14521724092329,2.88033692434461,335.977762179429
738332.45675645838491618633,5.16983550523392,2.8680277921893,335.953143915118
738332.45675654872320592403,5.19445376954456,2.89264605649993,335.965453047273
738332.45675663917791098356,5.2190720338552,2.90495518865525,335.866979990031
738332.45675672963261604309,5.24369029816584,2.94188258512121,335.866979990031
738332.45675682008732110262,5.23138116601052,2.92957345296589,335.953143915118
738332.45675691054202616215,5.24369029816584,2.95419171727653,336.014689575894
738332.45675700099673122168,5.30523595894243,3.01573737805312,335.903907386497
738332.45675709133502095938,5.18214463738924,2.92957345296589,335.990071311584
738332.45675718178972601891,5.15752637307861,2.88033692434461,335.977762179429
738332.45675727224443107843,5.13290810876797,2.85571866003398,335.990071311584
738332.45675736269913613796,5.10828984445733,2.88033692434461,336.002380443739
738332.45675745315384119749,5.09598071230201,2.92957345296589,336.014689575894
738332.45675754360854625702,5.10828984445733,2.91726432081057,336.063926104516
738332.45675763394683599472,5.10828984445733,2.92957345296589,335.990071311584
738332.45675772440154105425,5.12059897661265,2.91726432081057,336.014689575894
738332.45675781485624611378,5.10828984445733,2.90495518865525,336.039307840205
738332.45675790531095117331,5.12059897661265,2.89264605649993,335.940834782963
738332.45675799576565623283,5.12059897661265,2.88033692434461,336.039307840205
738332.45675808622036129236,5.08367158014669,2.95419171727653,336.05161697236
738332.45675817667506635189,5.15752637307861,2.97880998158717,335.866979990031
738332.45675826701335608959,5.36678161971903,3.10190130314035,335.928525650807
738332.45675835746806114912,5.6129642628254,3.28653828547014,335.817743461409
738332.45675844792276620865,5.78529211299987,3.27422915331482,335.620797346924
738332.45675853837747126818,5.63758252713604,3.11421043529567,335.546942553992
738332.45675862883217632771,5.09598071230201,2.62184514908292,335.596179082614
738332.45675871928688138723,4.7636341441084,2.40028077028718,335.694652139856
738332.45675880962517112494,4.77594327626372,2.63415428123824,335.977762179429
738332.45675890007987618446,4.87441633350627,2.76955473494675,336.05161697236
738332.45675899053458124399,4.94827112643818,2.81879126356802,336.100853500982
738332.45675908098928630352,5.08367158014669,2.91726432081057,336.088544368826
738332.45675917144399136305,5.15752637307861,3.02804651020844,336.014689575894
738332.45675926189869642258,5.10828984445733,2.90495518865525,335.953143915118
738332.45675935235340148211,5.15752637307861,2.95419171727653,335.903907386497
738332.45675944269169121981,5.18214463738924,2.96650084943185,335.953143915118
738332.45675953314639627934,5.19445376954456,2.96650084943185,335.940834782963
738332.45675962360110133886,5.18214463738924,2.94188258512121,335.940834782963
738332.45675971405580639839,5.20676290169988,2.97880998158717,335.953143915118
738332.45675980451051145792,5.23138116601052,3.0034282458978,335.953143915118
738332.45675989496521651745,5.24369029816584,2.99111911374248,335.866979990031
738332.45675998530350625515,5.25599943032116,2.97880998158717,335.990071311584
738332.45676007575821131468,5.23138116601052,2.99111911374248,335.990071311584
738332.45676016621291637421,5.28061769463179,3.01573737805312,335.953143915118
738332.45676025666762143373,5.29292682678711,3.02804651020844,335.866979990031
738332.45676034712232649326,5.31754509109775,3.0649739066744,335.84236172572
738332.45676043757703155279,5.30523595894243,3.05266477451908,335.916216518652
738332.45676052791532129049,5.34216335540839,3.08959217098504,335.940834782963
738332.45676061837002635002,5.35447248756371,3.07728303882972,335.903907386497
738332.45676070882473140955,5.39139988402966,3.08959217098504,335.965453047273
738332.45676079927943646908,5.42832728049562,3.13882869960631,335.953143915118
738332.45676088973414152861,5.46525467696158,3.15113783176163,335.854670857875
738332.45676098018884658813,5.4775638091169,3.12651956745099,335.854670857875
738332.45676107064355164766,5.4775638091169,3.16344696391695,335.903907386497
738332.45676116098184138536,5.46525467696158,3.13882869960631,335.916216518652
738332.45676125143654644489,5.4775638091169,3.12651956745099,335.940834782963
738332.45676134189125150442,5.4160181483403,3.04035564236376,335.903907386497
738332.45676143234595656395,5.37909075187434,3.04035564236376,335.940834782963
738332.45676152280066162348,5.34216335540839,3.04035564236376,335.940834782963
738332.45676161325536668301,5.31754509109775,3.01573737805312,335.891598254341
738332.45676170359365642071,5.25599943032116,3.0034282458978,335.768506932788
738332.45676179404836148024,5.23138116601052,2.92957345296589,335.84236172572
738332.45676188450306653976,5.19445376954456,2.94188258512121,335.990071311584
738332.45676197495777159929,5.19445376954456,2.95419171727653,335.977762179429
738332.45676206541247665882,5.16983550523392,2.90495518865525,335.940834782963
738332.45676215586718171835,5.18214463738924,2.92957345296589,335.879289122186
738332.45676224620547145605,5.18214463738924,2.94188258512121,335.916216518652
738332.45676233666017651558,5.18214463738924,2.91726432081057,335.891598254341
738332.45676242711488157511,5.14521724092329,2.89264605649993,335.891598254341
738332.45676251756958663464,5.15752637307861,2.91726432081057,335.891598254341
738332.45676260802429169416,5.14521724092329,2.90495518865525,335.891598254341
738332.45676269847899675369,5.14521724092329,2.88033692434461,335.977762179429
738332.45676278893370181322,5.16983550523392,2.90495518865525,335.916216518652
738332.45676287927199155092,5.15752637307861,2.89264605649993,335.866979990031
738332.45676296972669661045,5.14521724092329,2.91726432081057,335.928525650807
738332.45676306018140166998,5.15752637307861,2.92957345296589,335.916216518652
738332.45676315063610672951,5.16983550523392,2.90495518865525,335.916216518652
738332.45676324109081178904,5.18214463738924,2.94188258512121,335.965453047273
738332.45676333154551684856,5.18214463738924,2.92957345296589,336.002380443739
738332.45676342188380658627,5.18214463738924,2.92957345296589,335.891598254341
738332.45676351233851164579,5.18214463738924,2.95419171727653,335.916216518652
738332.45676360279321670532,5.19445376954456,2.94188258512121,335.928525650807
738332.45676369324792176485,5.19445376954456,2.95419171727653,335.953143915118
738332.45676378370262682438,5.19445376954456,2.95419171727653,335.903907386497
738332.45676387415733188391,5.18214463738924,2.95419171727653,335.916216518652
738332.45676396461203694344,5.19445376954456,2.95419171727653,335.965453047273
738332.45676405495032668114,5.16983550523392,2.91726432081057,335.928525650807
738332.45676414540503174067,5.18214463738924,2.94188258512121,335.965453047273
738332.45676423585973680019,5.18214463738924,2.92957345296589,335.928525650807
738332.45676432631444185972,5.18214463738924,2.92957345296589,335.866979990031
738332.45676441676914691925,5.15752637307861,2.92957345296589,335.977762179429
738332.45676450722385197878,5.18214463738924,2.94188258512121,335.928525650807
738332.45676459756214171648,5.15752637307861,2.91726432081057,335.940834782963
738332.45676468801684677601,5.15752637307861,2.91726432081057,335.940834782963
738332.45676477847155183554,5.15752637307861,2.91726432081057,335.990071311584
738332.45676486892625689507,5.15752637307861,2.91726432081057,335.903907386497
738332.45676495938096195459,5.15752637307861,2.91726432081057,335.977762179429
738332.45676504983566701412,5.15752637307861,2.94188258512121,335.977762179429
738332.45676514017395675182,5.15752637307861,2.90495518865525,335.965453047273
738332.45676523062866181135,5.14521724092329,2.92957345296589,335.756197800633
738332.45676532108336687088,5.15752637307861,2.92957345296589,335.854670857875
738332.45676541153807193041,5.12059897661265,2.90495518865525,335.990071311584
738332.45676550199277698994,5.14521724092329,2.91726432081057,335.965453047273
738332.45676559244748204947,5.14521724092329,2.91726432081057,335.965453047273
738332.45676568290218710899,5.15752637307861,2.92957345296589,335.965453047273
738332.45676577324047684669,5.19445376954456,2.94188258512121,336.002380443739
738332.45676586369518190622,5.2190720338552,2.92957345296589,335.903907386497
738332.45676595414988696575,5.23138116601052,2.91726432081057,335.916216518652
738332.45676604460459202528,5.26830856247648,2.97880998158717,335.965453047273
738332.45676613505929708481,5.23138116601052,2.99111911374248,335.928525650807
738332.45676622551400214434,5.24369029816584,2.99111911374248,335.965453047273
738332.45676631585229188204,5.24369029816584,3.0034282458978,335.953143915118
738332.45676640630699694157,5.19445376954456,2.96650084943185,335.940834782963
738332.45676649676170200109,5.15752637307861,2.92957345296589,335.940834782963
738332.45676658721640706062,5.13290810876797,2.90495518865525,336.002380443739
738332.45676667767111212015,5.12059897661265,2.90495518865525,335.977762179429
738332.45676676812581717968,5.15752637307861,2.92957345296589,335.953143915118
738332.45676685846410691738,5.08367158014669,2.88033692434461,336.002380443739
738332.45676694891881197691,5.09598071230201,2.88033692434461,335.879289122186
738332.45676703937351703644,5.10828984445733,2.90495518865525,335.817743461409
738332.45676712982822209597,5.08367158014669,2.89264605649993,335.928525650807
738332.45676722028292715549,5.09598071230201,2.88033692434461,335.916216518652
738332.45676731073763221502,5.08367158014669,2.89264605649993,335.953143915118
738332.45676740119233727455,5.10828984445733,2.92957345296589,336.100853500982
738332.45676749153062701225,5.24369029816584,2.97880998158717,336.02699870805
738332.45676758198533207178,5.46525467696158,3.22499262469354,335.965453047273
738332.45676767244003713131,5.71143732006795,3.31115654978078,335.706961272011
738332.45676776289474219084,5.57603686635945,3.08959217098504,335.608488214769
738332.45676785334944725037,5.31754509109775,2.85571866003398,335.546942553992
738332.45676794380415230989,4.81287067272968,2.3510442416659,335.706961272011
738332.45676803414244204760,4.7636341441084,2.48644469537441,335.928525650807
738332.45676812459714710712,4.825179804885,2.70800907417015,336.014689575894
738332.45676821505185216665,4.92365286212755,2.84340952787866,336.137780897448
738332.45676830550655722618,4.97288939074882,2.89264605649993,336.187017426069
738332.45676839596126228571,5.07136244799137,2.95419171727653,336.125471765292
738332.45676848641596734524,5.10828984445733,2.91726432081057,336.05161697236
738332.45676857675425708294,5.14521724092329,2.95419171727653,335.965453047273
738332.45676866720896214247,5.14521724092329,2.95419171727653,336.014689575894
738332.45676875766366720200,5.16983550523392,2.97880998158717,335.780816064943
738332.45676884811837226152,5.16983550523392,2.94188258512121,335.830052593565
738332.45676893857307732105,5.18214463738924,2.94188258512121,335.953143915118
738332.45676902902778238058,5.18214463738924,2.96650084943185,335.879289122186
738332.45676911948248744011,5.23138116601052,3.01573737805312,335.903907386497
738332.45676920982077717781,5.20676290169988,2.96650084943185,335.928525650807
738332.45676930027548223734,5.2190720338552,2.99111911374248,335.866979990031
738332.45676939073018729687,5.24369029816584,3.01573737805312,335.854670857875
738332.45676948118489235640,5.25599943032116,3.0034282458978,335.916216518652
738332.45676957163959741592,5.28061769463179,3.02804651020844,335.866979990031
738332.45676966209430247545,5.28061769463179,3.02804651020844,335.866979990031
738332.45676975243259221315,5.32985422325307,3.05266477451908,335.805434329254
738332.45676984288729727268,5.34216335540839,3.05266477451908,335.891598254341
738332.45676993334200233221,5.36678161971903,3.07728303882972,335.940834782963
738332.45677002379670739174,5.42832728049562,3.13882869960631,335.830052593565
738332.45677011425141245127,5.44063641265094,3.13882869960631,335.903907386497
738332.45677020470611751080,5.46525467696158,3.15113783176163,335.940834782963
738332.45677029516082257032,5.45294554480626,3.12651956745099,335.84236172572
738332.45677038549911230803,5.4775638091169,3.13882869960631,335.903907386497
738332.45677047595381736755,5.45294554480626,3.11421043529567,335.903907386497
738332.45677056640852242708,5.44063641265094,3.08959217098504,335.940834782963
738332.45677065686322748661,5.40370901618498,3.04035564236376,335.866979990031
738332.45677074731793254614,5.34216335540839,3.01573737805312,335.916216518652
738332.45677083777263760567,5.30523595894243,3.0034282458978,335.928525650807
738332.45677092811092734337,5.30523595894243,3.0034282458978,335.854670857875
738332.45677101856563240290,5.24369029816584,2.94188258512121,335.953143915118
738332.45677110902033746243,5.19445376954456,2.90495518865525,335.990071311584
738332.45677119947504252195,5.19445376954456,2.91726432081057,335.866979990031
738332.45677128992974758148,5.19445376954456,2.94188258512121,335.940834782963
738332.45677138038445264101,5.16983550523392,2.90495518865525,335.916216518652
738332.45677147072274237871,5.16983550523392,2.89264605649993,335.879289122186
738332.45677156117744743824,5.16983550523392,2.89264605649993,335.903907386497
738332.45677165163215249777,5.14521724092329,2.89264605649993,335.928525650807
738332.45677174208685755730,5.15752637307861,2.89264605649993,335.903907386497
738332.45677183254156261683,5.18214463738924,2.92957345296589,335.854670857875
738332.45677192299626767635,5.13290810876797,2.8680277921893,335.879289122186
738332.45677201345097273588,5.14521724092329,2.88033692434461,335.940834782963
738332.45677210378926247358,5.16983550523392,2.88033692434461,335.916216518652
738332.45677219424396753311,5.18214463738924,2.90495518865525,335.953143915118
738332.45677228469867259264,5.18214463738924,2.90495518865525,335.768506932788
738332.45677237515337765217,5.16983550523392,2.90495518865525,335.768506932788
738332.45677246560808271170,5.18214463738924,2.92957345296589,335.903907386497
738332.45677255606278777122,5.18214463738924,2.91726432081057,335.916216518652
738332.45677264640107750893,5.18214463738924,2.94188258512121,335.866979990031
738332.45677273685578256845,5.18214463738924,2.94188258512121,335.928525650807
738332.45677282731048762798,5.18214463738924,2.92957345296589,335.965453047273
738332.45677291776519268751,5.19445376954456,2.94188258512121,335.916216518652
738332.45677300821989774704,5.19445376954456,2.92957345296589,335.891598254341
738332.45677309867460280657,5.16983550523392,2.91726432081057,335.830052593565
738332.45677318901289254427,5.19445376954456,2.91726432081057,335.84236172572
738332.45677327946759760380,5.19445376954456,2.94188258512121,335.854670857875
738332.45677336992230266333,5.16983550523392,2.90495518865525,335.879289122186
738332.45677346037700772285,5.18214463738924,2.94188258512121,335.854670857875
738332.45677355083171278238,5.16983550523392,2.91726432081057,335.84236172572
738332.45677364128641784191,5.20676290169988,2.96650084943185,335.866979990031
738332.45677373174112290144,5.15752637307861,2.91726432081057,335.879289122186
738332.45677382207941263914,5.18214463738924,2.94188258512121,335.891598254341
738332.45677391253411769867,5.13290810876797,2.89264605649993,335.940834782963
738332.45677400298882275820,5.18214463738924,2.94188258512121,335.965453047273
738332.45677409344352781773,5.14521724092329,2.89264605649993,335.866979990031
738332.45677418389823287725,5.18214463738924,2.89264605649993,335.940834782963
738332.45677427435293793678,5.18214463738924,2.91726432081057,335.965453047273
738332.45677436469122767448,5.15752637307861,2.92957345296589,335.891598254341
738332.45677445514593273401,5.16983550523392,2.92957345296589,335.940834782963
738332.45677454560063779354,5.18214463738924,2.94188258512121,335.965453047273
738332.45677463605534285307,5.15752637307861,2.91726432081057,335.953143915118
738332.45677472651004791260,5.16983550523392,2.91726432081057,335.903907386497
738332.45677481696475297213,5.16983550523392,2.90495518865525,335.953143915118
738332.45677490741945803165,5.16983550523392,2.92957345296589,335.965453047273
738332.45677499775774776936,5.18214463738924,2.92957345296589,335.940834782963
738332.45677508821245282888,5.18214463738924,2.92957345296589,335.953143915118
738332.45677517866715788841,5.19445376954456,2.92957345296589,335.977762179429
738332.45677526912186294794,5.19445376954456,2.91726432081057,335.940834782963
738332.45677535957656800747,5.25599943032116,2.96650084943185,335.879289122186
738332.45677545003127306700,5.25599943032116,2.92957345296589,335.916216518652
738332.45677554036956280470,5.24369029816584,2.92957345296589,335.903907386497
738332.45677563082426786423,5.26830856247648,3.01573737805312,335.903907386497
738332.45677572127897292376,5.30523595894243,3.05266477451908,335.916216518652
738332.45677581173367798328,5.23138116601052,3.0034282458978,335.854670857875
738332.45677590218838304281,5.19445376954456,2.94188258512121,335.768506932788
738332.45677599264308810234,5.19445376954456,2.95419171727653,335.916216518652
738332.45677608298137784004,5.16983550523392,2.92957345296589,335.977762179429
738332.45677617343608289957,5.13290810876797,2.91726432081057,335.965453047273
738332.45677626389078795910,5.13290810876797,2.91726432081057,335.916216518652
738332.45677635434549301863,5.13290810876797,2.90495518865525,335.977762179429
738332.45677644480019807816,5.14521724092329,2.91726432081057,335.977762179429
738332.45677653525490313768,5.13290810876797,2.89264605649993,335.879289122186
738332.45677662570960819721,5.14521724092329,2.89264605649993,335.965453047273
738332.45677671604789793491,5.13290810876797,2.91726432081057,335.891598254341
738332.45677680650260299444,5.12059897661265,2.96650084943185,335.891598254341
738332.45677689695730805397,5.19445376954456,2.96650084943185,335.940834782963
738332.45677698741201311350,5.31754509109775,3.01573737805312,335.903907386497
738332.45677707786671817303,5.42832728049562,3.16344696391695,335.866979990031
738332.45677716832142323256,5.68681905575732,3.34808394624673,335.731579536322
738332.45677725865971297026,5.73605558437859,3.29884741762546,335.534633421837
738332.45677734911441802979,5.28061769463179,2.79417299925738,335.63310647908
738332.45677743956912308931,4.86210720135095,2.38797163813186,335.743888668477
738332.45677753002382814884,4.81287067272968,2.57260862046164,335.928525650807
738332.45677762047853320837,4.87441633350627,2.73262733848079,336.125471765292
738332.45677771093323826790,4.97288939074882,2.8680277921893,336.076235236671
738332.45677780127152800560,5.05905331583605,2.91726432081057,336.113162633137
738332.45677789172623306513,5.12059897661265,2.97880998158717,336.100853500982
738332.45677798218093812466,5.15752637307861,2.96650084943185,336.014689575894
738332.45677807263564318419,5.18214463738924,2.91726432081057,335.879289122186
738332.45677816309034824371,5.2190720338552,2.97880998158717,335.953143915118
738332.45677825354505330324,5.19445376954456,2.94188258512121,336.02699870805
738332.45677834399975836277,5.20676290169988,2.99111911374248,335.940834782963
738332.45677843433804810047,5.2190720338552,2.97880998158717,335.990071311584
738332.45677852479275316000,5.23138116601052,2.97880998158717,335.965453047273
738332.45677861524745821953,5.25599943032116,2.99111911374248,335.854670857875
738332.45677870570216327906,5.25599943032116,2.99111911374248,335.854670857875
738332.45677879615686833858,5.29292682678711,3.01573737805312,335.84236172572
738332.45677888661157339811,5.30523595894243,3.01573737805312,335.854670857875
738332.45677897694986313581,5.30523595894243,3.01573737805312,335.805434329254
738332.45677906740456819534,5.32985422325307,3.05266477451908,335.854670857875
738332.45677915785927325487,5.32985422325307,3.05266477451908,335.903907386497
738332.45677924831397831440,5.35447248756371,3.05266477451908,335.879289122186
738332.45677933876868337393,5.37909075187434,3.07728303882972,335.84236172572
738332.45677942922338843346,5.45294554480626,3.15113783176163,335.780816064943
738332.45677951967809349298,5.45294554480626,3.11421043529567,335.830052593565
738332.45677961001638323069,5.48987294127221,3.15113783176163,335.805434329254
738332.45677970047108829021,5.48987294127221,3.12651956745099,335.719270404167
738332.45677979092579334974,5.51449120558285,3.15113783176163,335.84236172572
738332.45677988138049840927,5.51449120558285,3.13882869960631,335.84236172572
738332.45677997183520346880,5.4775638091169,3.10190130314035,335.854670857875
738332.45678006228990852833,5.45294554480626,3.08959217098504,335.805434329254
738332.45678015262819826603,5.44063641265094,3.05266477451908,335.830052593565
738332.45678024308290332556,5.37909075187434,3.05266477451908,335.891598254341
738332.45678033353760838509,5.34216335540839,3.02804651020844,335.903907386497
738332.45678042399231344461,5.32985422325307,3.0034282458978,335.903907386497
738332.45678051444701850414,5.28061769463179,2.97880998158717,335.940834782963
738332.45678060490172356367,5.24369029816584,2.95419171727653,335.879289122186
738332.45678069524001330137,5.24369029816584,2.95419171727653,335.903907386497
738332.45678078569471836090,5.24369029816584,2.96650084943185,335.916216518652
738332.45678087614942342043,5.23138116601052,2.91726432081057,335.903907386497
738332.45678096660412847996,5.20676290169988,2.8680277921893,335.940834782963
738332.45678105705883353949,5.2190720338552,2.96650084943185,335.940834782963
738332.45678114751353859901,5.20676290169988,2.95419171727653,335.866979990031
738332.45678123796824365854,5.18214463738924,2.91726432081057,335.940834782963
738332.45678132830653339624,5.19445376954456,2.90495518865525,335.965453047273
738332.45678141876123845577,5.20676290169988,2.90495518865525,335.916216518652
738332.45678150921594351530,5.2190720338552,2.90495518865525,335.903907386497
738332.45678159967064857483,5.20676290169988,2.90495518865525,335.854670857875
738332.45678169012535363436,5.20676290169988,2.91726432081057,335.879289122186
738332.45678178058005869389,5.23138116601052,2.95419171727653,335.891598254341
738332.45678187091834843159,5.23138116601052,2.94188258512121,335.891598254341
738332.45678196137305349112,5.23138116601052,2.92957345296589,335.891598254341
738332.45678205182775855064,5.23138116601052,2.92957345296589,335.891598254341
738332.45678214228246361017,5.23138116601052,2.95419171727653,335.940834782963
738332.45678223273716866970,5.23138116601052,2.95419171727653,335.928525650807
738332.45678232319187372923,5.24369029816584,2.97880998158717,335.977762179429
738332.45678241353016346693,5.24369029816584,2.96650084943185,335.879289122186
738332.45678250398486852646,5.24369029816584,2.96650084943185,335.903907386497
738332.45678259443957358599,5.25599943032116,2.95419171727653,335.953143915118
738332.45678268489427864552,5.26830856247648,2.97880998158717,335.928525650807
738332.45678277534898370504,5.26830856247648,2.97880998158717,335.866979990031
738332.45678286580368876457,5.25599943032116,2.97880998158717,335.805434329254
738332.45678295625839382410,5.23138116601052,2.97880998158717,335.768506932788
738332.45678304659668356180,5.24369029816584,2.96650084943185,335.866979990031
738332.45678313705138862133,5.24369029816584,2.96650084943185,335.940834782963
738332.45678322750609368086,5.24369029816584,2.96650084943185,335.928525650807
738332.45678331796079874039,5.19445376954456,2.91726432081057,335.977762179429
738332.45678340841550379992,5.20676290169988,2.94188258512121,335.965453047273
738332.45678349887020885944,5.2190720338552,2.91726432081057,335.916216518652
738332.45678358920849859715,5.20676290169988,2.92957345296589,335.953143915118
738332.45678367966320365667,5.2190720338552,2.92957345296589,335.977762179429
738332.45678377011790871620,5.20676290169988,2.96650084943185,335.866979990031
738332.45678386057261377573,5.20676290169988,2.95419171727653,335.953143915118
738332.45678395102731883526,5.20676290169988,2.94188258512121,335.903907386497
738332.45678404148202389479,5.2190720338552,2.95419171727653,335.891598254341
738332.45678413182031363249,5.19445376954456,2.94188258512121,335.928525650807
738332.45678422227501869202,5.19445376954456,2.92957345296589,335.916216518652
738332.45678431272972375154,5.20676290169988,2.88033692434461,335.854670857875
738332.45678440318442881107,5.2190720338552,2.91726432081057,335.854670857875
738332.45678449363913387060,5.2190720338552,2.95419171727653,335.928525650807
738332.45678458409383893013,5.20676290169988,2.95419171727653,335.928525650807
738332.45678467454854398966,5.24369029816584,2.96650084943185,335.891598254341
738332.45678476488683372736,5.25599943032116,2.95419171727653,335.891598254341
738332.45678485534153878689,5.29292682678711,2.97880998158717,335.928525650807
738332.45678494579624384642,5.30523595894243,2.96650084943185,335.866979990031
738332.45678503625094890594,5.32985422325307,2.99111911374248,335.84236172572
738332.45678512670565396547,5.29292682678711,2.96650084943185,335.879289122186
738332.45678521716035902500,5.30523595894243,3.02804651020844,335.854670857875
738332.45678530749864876270,5.25599943032116,2.99111911374248,335.916216518652
738332.45678539795335382223,5.25599943032116,2.99111911374248,335.953143915118
738332.45678548840805888176,5.23138116601052,2.95419171727653,335.928525650807
738332.45678557886276394129,5.18214463738924,2.91726432081057,335.977762179429
738332.45678566931746900082,5.23138116601052,2.96650084943185,335.953143915118
738332.45678575977217406034,5.18214463738924,2.92957345296589,335.977762179429
738332.45678585022687911987,5.16983550523392,2.89264605649993,336.002380443739
738332.45678594056516885757,5.15752637307861,2.90495518865525,335.903907386497
738332.45678603101987391710,5.15752637307861,2.91726432081057,336.014689575894
738332.45678612147457897663,5.18214463738924,2.92957345296589,336.014689575894
738332.45678621192928403616,5.15752637307861,2.95419171727653,335.953143915118
738332.45678630238398909569,5.15752637307861,2.96650084943185,335.977762179429
738332.45678639283869415522,5.19445376954456,2.94188258512121,335.928525650807
738332.45678648317698389292,5.36678161971903,3.05266477451908,335.756197800633
738332.45678657363168895245,5.63758252713604,3.29884741762546,335.928525650807
738332.45678666408639401197,5.78529211299987,3.27422915331482,335.768506932788
738332.45678675454109907150,5.52680033773817,2.91726432081057,335.706961272011
738332.45678684499580413103,4.97288939074882,2.4125899024425,335.719270404167
738332.45678693545050919056,4.86210720135095,2.47413556321909,335.903907386497
738332.45678702578879892826,4.81287067272968,2.65877254554888,336.100853500982
738332.45678711624350398779,4.87441633350627,2.76955473494675,336.174708293914
738332.45678720669820904732,4.97288939074882,2.88033692434461,336.137780897448
738332.45678729715291410685,5.07136244799137,2.96650084943185,336.248563086845
738332.45678738760761916637,5.16983550523392,3.02804651020844,336.199326558224
738332.45678747806232422590,5.19445376954456,3.0034282458978,336.088544368826
738332.45678756851702928543,5.2190720338552,2.97880998158717,336.05161697236
738332.45678765885531902313,5.24369029816584,2.99111911374248,335.990071311584
738332.45678774931002408266,5.24369029816584,2.99111911374248,335.891598254341
738332.45678783976472914219,5.28061769463179,2.97880998158717,335.84236172572
738332.45678793021943420172,5.26830856247648,2.95419171727653,335.854670857875
738332.45678802067413926125,5.28061769463179,3.01573737805312,335.854670857875
738332.45678811112884432077,5.28061769463179,3.0034282458978,335.866979990031
738332.45678820146713405848,5.29292682678711,3.0034282458978,335.903907386497
738332.45678829192183911800,5.32985422325307,3.01573737805312,335.866979990031
738332.45678838237654417753,5.30523595894243,3.0034282458978,335.879289122186
738332.45678847283124923706,5.32985422325307,3.02804651020844,335.879289122186
738332.45678856328595429659,5.37909075187434,3.07728303882972,335.891598254341
738332.45678865374065935612,5.39139988402966,3.04035564236376,335.866979990031
738332.45678874407894909382,5.4160181483403,3.05266477451908,335.854670857875
738332.45678883453365415335,5.46525467696158,3.08959217098504,335.854670857875
738332.45678892498835921288,5.46525467696158,3.15113783176163,335.940834782963
738332.45678901544306427240,5.51449120558285,3.18806522822759,335.965453047273
738332.45678910589776933193,5.55141860204881,3.18806522822759,335.953143915118
738332.45678919635247439146,5.57603686635945,3.18806522822759,335.854670857875
738332.45678928680717945099,5.56372773420413,3.16344696391695,335.928525650807
738332.45678937714546918869,5.52680033773817,3.13882869960631,335.953143915118
738332.45678946760017424822,5.51449120558285,3.10190130314035,335.793125197099
738332.45678955805487930775,5.50218207342753,3.08959217098504,335.891598254341
738332.45678964850958436728,5.44063641265094,3.0649739066744,335.940834782963
738332.45678973896428942680,5.39139988402966,3.01573737805312,335.940834782963
738332.45678982941899448633,5.36678161971903,2.99111911374248,335.928525650807
738332.45678991975728422403,5.31754509109775,3.0034282458978,335.682343007701
738332.45679001021198928356,5.30523595894243,3.0034282458978,335.694652139856
738332.45679010066669434309,5.29292682678711,2.96650084943185,335.953143915118
738332.45679019112139940262,5.28061769463179,2.95419171727653,335.903907386497
738332.45679028157610446215,5.23138116601052,2.91726432081057,335.879289122186
738332.45679037203080952168,5.24369029816584,2.94188258512121,335.953143915118
738332.45679046248551458120,5.2190720338552,2.89264605649993,335.940834782963
738332.45679055282380431890,5.23138116601052,2.90495518865525,335.928525650807
738332.45679064327850937843,5.20676290169988,2.8680277921893,335.928525650807
738332.45679073373321443796,5.23138116601052,2.85571866003398,335.854670857875
738332.45679082418791949749,5.20676290169988,2.92957345296589,335.903907386497
738332.45679091464262455702,5.2190720338552,2.94188258512121,336.002380443739
738332.45679100509732961655,5.23138116601052,2.91726432081057,336.02699870805
738332.45679109543561935425,5.23138116601052,2.91726432081057,335.965453047273
738332.45679118589032441378,5.2190720338552,2.90495518865525,335.965453047273
738332.45679127634502947330,5.24369029816584,2.90495518865525,335.977762179429
738332.45679136679973453283,5.23138116601052,2.89264605649993,336.002380443739
738332.45679145725443959236,5.25599943032116,2.90495518865525,335.891598254341
738332.45679154770914465189,5.24369029816584,2.94188258512121,335.953143915118
738332.45679163804743438959,5.23138116601052,2.94188258512121,336.002380443739
738332.45679172850213944912,5.25599943032116,2.94188258512121,335.916216518652
738332.45679181895684450865,5.25599943032116,2.92957345296589,335.977762179429
738332.45679190941154956818,5.24369029816584,2.92957345296589,335.965453047273
738332.45679199986625462770,5.29292682678711,2.97880998158717,335.977762179429
738332.45679209032095968723,5.26830856247648,2.92957345296589,335.891598254341
738332.45679218077566474676,5.24369029816584,2.92957345296589,335.990071311584
738332.45679227111395448446,5.24369029816584,2.92957345296589,335.990071311584
738332.45679236156865954399,5.23138116601052,2.91726432081057,335.891598254341
738332.45679245202336460352,5.23138116601052,2.91726432081057,335.953143915118
738332.45679254247806966305,5.23138116601052,2.92957345296589,335.805434329254
738332.45679263293277472258,5.23138116601052,2.94188258512121,335.916216518652
738332.45679272338747978210,5.24369029816584,2.96650084943185,335.953143915118
738332.45679281372576951981,5.2190720338552,2.89264605649993,335.891598254341
738332.45679290418047457933,5.24369029816584,2.90495518865525,335.903907386497
738332.45679299463517963886,5.20676290169988,2.94188258512121,335.891598254341
738332.45679308508988469839,5.23138116601052,2.89264605649993,335.928525650807
738332.45679317554458975792,5.23138116601052,2.88033692434461,335.854670857875
738332.45679326599929481745,5.23138116601052,2.91726432081057,335.84236172572
738332.45679335633758455515,5.20676290169988,2.88033692434461,335.953143915118
738332.45679344679228961468,5.25599943032116,2.95419171727653,335.84236172572
738332.45679353724699467421,5.28061769463179,2.92957345296589,335.854670857875
738332.45679362770169973373,5.29292682678711,2.92957345296589,335.903907386497
738332.45679371815640479326,5.30523595894243,2.91726432081057,335.866979990031
738332.45679380861110985279,5.31754509109775,2.92957345296589,335.903907386497
738332.45679389906581491232,5.32985422325307,2.94188258512121,335.903907386497
738332.45679398940410465002,5.30523595894243,2.94188258512121,335.928525650807
738332.45679407985880970955,5.31754509109775,2.99111911374248,335.977762179429
738332.45679417031351476908,5.28061769463179,2.90495518865525,335.977762179429
738332.45679426076821982861,5.20676290169988,2.91726432081057,335.866979990031
738332.45679435122292488813,5.20676290169988,2.91726432081057,335.965453047273
738332.45679444167762994766,5.20676290169988,2.91726432081057,336.02699870805
738332.45679453201591968536,5.18214463738924,2.89264605649993,336.05161697236
738332.45679462247062474489,5.18214463738924,2.89264605649993,335.953143915118
738332.45679471292532980442,5.16983550523392,2.89264605649993,335.891598254341
738332.45679480338003486395,5.19445376954456,2.8680277921893,335.965453047273
738332.45679489383473992348,5.18214463738924,2.88033692434461,335.977762179429
738332.45679498428944498301,5.18214463738924,2.88033692434461,335.928525650807
738332.45679507474415004253,5.16983550523392,2.88033692434461,336.039307840205
738332.45679516508243978024,5.18214463738924,2.96650084943185,336.125471765292
738332.45679525553714483976,5.35447248756371,2.99111911374248,336.076235236671
738332.45679534599184989929,5.58834599851477,3.16344696391695,335.953143915118
738332.45679543644655495882,5.82221950946582,3.20037436038291,335.805434329254
738332.45679552690126001835,5.68681905575732,2.96650084943185,335.670033875546
738332.45679561735596507788,5.40370901618498,2.74493647063611,335.706961272011
738332.45679570769425481558,4.88672546566159,2.3510442416659,335.84236172572
738332.45679579814895987511,4.78825240841904,2.49875382752973,336.002380443739
738332.45679588860366493464,4.81287067272968,2.68339080985951,336.150090029603
738332.45679597905836999416,4.93596199428287,2.76955473494675,336.187017426069
738332.45679606951307505369,5.05905331583605,2.90495518865525,336.162399161758
738332.45679615996778011322,5.14521724092329,2.90495518865525,336.174708293914
738332.45679625030606985092,5.16983550523392,2.96650084943185,336.076235236671
738332.45679634076077491045,5.2190720338552,2.97880998158717,336.02699870805
738332.45679643121547996998,5.25599943032116,2.96650084943185,335.928525650807
738332.45679652167018502951,5.25599943032116,2.96650084943185,335.940834782963
738332.45679661212489008904,5.26830856247648,2.95419171727653,335.940834782963
738332.45679670257959514856,5.25599943032116,2.94188258512121,335.928525650807
738332.45679679303430020809,5.29292682678711,2.97880998158717,335.928525650807
738332.45679688337258994579,5.28061769463179,2.95419171727653,335.953143915118
738332.45679697382729500532,5.29292682678711,2.96650084943185,335.793125197099
738332.45679706428200006485,5.32985422325307,3.0034282458978,335.817743461409
738332.45679715473670512438,5.34216335540839,2.99111911374248,335.990071311584
738332.45679724519141018391,5.35447248756371,2.99111911374248,335.990071311584
738332.45679733564611524343,5.36678161971903,3.01573737805312,335.903907386497
738332.45679742598440498114,5.37909075187434,3.04035564236376,335.903907386497
738332.45679751643911004066,5.40370901618498,3.04035564236376,335.891598254341
738332.45679760689381510019,5.46525467696158,3.10190130314035,335.866979990031
738332.45679769734852015972,5.46525467696158,3.07728303882972,335.866979990031
738332.45679778780322521925,5.4775638091169,3.10190130314035,335.928525650807
738332.45679787825793027878,5.51449120558285,3.10190130314035,335.953143915118
738332.45679796859622001648,5.53910946989349,3.10190130314035,335.817743461409
738332.45679805905092507601,5.56372773420413,3.12651956745099,335.805434329254
738332.45679814950563013554,5.56372773420413,3.11421043529567,335.866979990031
738332.45679823996033519506,5.56372773420413,3.11421043529567,335.854670857875
738332.45679833041504025459,5.52680033773817,3.10190130314035,335.916216518652
738332.45679842086974531412,5.48987294127221,3.0649739066744,335.84236172572
738332.45679851132445037365,5.44063641265094,3.04035564236376,335.879289122186
738332.45679860166274011135,5.39139988402966,2.99111911374248,335.891598254341
738332.45679869211744517088,5.35447248756371,2.97880998158717,335.928525650807
738332.45679878257215023041,5.30523595894243,2.97880998158717,335.977762179429
738332.45679887302685528994,5.29292682678711,2.95419171727653,335.990071311584
738332.45679896348156034946,5.26830856247648,2.92957345296589,335.903907386497
738332.45679905393626540899,5.26830856247648,2.95419171727653,335.940834782963
738332.45679914427455514669,5.24369029816584,2.94188258512121,335.940834782963
738332.45679923472926020622,5.25599943032116,2.94188258512121,335.940834782963
738332.45679932518396526575,5.24369029816584,2.92957345296589,335.940834782963
738332.45679941563867032528,5.23138116601052,2.89264605649993,336.02699870805
738332.45679950609337538481,5.28061769463179,2.94188258512121,336.014689575894
738332.45679959654808044434,5.20676290169988,2.90495518865525,335.940834782963
738332.45679968688637018204,5.23138116601052,2.89264605649993,336.002380443739
738332.45679977734107524157,5.2190720338552,2.89264605649993,335.965453047273
738332.45679986779578030109,5.23138116601052,2.92957345296589,335.965453047273
738332.45679995825048536062,5.23138116601052,2.91726432081057,336.014689575894
738332.45680004870519042015,5.24369029816584,2.91726432081057,336.02699870805
738332.45680013915989547968,5.24369029816584,2.88033692434461,335.928525650807
738332.45680022961460053921,5.25599943032116,2.94188258512121,335.965453047273
738332.45680031995289027691,5.25599943032116,2.91726432081057,336.002380443739
738332.45680041040759533644,5.28061769463179,2.99111911374248,335.940834782963
738332.45680050086230039597,5.24369029816584,2.96650084943185,335.830052593565
738332.45680059131700545549,5.29292682678711,2.97880998158717,335.903907386497
738332.45680068177171051502,5.28061769463179,2.95419171727653,335.977762179429
738332.45680077222641557455,5.28061769463179,2.97880998158717,335.928525650807
738332.45680086256470531225,5.28061769463179,2.94188258512121,335.879289122186
738332.45680095301941037178,5.28061769463179,2.95419171727653,335.903907386497
738332.45680104347411543131,5.26830856247648,2.97880998158717,335.817743461409
738332.45680113392882049084,5.26830856247648,2.95419171727653,335.805434329254
738332.45680122438352555037,5.26830856247648,2.94188258512121,335.817743461409
738332.45680131483823060989,5.26830856247648,2.95419171727653,335.903907386497
738332.45680140529293566942,5.28061769463179,3.01573737805312,336.014689575894
738332.45680149563122540712,5.26830856247648,2.97880998158717,336.02699870805
738332.45680158608593046665,5.25599943032116,2.96650084943185,335.977762179429
738332.45680167654063552618,5.25599943032116,2.96650084943185,335.990071311584
738332.45680176699534058571,5.26830856247648,2.95419171727653,335.977762179429
738332.45680185745004564524,5.28061769463179,2.94188258512121,335.928525650807
738332.45680194790475070477,5.25599943032116,2.90495518865525,335.928525650807
738332.45680203824304044247,5.24369029816584,2.96650084943185,335.928525650807
738332.45680212869774550200,5.23138116601052,2.92957345296589,335.990071311584
738332.45680221915245056152,5.2190720338552,2.92957345296589,335.903907386497
738332.45680230960715562105,5.25599943032116,2.92957345296589,335.977762179429
738332.45680240006186068058,5.28061769463179,2.97880998158717,336.002380443739
738332.45680249051656574011,5.23138116601052,2.92957345296589,335.965453047273
738332.45680258085485547781,5.24369029816584,2.92957345296589,336.014689575894
738332.45680267130956053734,5.24369029816584,2.91726432081057,335.953143915118
738332.45680276176426559687,5.28061769463179,2.91726432081057,335.891598254341
738332.45680285221897065639,5.30523595894243,2.91726432081057,335.903907386497
738332.45680294267367571592,5.30523595894243,2.94188258512121,335.84236172572
738332.45680303312838077545,5.30523595894243,2.97880998158717,335.817743461409
738332.45680312358308583498,5.31754509109775,2.94188258512121,335.84236172572
738332.45680321392137557268,5.34216335540839,3.0034282458978,336.076235236671
738332.45680330437608063221,5.34216335540839,3.05266477451908,335.990071311584
738332.45680339483078569174,5.30523595894243,2.99111911374248,335.977762179429
738332.45680348528549075127,5.30523595894243,2.97880998158717,335.965453047273
738332.45680357574019581079,5.28061769463179,2.95419171727653,335.990071311584
738332.45680366619490087032,5.20676290169988,2.90495518865525,336.063926104516
738332.45680375653319060802,5.20676290169988,2.89264605649993,336.014689575894
738332.45680384698789566755,5.18214463738924,2.8680277921893,335.891598254341
738332.45680393744260072708,5.2190720338552,2.91726432081057,335.940834782963
738332.45680402789730578661,5.20676290169988,2.90495518865525,335.805434329254
738332.45680411835201084614,5.19445376954456,2.89264605649993,335.805434329254
738332.45680420880671590567,5.18214463738924,2.88033692434461,335.903907386497
738332.45680429914500564337,5.20676290169988,2.92957345296589,336.014689575894
738332.45680438959971070290,5.15752637307861,2.91726432081057,336.05161697236
738332.45680448005441576242,5.23138116601052,2.96650084943185,336.137780897448
738332.45680457050912082195,5.44063641265094,3.05266477451908,336.063926104516
738332.45680466096382588148,5.674509923602,3.22499262469354,336.014689575894
738332.45680475141853094101,5.92069256670838,3.24961088900418,335.743888668477
738332.45680484187323600054,5.674509923602,2.97880998158717,335.620797346924
738332.45680493221152573824,5.36678161971903,2.74493647063611,335.756197800633
738332.45680502266623079777,4.91134372997223,2.43720816675314,335.879289122186
738332.45680511312093585730,4.87441633350627,2.57260862046164,336.02699870805
738332.45680520357564091682,4.94827112643818,2.70800907417015,336.113162633137
738332.45680529403034597635,5.00981678721478,2.88033692434461,336.125471765292
738332.45680538448505103588,5.10828984445733,2.92957345296589,336.187017426069
738332.45680547482334077358,5.26830856247648,3.01573737805312,336.125471765292
738332.45680556527804583311,5.25599943032116,2.96650084943185,336.088544368826
738332.45680565573275089264,5.24369029816584,2.95419171727653,336.039307840205
738332.45680574618745595217,5.25599943032116,2.96650084943185,336.002380443739
738332.45680583664216101170,5.29292682678711,2.97880998158717,335.990071311584
738332.45680592709686607122,5.29292682678711,2.96650084943185,335.965453047273
738332.45680601755157113075,5.29292682678711,2.97880998158717,335.965453047273
738332.45680610788986086845,5.31754509109775,2.99111911374248,336.002380443739
738332.45680619834456592798,5.32985422325307,2.99111911374248,335.940834782963
738332.45680628879927098751,5.32985422325307,2.96650084943185,335.977762179429
738332.45680637925397604704,5.34216335540839,2.96650084943185,335.977762179429
738332.45680646970868110657,5.37909075187434,3.02804651020844,335.990071311584
738332.45680656016338616610,5.35447248756371,3.04035564236376,336.014689575894
738332.45680665050167590380,5.37909075187434,3.04035564236376,336.014689575894
738332.45680674095638096333,5.40370901618498,3.04035564236376,335.916216518652
738332.45680683141108602285,5.44063641265094,3.05266477451908,335.953143915118
738332.45680692186579108238,5.46525467696158,3.0649739066744,335.953143915118
738332.45680701232049614191,5.51449120558285,3.12651956745099,335.990071311584
738332.45680710277520120144,5.53910946989349,3.10190130314035,335.990071311584
738332.45680719311349093914,5.56372773420413,3.12651956745099,335.940834782963
738332.45680728356819599867,5.57603686635945,3.16344696391695,335.879289122186
738332.45680737402290105820,5.60065513067009,3.15113783176163,335.916216518652
738332.45680746447760611773,5.58834599851477,3.12651956745099,335.965453047273
738332.45680755493231117725,5.58834599851477,3.15113783176163,335.879289122186
738332.45680764538701623678,5.53910946989349,3.10190130314035,335.768506932788
738332.45680773584172129631,5.51449120558285,3.08959217098504,335.916216518652
738332.45680782618001103401,5.46525467696158,3.0649739066744,335.965453047273
738332.45680791663471609354,5.42832728049562,3.01573737805312,336.002380443739
738332.45680800708942115307,5.39139988402966,3.01573737805312,336.014689575894
738332.45680809754412621260,5.34216335540839,2.99111911374248,336.002380443739
738332.45680818799883127213,5.32985422325307,2.99111911374248,335.977762179429
738332.45680827845353633165,5.32985422325307,2.96650084943185,336.02699870805
738332.45680836879182606936,5.30523595894243,2.94188258512121,336.076235236671
738332.45680845924653112888,5.28061769463179,2.95419171727653,336.014689575894
738332.45680854970123618841,5.29292682678711,2.94188258512121,336.02699870805
738332.45680864015594124794,5.29292682678711,2.94188258512121,336.076235236671
738332.45680873061064630747,5.29292682678711,2.95419171727653,336.05161697236
738332.45680882106535136700,5.28061769463179,2.92957345296589,335.990071311584
738332.45680891140364110470,5.31754509109775,2.96650084943185,336.02699870805
738332.45680900185834616423,5.26830856247648,2.90495518865525,335.953143915118
738332.45680909231305122375,5.28061769463179,2.94188258512121,335.916216518652
738332.45680918276775628328,5.26830856247648,2.90495518865525,335.879289122186
738332.45680927322246134281,5.29292682678711,2.94188258512121,335.916216518652
738332.45680936367716640234,5.26830856247648,2.92957345296589,335.953143915118
738332.45680945413187146187,5.28061769463179,2.92957345296589,335.940834782963
738332.45680954447016119957,5.30523595894243,2.95419171727653,335.953143915118
738332.45680963492486625910,5.29292682678711,2.94188258512121,335.928525650807
738332.45680972537957131863,5.29292682678711,2.95419171727653,335.928525650807
738332.45680981583427637815,5.30523595894243,2.95419171727653,335.928525650807
738332.45680990628898143768,5.29292682678711,2.94188258512121,335.953143915118
738332.45680999674368649721,5.32985422325307,2.95419171727653,335.965453047273
738332.45681008708197623491,5.30523595894243,2.91726432081057,335.940834782963
738332.45681017753668129444,5.32985422325307,2.97880998158717,335.953143915118
738332.45681026799138635397,5.29292682678711,2.96650084943185,335.928525650807
738332.45681035844609141350,5.32985422325307,2.99111911374248,336.002380443739
738332.45681044890079647303,5.32985422325307,2.97880998158717,336.02699870805
738332.45681053935550153255,5.31754509109775,2.94188258512121,336.014689575894
738332.45681062981020659208,5.31754509109775,2.96650084943185,335.977762179429
738332.45681072014849632978,5.31754509109775,2.96650084943185,335.977762179429
738332.45681081060320138931,5.31754509109775,2.95419171727653,335.977762179429
738332.45681090105790644884,5.30523595894243,2.94188258512121,336.002380443739
738332.45681099151261150837,5.28061769463179,2.94188258512121,336.02699870805
738332.45681108196731656790,5.31754509109775,2.96650084943185,335.793125197099
738332.45681117242202162743,5.29292682678711,2.95419171727653,335.854670857875
738332.45681126276031136513,5.31754509109775,2.99111911374248,335.940834782963
738332.45681135321501642466,5.25599943032116,2.90495518865525,335.965453047273
738332.45681144366972148418,5.29292682678711,2.94188258512121,335.990071311584
738332.45681153412442654371,5.29292682678711,2.95419171727653,336.014689575894
738332.45681162457913160324,5.30523595894243,2.96650084943185,335.965453047273
738332.45681171503383666277,5.28061769463179,2.95419171727653,336.014689575894
738332.45681180537212640047,5.26830856247648,2.94188258512121,336.02699870805
738332.45681189582683146000,5.31754509109775,2.92957345296589,336.039307840205
738332.45681198628153651953,5.29292682678711,2.95419171727653,335.965453047273
738332.45681207673624157906,5.26830856247648,2.95419171727653,336.039307840205
738332.45681216719094663858,5.31754509109775,3.0034282458978,336.063926104516
738332.45681225764565169811,5.25599943032116,2.92957345296589,336.02699870805
738332.45681234810035675764,5.26830856247648,2.91726432081057,336.05161697236
738332.45681243843864649534,5.26830856247648,2.94188258512121,336.02699870805
738332.45681252889335155487,5.30523595894243,2.96650084943185,336.05161697236
738332.45681261934805661440,5.28061769463179,2.94188258512121,335.990071311584
738332.45681270980276167393,5.28061769463179,2.94188258512121,336.014689575894
738332.45681280025746673346,5.28061769463179,2.94188258512121,336.063926104516
738332.45681289071217179298,5.29292682678711,2.90495518865525,335.990071311584
738332.45681298105046153069,5.29292682678711,2.97880998158717,336.014689575894
738332.45681307150516659021,5.32985422325307,2.99111911374248,336.014689575894
738332.45681316195987164974,5.34216335540839,2.97880998158717,335.977762179429
738332.45681325241457670927,5.36678161971903,2.97880998158717,335.891598254341
738332.45681334286928176880,5.37909075187434,2.95419171727653,335.879289122186
738332.45681343332398682833,5.37909075187434,2.99111911374248,335.84236172572
738332.45681352366227656603,5.37909075187434,3.01573737805312,335.854670857875
738332.45681361411698162556,5.35447248756371,3.01573737805312,335.891598254341
738332.45681370457168668509,5.32985422325307,2.97880998158717,335.940834782963
738332.45681379502639174461,5.29292682678711,2.95419171727653,335.903907386497
738332.45681388548109680414,5.25599943032116,2.94188258512121,335.965453047273
738332.45681397593580186367,5.25599943032116,2.92957345296589,336.002380443739
738332.45681406639050692320,5.25599943032116,2.95419171727653,335.965453047273
738332.45681415672879666090,5.25599943032116,2.95419171727653,336.039307840205
738332.45681424718350172043,5.23138116601052,2.92957345296589,336.02699870805
738332.45681433763820677996,5.24369029816584,2.94188258512121,336.014689575894
738332.45681442809291183949,5.23138116601052,2.91726432081057,336.039307840205
738332.45681451854761689901,5.24369029816584,2.92957345296589,335.965453047273
738332.45681460900232195854,5.19445376954456,2.89264605649993,335.953143915118
738332.45681469934061169624,5.26830856247648,3.0034282458978,335.940834782963
738332.45681478979531675577,5.30523595894243,2.95419171727653,336.100853500982
738332.45681488025002181530,5.55141860204881,3.15113783176163,336.02699870805
738332.45681497070472687483,5.83452864162114,3.28653828547014,335.817743461409
738332.45681506115943193436,5.85914690593178,3.20037436038291,335.571560818303
738332.45681515161413699389,5.37909075187434,2.78186386710206,335.670033875546
738332.45681524195242673159,4.92365286212755,2.42489903459782,335.793125197099
738332.45681533240713179111,4.89903459781691,2.62184514908292,336.014689575894
738332.45681542286183685064,4.98519852290414,2.78186386710206,336.199326558224
738332.45681551331654191017,5.07136244799137,2.88033692434461,336.260872219001
738332.45681560377124696970,5.14521724092329,2.92957345296589,336.162399161758
738332.45681569422595202923,5.2190720338552,2.96650084943185,336.150090029603
738332.45681578468065708876,5.29292682678711,2.99111911374248,336.063926104516
738332.45681587501894682646,5.24369029816584,2.92957345296589,336.076235236671
738332.45681596547365188599,5.29292682678711,2.97880998158717,336.05161697236
738332.45681605592835694551,5.30523595894243,2.97880998158717,336.05161697236
738332.45681614638306200504,5.28061769463179,2.92957345296589,335.928525650807
738332.45681623683776706457,5.30523595894243,2.99111911374248,336.039307840205
738332.45681632729247212410,5.30523595894243,2.99111911374248,335.990071311584
738332.45681641763076186180,5.32985422325307,2.97880998158717,336.014689575894
738332.45681650808546692133,5.34216335540839,2.97880998158717,336.088544368826
738332.45681659854017198086,5.34216335540839,3.0034282458978,336.02699870805
738332.45681668899487704039,5.35447248756371,2.97880998158717,335.940834782963
738332.45681677944958209991,5.36678161971903,3.02804651020844,336.014689575894
738332.45681686990428715944,5.37909075187434,3.02804651020844,336.039307840205
738332.45681696035899221897,5.39139988402966,3.0034282458978,335.903907386497
738332.45681705069728195667,5.46525467696158,3.10190130314035,335.903907386497
738332.45681714115198701620,5.42832728049562,3.04035564236376,335.891598254341
738332.45681723160669207573,5.46525467696158,3.05266477451908,335.84236172572
738332.45681732206139713526,5.51449120558285,3.10190130314035,335.891598254341
738332.45681741251610219479,5.53910946989349,3.12651956745099,335.903907386497
738332.45681750297080725431,5.56372773420413,3.12651956745099,335.965453047273
738332.45681759330909699202,5.57603686635945,3.12651956745099,335.940834782963
738332.45681768376380205154,5.58834599851477,3.13882869960631,335.990071311584
738332.45681777421850711107,5.57603686635945,3.11421043529567,335.965453047273
738332.45681786467321217060,5.55141860204881,3.07728303882972,335.965453047273
738332.45681795512791723013,5.52680033773817,3.05266477451908,335.953143915118
738332.45681804558262228966,5.50218207342753,3.0649739066744,335.965453047273
738332.45681813592091202736,5.44063641265094,3.02804651020844,335.928525650807
738332.45681822637561708689,5.39139988402966,3.0034282458978,335.793125197099
738332.45681831683032214642,5.36678161971903,3.01573737805312,335.891598254341
738332.45681840728502720594,5.32985422325307,2.99111911374248,335.940834782963
738332.45681849773973226547,5.31754509109775,2.96650084943185,336.002380443739
738332.45681858819443732500,5.30523595894243,2.95419171727653,335.965453047273
738332.45681867864914238453,5.30523595894243,2.95419171727653,335.965453047273
738332.45681876898743212223,5.28061769463179,2.91726432081057,335.990071311584
738332.45681885944213718176,5.29292682678711,2.91726432081057,335.965453047273
738332.45681894989684224129,5.26830856247648,2.91726432081057,335.965453047273
738332.45681904035154730082,5.26830856247648,2.95419171727653,335.953143915118
738332.45681913080625236034,5.29292682678711,2.94188258512121,335.965453047273
738332.45681922126095741987,5.30523595894243,2.95419171727653,336.02699870805
738332.45681931159924715757,5.26830856247648,2.92957345296589,336.039307840205
738332.45681940205395221710,5.25599943032116,2.89264605649993,336.002380443739
738332.45681949250865727663,5.25599943032116,2.90495518865525,335.965453047273
738332.45681958296336233616,5.26830856247648,2.90495518865525,335.916216518652
738332.45681967341806739569,5.28061769463179,2.92957345296589,335.953143915118
738332.45681976387277245522,5.29292682678711,2.94188258512121,336.014689575894
738332.45681985421106219292,5.26830856247648,2.89264605649993,335.965453047273
738332.45681994466576725245,5.29292682678711,2.88033692434461,335.891598254341
738332.45682003512047231197,5.30523595894243,2.96650084943185,335.928525650807
738332.45682012557517737150,5.26830856247648,2.95419171727653,336.02699870805
738332.45682021602988243103,5.26830856247648,2.95419171727653,336.063926104516
738332.45682030648458749056,5.28061769463179,2.92957345296589,335.891598254341
738332.45682039693929255009,5.30523595894243,2.94188258512121,335.977762179429
738332.45682048727758228779,5.30523595894243,2.96650084943185,335.953143915118
738332.45682057773228734732,5.30523595894243,2.95419171727653,335.977762179429
738332.45682066818699240685,5.29292682678711,2.95419171727653,335.990071311584
738332.45682075864169746637,5.29292682678711,2.95419171727653,336.002380443739
738332.45682084909640252590,5.30523595894243,2.95419171727653,335.953143915118
738332.45682093955110758543,5.29292682678711,2.91726432081057,335.990071311584
738332.45682102988939732313,5.29292682678711,2.99111911374248,336.05161697236
738332.45682112034410238266,5.29292682678711,2.99111911374248,336.02699870805
738332.45682121079880744219,5.28061769463179,2.96650084943185,336.014689575894
738332.45682130125351250172,5.30523595894243,2.96650084943185,336.02699870805
738332.45682139170821756124,5.25599943032116,2.94188258512121,336.002380443739
738332.45682148216292262077,5.31754509109775,2.99111911374248,335.990071311584
738332.45682157261762768030,5.30523595894243,2.97880998158717,335.940834782963
738332.45682166295591741800,5.28061769463179,2.95419171727653,335.977762179429
738332.45682175341062247753,5.26830856247648,2.91726432081057,335.84236172572
738332.45682184386532753706,5.28061769463179,2.92957345296589,335.903907386497
738332.45682193432003259659,5.26830856247648,2.94188258512121,335.916216518652
738332.45682202477473765612,5.26830856247648,2.97880998158717,335.879289122186
738332.45682211522944271564,5.26830856247648,2.95419171727653,335.879289122186
738332.45682220556773245335,5.26830856247648,2.95419171727653,335.891598254341
738332.45682229602243751287,5.28061769463179,2.94188258512121,335.940834782963
738332.45682238647714257240,5.24369029816584,2.92957345296589,335.916216518652
738332.45682247693184763193,5.31754509109775,2.99111911374248,335.916216518652
738332.45682256738655269146,5.25599943032116,2.92957345296589,335.916216518652
738332.45682265784125775099,5.25599943032116,2.91726432081057,335.928525650807
738332.45682274817954748869,5.25599943032116,2.90495518865525,335.928525650807
738332.45682283863425254822,5.25599943032116,2.95419171727653,335.903907386497
738332.45682292908895760775,5.24369029816584,2.97880998158717,336.002380443739
738332.45682301954366266727,5.26830856247648,2.94188258512121,335.965453047273
738332.45682310999836772680,5.26830856247648,2.95419171727653,335.953143915118
738332.45682320045307278633,5.28061769463179,2.96650084943185,336.002380443739
738332.45682329090777784586,5.26830856247648,2.94188258512121,335.977762179429
738332.45682338124606758356,5.26830856247648,2.95419171727653,335.928525650807
738332.45682347170077264309,5.26830856247648,2.95419171727653,335.928525650807
738332.45682356215547770262,5.25599943032116,2.92957345296589,335.965453047273
738332.45682365261018276215,5.28061769463179,2.96650084943185,335.940834782963
738332.45682374306488782167,5.28061769463179,2.96650084943185,335.977762179429
738332.45682383351959288120,5.25599943032116,2.94188258512121,336.002380443739
738332.45682392385788261890,5.25599943032116,2.95419171727653,335.928525650807
738332.45682401431258767843,5.26830856247648,2.95419171727653,335.891598254341
738332.45682410476729273796,5.28061769463179,2.94188258512121,335.928525650807
738332.45682419522199779749,5.29292682678711,2.91726432081057,335.953143915118
738332.45682428567670285702,5.30523595894243,2.99111911374248,335.965453047273
738332.45682437613140791655,5.32985422325307,2.97880998158717,335.903907386497
738332.45682446646969765425,5.32985422325307,2.99111911374248,335.903907386497
738332.45682455692440271378,5.40370901618498,3.04035564236376,335.903907386497
738332.45682464737910777330,5.32985422325307,2.99111911374248,335.953143915118
738332.45682473783381283283,5.36678161971903,3.04035564236376,335.940834782963
738332.45682482828851789236,5.31754509109775,2.99111911374248,335.891598254341
738332.45682491874322295189,5.31754509109775,2.97880998158717,335.990071311584
738332.45682500919792801142,5.26830856247648,2.94188258512121,336.02699870805
738332.45682509953621774912,5.24369029816584,2.94188258512121,335.940834782963
738332.45682518999092280865,5.24369029816584,2.99111911374248,335.780816064943
738332.45682528044562786818,5.24369029816584,2.96650084943185,335.830052593565
738332.45682537090033292770,5.2190720338552,2.94188258512121,335.990071311584
738332.45682546135503798723,5.2190720338552,2.94188258512121,335.940834782963
738332.45682555180974304676,5.2190720338552,2.92957345296589,336.02699870805
738332.45682564214803278446,5.2190720338552,2.92957345296589,336.05161697236
738332.45682573260273784399,5.20676290169988,2.91726432081057,336.05161697236
738332.45682582305744290352,5.24369029816584,2.99111911374248,336.014689575894
738332.45682591351214796305,5.2190720338552,2.94188258512121,336.088544368826
738332.45682600396685302258,5.39139988402966,3.04035564236376,336.088544368826
738332.45682609442155808210,5.71143732006795,3.32346568193609,335.953143915118
738332.45682618487626314163,5.90838343455306,3.32346568193609,335.756197800633
738332.45682627521455287933,5.66220079144668,3.08959217098504,335.694652139856
738332.45682636566925793886,5.10828984445733,2.57260862046164,335.805434329254
738332.45682645612396299839,4.92365286212755,2.53568122399569,335.953143915118
738332.45682654657866805792,4.93596199428287,2.75724560279143,335.965453047273
738332.45682663703337311745,5.0221259193701,2.89264605649993,336.113162633137
738332.45682672748807817698,5.07136244799137,2.89264605649993,336.162399161758
738332.45682681782636791468,5.19445376954456,3.01573737805312,336.150090029603
738332.45682690828107297421,5.23138116601052,3.04035564236376,336.039307840205
738332.45682699873577803373,5.2190720338552,2.97880998158717,335.940834782963
738332.45682708919048309326,5.28061769463179,3.0034282458978,335.977762179429
738332.45682717964518815279,5.29292682678711,3.0034282458978,335.953143915118
738332.45682727009989321232,5.28061769463179,3.0034282458978,336.014689575894
738332.45682736043818295002,5.29292682678711,3.0034282458978,335.990071311584
738332.45682745089288800955,5.29292682678711,2.97880998158717,335.965453047273
738332.45682754134759306908,5.30523595894243,2.99111911374248,335.990071311584
738332.45682763180229812860,5.30523595894243,3.01573737805312,336.05161697236
738332.45682772225700318813,5.31754509109775,3.01573737805312,335.916216518652
738332.45682781271170824766,5.31754509109775,3.04035564236376,335.977762179429
738332.45682790316641330719,5.34216335540839,3.0649739066744,335.977762179429
738332.45682799350470304489,5.35447248756371,3.05266477451908,335.990071311584
738332.45682808395940810442,5.36678161971903,3.0649739066744,335.928525650807
738332.45682817441411316395,5.4160181483403,3.08959217098504,335.928525650807
738332.45682826486881822348,5.40370901618498,3.0649739066744,335.965453047273
738332.45682835532352328300,5.46525467696158,3.10190130314035,335.928525650807
738332.45682844577822834253,5.4775638091169,3.11421043529567,335.977762179429
738332.45682853611651808023,5.48987294127221,3.08959217098504,335.891598254341
738332.45682862657122313976,5.55141860204881,3.12651956745099,335.903907386497
738332.45682871702592819929,5.57603686635945,3.18806522822759,335.731579536322
738332.45682880748063325882,5.53910946989349,3.15113783176163,335.817743461409
738332.45682889793533831835,5.53910946989349,3.12651956745099,335.866979990031
738332.45682898839004337788,5.53910946989349,3.12651956745099,335.891598254341
738332.45682907872833311558,5.52680033773817,3.10190130314035,335.866979990031
738332.45682916918303817511,5.50218207342753,3.08959217098504,335.940834782963
738332.45682925963774323463,5.45294554480626,3.0649739066744,335.990071311584
738332.45682935009244829416,5.42832728049562,3.0649739066744,335.977762179429
738332.45682944054715335369,5.36678161971903,3.01573737805312,335.928525650807
738332.45682953100185841322,5.34216335540839,3.0034282458978,335.990071311584
738332.45682962145656347275,5.31754509109775,2.94188258512121,336.002380443739
738332.45682971179485321045,5.31754509109775,2.96650084943185,335.977762179429
738332.45682980224955826998,5.26830856247648,3.01573737805312,335.977762179429
738332.45682989270426332951,5.28061769463179,2.97880998158717,336.002380443739
738332.45682998315896838903,5.25599943032116,2.94188258512121,335.990071311584
738332.45683007361367344856,5.26830856247648,2.95419171727653,335.928525650807
738332.45683016406837850809,5.28061769463179,2.95419171727653,336.014689575894
738332.45683025440666824579,5.25599943032116,2.94188258512121,336.02699870805
738332.45683034486137330532,5.25599943032116,2.94188258512121,335.940834782963
738332.45683043531607836485,5.26830856247648,2.95419171727653,335.928525650807
738332.45683052577078342438,5.25599943032116,2.92957345296589,335.965453047273
738332.45683061622548848391,5.25599943032116,2.94188258512121,335.916216518652
738332.45683070668019354343,5.26830856247648,2.95419171727653,335.903907386497
738332.45683079701848328114,5.26830856247648,2.94188258512121,335.903907386497
738332.45683088747318834066,5.25599943032116,2.91726432081057,335.940834782963
738332.45683097792789340019,5.28061769463179,2.95419171727653,335.940834782963
738332.45683106838259845972,5.28061769463179,2.94188258512121,335.928525650807
738332.45683115883730351925,5.26830856247648,2.95419171727653,335.965453047273
738332.45683124929200857878,5.31754509109775,3.0034282458978,335.953143915118
738332.45683133974671363831,5.26830856247648,2.97880998158717,335.928525650807
738332.45683143008500337601,5.29292682678711,2.97880998158717,335.953143915118
738332.45683152053970843554,5.29292682678711,2.96650084943185,335.990071311584
738332.45683161099441349506,5.28061769463179,2.96650084943185,335.990071311584
738332.45683170144911855459,5.30523595894243,2.97880998158717,335.990071311584
738332.45683179190382361412,5.29292682678711,2.96650084943185,335.903907386497
738332.45683188235852867365,5.30523595894243,2.97880998158717,335.965453047273
738332.45683197269681841135,5.29292682678711,2.99111911374248,335.977762179429
738332.45683206315152347088,5.29292682678711,2.95419171727653,335.940834782963
738332.45683215360622853041,5.29292682678711,2.96650084943185,335.928525650807
738332.45683224406093358994,5.26830856247648,2.99111911374248,335.805434329254
738332.45683233451563864946,5.32985422325307,3.01573737805312,335.891598254341
738332.45683242497034370899,5.23138116601052,2.94188258512121,335.903907386497
738332.45683251542504876852,5.25599943032116,2.96650084943185,335.977762179429
738332.45683260576333850622,5.25599943032116,2.97880998158717,336.002380443739
738332.45683269621804356575,5.25599943032116,2.95419171727653,336.002380443739
738332.45683278667274862528,5.26830856247648,2.96650084943185,335.953143915118
738332.45683287712745368481,5.25599943032116,2.95419171727653,335.940834782963
738332.45683296758215874434,5.26830856247648,2.94188258512121,335.940834782963
738332.45683305803686380386,5.26830856247648,2.94188258512121,335.940834782963
738332.45683314837515354156,5.25599943032116,2.94188258512121,335.965453047273
738332.45683323882985860109,5.28061769463179,2.99111911374248,335.977762179429
738332.45683332928456366062,5.25599943032116,2.94188258512121,335.990071311584
738332.45683341973926872015,5.28061769463179,2.95419171727653,335.977762179429
738332.45683351019397377968,5.25599943032116,2.97880998158717,336.002380443739
738332.45683360064867883921,5.26830856247648,2.95419171727653,336.014689575894
738332.45683369098696857691,5.24369029816584,2.92957345296589,335.916216518652
738332.45683378144167363644,5.29292682678711,2.97880998158717,336.014689575894
738332.45683387189637869596,5.26830856247648,2.94188258512121,336.02699870805
738332.45683396235108375549,5.28061769463179,2.95419171727653,335.940834782963
738332.45683405280578881502,5.25599943032116,2.92957345296589,335.990071311584
738332.45683414326049387455,5.26830856247648,2.92957345296589,336.002380443739
738332.45683423371519893408,5.25599943032116,2.95419171727653,336.014689575894
738332.45683432405348867178,5.26830856247648,2.95419171727653,335.965453047273
738332.45683441450819373131,5.25599943032116,2.94188258512121,336.05161697236
738332.45683450496289879084,5.26830856247648,2.95419171727653,336.014689575894
738332.45683459541760385036,5.26830856247648,2.95419171727653,335.965453047273
738332.45683468587230890989,5.25599943032116,2.92957345296589,336.002380443739
738332.45683477632701396942,5.26830856247648,2.94188258512121,336.014689575894
738332.45683486666530370712,5.26830856247648,2.94188258512121,336.002380443739
738332.45683495712000876665,5.28061769463179,2.94188258512121,335.990071311584
738332.45683504757471382618,5.26830856247648,2.92957345296589,336.039307840205
738332.45683513802941888571,5.24369029816584,2.94188258512121,335.866979990031
738332.45683522848412394524,5.25599943032116,2.97880998158717,335.953143915118
738332.45683531893882900476,5.26830856247648,2.96650084943185,335.928525650807
738332.45683540927711874247,5.25599943032116,2.95419171727653,335.928525650807
738332.45683549973182380199,5.28061769463179,2.97880998158717,335.953143915118
738332.45683559018652886152,5.29292682678711,2.96650084943185,335.866979990031
738332.45683568064123392105,5.31754509109775,2.95419171727653,335.854670857875
738332.45683577109593898058,5.34216335540839,2.97880998158717,335.694652139856
738332.45683586155064404011,5.37909075187434,3.01573737805312,335.768506932788
738332.45683595200534909964,5.35447248756371,3.0034282458978,335.928525650807
738332.45683604234363883734,5.35447248756371,2.97880998158717,335.866979990031
738332.45683613279834389687,5.30523595894243,2.99111911374248,335.866979990031
738332.45683622325304895639,5.29292682678711,3.01573737805312,335.928525650807
738332.45683631370775401592,5.26830856247648,2.96650084943185,335.965453047273
738332.45683640416245907545,5.25599943032116,2.94188258512121,335.977762179429
738332.45683649461716413498,5.24369029816584,2.95419171727653,335.990071311584
738332.45683658495545387268,5.24369029816584,2.95419171727653,336.014689575894
738332.45683667541015893221,5.24369029816584,2.94188258512121,335.903907386497
738332.45683676586486399174,5.24369029816584,2.92957345296589,335.977762179429
738332.45683685631956905127,5.2190720338552,2.91726432081057,335.977762179429
738332.45683694677427411079,5.24369029816584,2.94188258512121,336.014689575894
738332.45683703722897917032,5.2190720338552,2.91726432081057,336.02699870805
738332.45683712768368422985,5.23138116601052,2.94188258512121,335.903907386497
738332.45683721802197396755,5.28061769463179,2.94188258512121,336.02699870805
738332.45683730847667902708,5.44063641265094,3.10190130314035,336.039307840205
738332.45683739893138408661,5.72374645222327,3.31115654978078,335.940834782963
738332.45683748938608914614,5.90838343455306,3.32346568193609,335.620797346924
738332.45683757984079420567,5.6129642628254,3.04035564236376,335.596179082614
738332.45683767029549926519,5.07136244799137,2.53568122399569,335.743888668477
738332.45683776063378900290,4.91134372997223,2.57260862046164,335.940834782963
738332.45683785108849406242,4.92365286212755,2.74493647063611,336.076235236671
738332.45683794154319912195,5.00981678721478,2.85571866003398,336.174708293914
738332.45683803199790418148,5.09598071230201,2.92957345296589,336.248563086845
738332.45683812245260924101,5.18214463738924,2.96650084943185,336.260872219001
738332.45683821290731430054,5.24369029816584,2.96650084943185,336.137780897448
738332.45683830324560403824,5.26830856247648,2.99111911374248,336.063926104516
738332.45683839370030909777,5.28061769463179,2.99111911374248,336.100853500982
738332.45683848415501415730,5.29292682678711,2.97880998158717,336.039307840205
738332.45683857460971921682,5.28061769463179,2.99111911374248,335.990071311584
738332.45683866506442427635,5.29292682678711,2.99111911374248,336.014689575894
738332.45683875551912933588,5.30523595894243,2.97880998158717,336.014689575894
738332.45683884597383439541,5.31754509109775,2.99111911374248,335.916216518652
738332.45683893631212413311,5.31754509109775,2.99111911374248,335.903907386497
738332.45683902676682919264,5.35447248756371,3.02804651020844,335.965453047273
738332.45683911722153425217,5.35447248756371,3.01573737805312,335.965453047273
738332.45683920767623931170,5.34216335540839,3.02804651020844,335.953143915118
738332.45683929813094437122,5.37909075187434,3.05266477451908,335.830052593565
738332.45683938858564943075,5.40370901618498,3.07728303882972,335.866979990031
738332.45683947892393916845,5.42832728049562,3.07728303882972,335.903907386497
738332.45683956937864422798,5.45294554480626,3.08959217098504,335.903907386497
738332.45683965983334928751,5.4775638091169,3.11421043529567,335.940834782963
738332.45683975028805434704,5.51449120558285,3.13882869960631,335.940834782963
738332.45683984074275940657,5.53910946989349,3.13882869960631,335.965453047273
738332.45683993119746446609,5.56372773420413,3.15113783176163,335.891598254341
738332.45684002153575420380,5.58834599851477,3.17575609607227,335.879289122186
738332.45684011199045926332,5.58834599851477,3.15113783176163,335.891598254341
738332.45684020244516432285,5.60065513067009,3.13882869960631,335.903907386497
738332.45684029289986938238,5.60065513067009,3.15113783176163,335.916216518652
738332.45684038335457444191,5.55141860204881,3.12651956745099,335.903907386497
738332.45684047380927950144,5.50218207342753,3.07728303882972,335.953143915118
738332.45684056426398456097,5.48987294127221,3.07728303882972,335.879289122186
738332.45684065460227429867,5.45294554480626,3.05266477451908,335.940834782963
738332.45684074505697935820,5.40370901618498,3.02804651020844,335.916216518652
738332.45684083551168441772,5.37909075187434,3.0034282458978,335.916216518652
738332.45684092596638947725,5.35447248756371,2.99111911374248,335.891598254341
738332.45684101642109453678,5.32985422325307,2.96650084943185,335.903907386497
738332.45684110687579959631,5.31754509109775,2.95419171727653,335.903907386497
738332.45684119721408933401,5.29292682678711,2.94188258512121,335.866979990031
738332.45684128766879439354,5.30523595894243,2.95419171727653,335.903907386497
738332.45684137812349945307,5.29292682678711,2.95419171727653,335.940834782963
738332.45684146857820451260,5.26830856247648,2.92957345296589,335.990071311584
738332.45684155903290957212,5.26830856247648,2.92957345296589,335.990071311584
738332.45684164948761463165,5.29292682678711,2.94188258512121,335.990071311584
738332.45684173994231969118,5.28061769463179,2.94188258512121,335.990071311584
738332.45684183028060942888,5.26830856247648,2.92957345296589,336.014689575894
738332.45684192073531448841,5.28061769463179,2.94188258512121,335.916216518652
738332.45684201119001954794,5.28061769463179,2.95419171727653,335.977762179429
738332.45684210164472460747,5.28061769463179,2.95419171727653,336.039307840205
738332.45684219209942966700,5.28061769463179,2.94188258512121,335.977762179429
738332.45684228255413472652,5.29292682678711,2.94188258512121,335.990071311584
738332.45684237289242446423,5.30523595894243,2.96650084943185,336.002380443739
738332.45684246334712952375,5.28061769463179,2.96650084943185,336.02699870805
738332.45684255380183458328,5.28061769463179,2.92957345296589,335.977762179429
738332.45684264425653964281,5.30523595894243,2.97880998158717,335.990071311584
738332.45684273471124470234,5.30523595894243,2.95419171727653,336.014689575894
738332.45684282516594976187,5.29292682678711,2.96650084943185,335.854670857875
738332.45684291550423949957,5.31754509109775,2.97880998158717,335.879289122186
738332.45684300595894455910,5.30523595894243,2.99111911374248,336.002380443739
738332.45684309641364961863,5.31754509109775,2.97880998158717,336.02699870805
738332.45684318686835467815,5.31754509109775,2.97880998158717,335.940834782963
738332.45684327732305973768,5.30523595894243,3.0034282458978,335.990071311584
738332.45684336777776479721,5.30523595894243,2.99111911374248,336.02699870805
738332.45684345823246985674,5.31754509109775,2.99111911374248,335.928525650807
738332.45684354857075959444,5.30523595894243,2.97880998158717,336.002380443739
738332.45684363902546465397,5.29292682678711,2.94188258512121,336.02699870805
738332.45684372948016971350,5.26830856247648,2.97880998158717,335.953143915118
738332.45684381993487477303,5.28061769463179,2.99111911374248,335.953143915118
738332.45684391038957983255,5.29292682678711,2.96650084943185,335.990071311584
738332.45684400084428489208,5.28061769463179,2.95419171727653,335.940834782963
738332.45684409118257462978,5.28061769463179,2.96650084943185,335.916216518652
738332.45684418163727968931,5.31754509109775,2.96650084943185,335.916216518652
738332.45684427209198474884,5.28061769463179,2.97880998158717,335.916216518652
738332.45684436254668980837,5.26830856247648,2.94188258512121,335.928525650807
738332.45684445300139486790,5.28061769463179,2.94188258512121,335.916216518652
738332.45684454345609992743,5.26830856247648,2.95419171727653,335.965453047273
738332.45684463379438966513,5.29292682678711,2.96650084943185,335.965453047273
738332.45684472424909472466,5.28061769463179,2.95419171727653,335.928525650807
738332.45684481470379978418,5.28061769463179,2.94188258512121,335.940834782963
738332.45684490515850484371,5.28061769463179,2.94188258512121,335.940834782963
738332.45684499561320990324,5.26830856247648,2.95419171727653,336.014689575894
738332.45684508606791496277,5.29292682678711,2.95419171727653,335.977762179429
738332.45684517652262002230,5.28061769463179,2.96650084943185,335.879289122186
738332.45684526686090976000,5.26830856247648,2.96650084943185,335.940834782963
738332.45684535731561481953,5.28061769463179,2.95419171727653,335.990071311584
738332.45684544777031987906,5.29292682678711,2.95419171727653,335.953143915118
738332.45684553822502493858,5.25599943032116,2.91726432081057,335.990071311584
738332.45684562867972999811,5.26830856247648,2.95419171727653,335.977762179429
738332.45684571913443505764,5.26830856247648,2.92957345296589,335.879289122186
738332.45684580947272479534,5.26830856247648,2.92957345296589,335.977762179429
738332.45684589992742985487,5.26830856247648,2.94188258512121,335.977762179429
738332.45684599038213491440,5.29292682678711,3.0034282458978,335.928525650807
738332.45684608083683997393,5.25599943032116,2.96650084943185,335.977762179429
738332.45684617129154503345,5.26830856247648,2.94188258512121,335.990071311584
738332.45684626174625009298,5.28061769463179,2.96650084943185,336.002380443739
738332.45684635208453983068,5.25599943032116,2.92957345296589,335.916216518652
738332.45684644253924489021,5.25599943032116,2.90495518865525,335.830052593565
738332.45684653299394994974,5.26830856247648,2.97880998158717,335.916216518652
738332.45684662344865500927,5.25599943032116,2.96650084943185,335.928525650807
738332.45684671390336006880,5.28061769463179,2.90495518865525,335.879289122186
738332.45684680435806512833,5.26830856247648,2.95419171727653,335.891598254341
738332.45684689481277018785,5.25599943032116,2.96650084943185,335.965453047273
738332.45684698515105992556,5.26830856247648,2.94188258512121,335.940834782963
738332.45684707560576498508,5.26830856247648,2.95419171727653,336.02699870805
738332.45684716606047004461,5.28061769463179,2.96650084943185,336.002380443739
738332.45684725651517510414,5.28061769463179,2.95419171727653,336.02699870805
738332.45684734696988016367,5.28061769463179,2.90495518865525,336.014689575894
738332.45684743742458522320,5.26830856247648,2.99111911374248,335.990071311584
738332.45684752776287496090,5.26830856247648,2.97880998158717,336.014689575894
738332.45684761821758002043,5.28061769463179,2.97880998158717,335.903907386497
738332.45684770867228507996,5.28061769463179,2.97880998158717,335.891598254341
738332.45684779912699013948,5.31754509109775,2.99111911374248,335.916216518652
738332.45684788958169519901,5.32985422325307,2.99111911374248,335.928525650807
738332.45684798003640025854,5.34216335540839,2.97880998158717,335.879289122186
738332.45684807049110531807,5.35447248756371,2.99111911374248,335.879289122186
738332.45684816082939505577,5.36678161971903,3.0034282458978,335.879289122186
738332.45684825128410011530,5.35447248756371,2.99111911374248,335.866979990031
738332.45684834173880517483,5.32985422325307,3.01573737805312,335.916216518652
738332.45684843219351023436,5.28061769463179,2.99111911374248,335.940834782963
738332.45684852264821529388,5.26830856247648,2.99111911374248,335.990071311584
738332.45684861310292035341,5.25599943032116,2.97880998158717,336.002380443739
738332.45684870344121009111,5.24369029816584,2.94188258512121,336.014689575894
738332.45684879389591515064,5.24369029816584,2.94188258512121,335.940834782963
738332.45684888435062021017,5.24369029816584,2.94188258512121,336.05161697236
738332.45684897480532526970,5.23138116601052,2.92957345296589,336.014689575894
738332.45684906526003032923,5.24369029816584,2.92957345296589,335.965453047273
738332.45684915571473538876,5.23138116601052,2.90495518865525,335.977762179429
738332.45684924605302512646,5.23138116601052,2.89264605649993,335.965453047273
738332.45684933650773018599,5.23138116601052,2.96650084943185,335.891598254341
738332.45684942696243524551,5.24369029816584,3.0034282458978,335.990071311584
738332.45684951741714030504,5.42832728049562,3.08959217098504,335.977762179429
738332.45684960787184536457,5.71143732006795,3.34808394624673,335.928525650807
738332.45684969832655042410,5.93300169886369,3.39732047486801,335.719270404167
738332.45684978878125548363,5.64989165929136,3.12651956745099,335.670033875546
738332.45684987911954522133,5.09598071230201,2.57260862046164,335.682343007701
738332.45684996957425028086,4.91134372997223,2.54799035615101,335.756197800633
738332.45685006002895534039,4.9605802585935,2.75724560279143,336.039307840205
738332.45685015048366039991,5.0221259193701,2.83110039572334,336.137780897448
738332.45685024093836545944,5.09598071230201,2.91726432081057,336.137780897448
738332.45685033139307051897,5.15752637307861,2.96650084943185,336.137780897448
738332.45685042173136025667,5.23138116601052,3.01573737805312,336.039307840205
738332.45685051218606531620,5.25599943032116,3.0034282458978,336.002380443739
738332.45685060264077037573,5.28061769463179,3.02804651020844,336.02699870805
738332.45685069309547543526,5.29292682678711,3.0034282458978,336.014689575894
738332.45685078355018049479,5.30523595894243,3.0034282458978,336.039307840205
738332.45685087400488555431,5.31754509109775,3.0034282458978,335.953143915118
738332.45685096434317529202,5.34216335540839,3.01573737805312,336.039307840205
738332.45685105479788035154,5.32985422325307,3.01573737805312,336.014689575894
738332.45685114525258541107,5.35447248756371,2.99111911374248,335.977762179429
738332.45685123570729047060,5.35447248756371,2.97880998158717,335.953143915118
738332.45685132616199553013,5.34216335540839,3.01573737805312,336.002380443739
738332.45685141661670058966,5.39139988402966,3.07728303882972,336.002380443739
738332.45685150707140564919,5.36678161971903,3.02804651020844,335.977762179429
738332.45685159740969538689,5.40370901618498,3.0649739066744,336.002380443739
738332.45685168786440044641,5.4160181483403,3.08959217098504,336.002380443739
738332.45685177831910550594,5.44063641265094,3.0649739066744,336.014689575894
738332.45685186877381056547,5.4775638091169,3.10190130314035,335.940834782963
738332.45685195922851562500,5.48987294127221,3.10190130314035,335.879289122186
738332.45685204968322068453,5.53910946989349,3.11421043529567,335.854670857875
738332.45685214002151042223,5.57603686635945,3.16344696391695,335.903907386497
738332.45685223047621548176,5.57603686635945,3.20037436038291,335.891598254341
738332.45685232093092054129,5.60065513067009,3.20037436038291,335.879289122186
738332.45685241138562560081,5.58834599851477,3.16344696391695,335.903907386497
738332.45685250184033066034,5.56372773420413,3.12651956745099,335.854670857875
738332.45685259229503571987,5.53910946989349,3.08959217098504,335.928525650807
738332.45685268274974077940,5.52680033773817,3.07728303882972,335.953143915118
738332.45685277308803051710,5.4775638091169,3.05266477451908,335.891598254341
738332.45685286354273557663,5.42832728049562,3.01573737805312,335.866979990031
738332.45685295399744063616,5.40370901618498,3.0034282458978,335.928525650807
738332.45685304445214569569,5.35447248756371,2.97880998158717,335.916216518652
738332.45685313490685075521,5.35447248756371,2.97880998158717,335.928525650807
738332.45685322536155581474,5.32985422325307,3.0034282458978,335.879289122186
738332.45685331569984555244,5.29292682678711,2.96650084943185,335.866979990031
738332.45685340615455061197,5.30523595894243,2.99111911374248,335.866979990031
738332.45685349660925567150,5.29292682678711,2.97880998158717,335.768506932788
738332.45685358706396073103,5.28061769463179,2.95419171727653,335.903907386497
738332.45685367751866579056,5.29292682678711,2.95419171727653,335.903907386497
738332.45685376797337085009,5.28061769463179,2.92957345296589,335.854670857875
738332.45685385831166058779,5.28061769463179,2.90495518865525,335.953143915118
738332.45685394876636564732,5.29292682678711,2.95419171727653,335.940834782963
738332.45685403922107070684,5.28061769463179,2.95419171727653,335.990071311584
738332.45685412967577576637,5.26830856247648,2.94188258512121,336.002380443739
738332.45685422013048082590,5.28061769463179,2.95419171727653,335.916216518652
738332.45685431058518588543,5.28061769463179,2.92957345296589,335.965453047273
738332.45685440103989094496,5.26830856247648,2.97880998158717,335.965453047273
738332.45685449137818068266,5.29292682678711,3.0034282458978,335.965453047273
738332.45685458183288574219,5.28061769463179,2.96650084943185,335.965453047273
738332.45685467228759080172,5.28061769463179,2.96650084943185,336.014689575894
738332.45685476274229586124,5.31754509109775,3.0034282458978,336.014689575894
738332.45685485319700092077,5.28061769463179,2.97880998158717,335.965453047273
738332.45685494365170598030,5.29292682678711,2.97880998158717,335.977762179429
738332.45685503398999571800,5.30523595894243,2.99111911374248,336.014689575894
738332.45685512444470077753,5.31754509109775,3.0034282458978,336.002380443739
738332.45685521489940583706,5.31754509109775,2.99111911374248,335.953143915118
738332.45685530535411089659,5.29292682678711,3.0034282458978,336.05161697236
738332.45685539580881595612,5.30523595894243,2.97880998158717,336.002380443739
738332.45685548626352101564,5.30523595894243,3.01573737805312,336.002380443739
738332.45685557660181075335,5.30523595894243,3.01573737805312,336.014689575894
738332.45685566705651581287,5.30523595894243,3.0034282458978,336.014689575894
738332.45685575751122087240,5.29292682678711,2.99111911374248,336.039307840205
738332.45685584796592593193,5.29292682678711,2.99111911374248,335.940834782963
738332.45685593842063099146,5.29292682678711,2.97880998158717,336.05161697236
738332.45685602887533605099,5.29292682678711,2.99111911374248,336.014689575894
738332.45685611933004111052,5.29292682678711,2.99111911374248,335.928525650807
738332.45685620966833084822,5.30523595894243,2.96650084943185,335.965453047273
738332.45685630012303590775,5.30523595894243,2.96650084943185,336.05161697236
738332.45685639057774096727,5.29292682678711,3.02804651020844,336.05161697236
738332.45685648103244602680,5.28061769463179,2.97880998158717,336.002380443739
738332.45685657148715108633,5.29292682678711,2.97880998158717,335.965453047273
738332.45685666194185614586,5.28061769463179,3.0034282458978,335.903907386497
738332.45685675228014588356,5.29292682678711,3.0034282458978,335.916216518652
738332.45685684273485094309,5.29292682678711,2.97880998158717,335.953143915118
738332.45685693318955600262,5.30523595894243,2.97880998158717,335.903907386497
738332.45685702364426106215,5.28061769463179,2.96650084943185,335.780816064943
738332.45685711409896612167,5.31754509109775,2.96650084943185,335.916216518652
738332.45685720455367118120,5.30523595894243,3.01573737805312,335.977762179429
738332.45685729500837624073,5.24369029816584,2.99111911374248,335.940834782963
738332.45685738534666597843,5.26830856247648,2.96650084943185,335.990071311584
738332.45685747580137103796,5.28061769463179,2.99111911374248,335.953143915118
738332.45685756625607609749,5.28061769463179,3.0034282458978,335.953143915118
738332.45685765671078115702,5.28061769463179,2.97880998158717,335.953143915118
738332.45685774716548621655,5.28061769463179,2.95419171727653,335.953143915118
738332.45685783762019127607,5.28061769463179,2.99111911374248,335.977762179429
738332.45685792795848101377,5.29292682678711,3.0034282458978,335.916216518652
738332.45685801841318607330,5.29292682678711,2.97880998158717,335.965453047273
738332.45685810886789113283,5.28061769463179,2.96650084943185,335.916216518652
738332.45685819932259619236,5.28061769463179,3.0034282458978,335.928525650807
738332.45685828977730125189,5.26830856247648,2.96650084943185,335.903907386497
738332.45685838023200631142,5.29292682678711,2.99111911374248,335.891598254341
738332.45685847057029604912,5.28061769463179,2.97880998158717,335.916216518652
738332.45685856102500110865,5.26830856247648,2.97880998158717,335.891598254341
738332.45685865147970616817,5.28061769463179,3.0034282458978,335.940834782963
738332.45685874193441122770,5.28061769463179,2.99111911374248,335.953143915118
738332.45685883238911628723,5.28061769463179,2.97880998158717,335.965453047273
738332.45685892284382134676,5.29292682678711,2.96650084943185,335.990071311584
738332.45685901329852640629,5.28061769463179,2.96650084943185,336.039307840205
738332.45685910363681614399,5.28061769463179,3.02804651020844,336.063926104516
738332.45685919409152120352,5.29292682678711,3.0034282458978,335.965453047273
738332.45685928454622626305,5.29292682678711,3.0034282458978,336.002380443739
738332.45685937500093132257,5.32985422325307,3.0034282458978,335.990071311584
738332.45685946545563638210,5.34216335540839,3.01573737805312,335.990071311584
738332.45685955591034144163,5.34216335540839,2.97880998158717,335.965453047273
738332.45685964624863117933,5.36678161971903,3.01573737805312,336.002380443739
738332.45685973670333623886,5.35447248756371,3.04035564236376,335.977762179429
738332.45685982715804129839,5.34216335540839,3.05266477451908,335.928525650807
738332.45685991761274635792,5.32985422325307,3.02804651020844,335.977762179429
738332.45686000806745141745,5.30523595894243,3.0034282458978,335.977762179429
738332.45686009852215647697,5.29292682678711,2.99111911374248,336.014689575894
738332.45686018886044621468,5.25599943032116,2.97880998158717,335.990071311584
738332.45686027931515127420,5.24369029816584,2.96650084943185,336.002380443739
