time_dn,ecg_projection_ll_ra_mV,ecg_projection_la_ra_mV,ecg_projection_vx_rl_mV
738332.44355540792457759380,3.64350311797438,2.4125899024425,337.750277209794
738332.44355549837928265333,3.6558122501297,2.4125899024425,337.78720460626
738332.44355558871757239103,3.66812138228502,2.42489903459782,337.811822870571
738332.44355567917227745056,3.66812138228502,2.42489903459782,337.713349813328
738332.44355576962698251009,3.68043051444034,2.42489903459782,337.78720460626
738332.44355586008168756962,3.69273964659566,2.43720816675314,337.78720460626
738332.44355595053639262915,3.70504877875098,2.44951729890845,337.713349813328
738332.44355604099109768867,3.70504877875098,2.43720816675314,337.76258634195
738332.44355613132938742638,3.7173579109063,2.44951729890845,337.799513738416
738332.44355622178409248590,3.7173579109063,2.46182643106377,337.750277209794
738332.44355631223879754543,3.74197617521694,2.46182643106377,337.725658945484
738332.44355640269350260496,3.76659443952757,2.47413556321909,337.78720460626
738332.44355649314820766449,3.77890357168289,2.48644469537441,337.676422416862
738332.44355658348649740219,3.80352183599353,2.49875382752973,337.725658945484
738332.44355667394120246172,3.82814010030417,2.49875382752973,337.774895474105
738332.44355676439590752125,3.84044923245949,2.51106295968505,337.737968077639
738332.44355685485061258078,3.86506749677012,2.52337209184037,337.701040681173
738332.44355694530531764030,3.87737662892544,2.52337209184037,337.725658945484
738332.44355703576002269983,3.88968576108076,2.52337209184037,337.688731549018
738332.44355712609831243753,3.90199489323608,2.53568122399569,337.553331095309
738332.44355721655301749706,3.88968576108076,2.52337209184037,337.676422416862
738332.44355730700772255659,3.87737662892544,2.51106295968505,337.713349813328
738332.44355739746242761612,3.84044923245949,2.48644469537441,337.750277209794
738332.44355748791713267565,3.80352183599353,2.47413556321909,337.664113284707
738332.44355757825542241335,3.75428530737225,2.46182643106377,337.737968077639
738332.44355766871012747288,3.70504877875098,2.43720816675314,337.774895474105
738332.44355775916483253241,3.68043051444034,2.42489903459782,337.664113284707
738332.44355784961953759193,3.64350311797438,2.4125899024425,337.750277209794
738332.44355794007424265146,3.61888485366375,2.40028077028718,337.651804152552
738332.44355803052894771099,3.59426658935311,2.40028077028718,337.688731549018
738332.44355812086723744869,3.58195745719779,2.37566250597654,337.750277209794
738332.44355821132194250822,3.58195745719779,2.38797163813186,337.725658945484
738332.44355830177664756775,3.58195745719779,2.38797163813186,337.76258634195
738332.44355839223135262728,3.55733919288715,2.37566250597654,337.750277209794
738332.44355848268605768681,3.55733919288715,2.37566250597654,337.725658945484
738332.44355857302434742451,3.55733919288715,2.37566250597654,337.774895474105
738332.44355866347905248404,3.55733919288715,2.37566250597654,337.78720460626
738332.44355875393375754356,3.55733919288715,2.37566250597654,337.713349813328
738332.44355884438846260309,3.55733919288715,2.37566250597654,337.725658945484
738332.44355893484316766262,3.54503006073183,2.36335337382122,337.725658945484
738332.44355902529787272215,3.55733919288715,2.37566250597654,337.737968077639
738332.44355911563616245985,3.55733919288715,2.37566250597654,337.737968077639
738332.44355920609086751938,3.55733919288715,2.37566250597654,337.750277209794
738332.44355929654557257891,3.55733919288715,2.37566250597654,337.799513738416
738332.44355938700027763844,3.56964832504247,2.37566250597654,337.737968077639
738332.44355947745498269796,3.56964832504247,2.37566250597654,337.76258634195
738332.44355956779327243567,3.56964832504247,2.37566250597654,337.701040681173
738332.44355965824797749519,3.58195745719779,2.38797163813186,337.737968077639
738332.44355974870268255472,3.58195745719779,2.38797163813186,337.737968077639
738332.44355983915738761425,3.59426658935311,2.38797163813186,337.713349813328
738332.44355992961209267378,3.58195745719779,2.38797163813186,337.76258634195
738332.44356002006679773331,3.58195745719779,2.38797163813186,337.76258634195
738332.44356011040508747101,3.58195745719779,2.40028077028718,337.750277209794
738332.44356020085979253054,3.58195745719779,2.40028077028718,337.750277209794
738332.44356029131449759007,3.58195745719779,2.40028077028718,337.688731549018
738332.44356038176920264959,3.56964832504247,2.40028077028718,337.651804152552
738332.44356047222390770912,3.56964832504247,2.40028077028718,337.701040681173
738332.44356056267861276865,3.56964832504247,2.38797163813186,337.467167170222
738332.44356065301690250635,3.56964832504247,2.38797163813186,337.516403698843
738332.44356074347160756588,3.56964832504247,2.38797163813186,337.639495020397
738332.44356083392631262541,3.56964832504247,2.38797163813186,337.713349813328
738332.44356092438101768494,3.55733919288715,2.38797163813186,337.750277209794
738332.44356101483572274446,3.55733919288715,2.38797163813186,337.76258634195
738332.44356110517401248217,3.55733919288715,2.38797163813186,337.78720460626
738332.44356119562871754169,3.55733919288715,2.40028077028718,337.78720460626
738332.44356128608342260122,3.54503006073183,2.38797163813186,337.78720460626
738332.44356137653812766075,3.54503006073183,2.40028077028718,337.76258634195
738332.44356146699283272028,3.54503006073183,2.38797163813186,337.774895474105
738332.44356155744753777981,3.55733919288715,2.38797163813186,337.824132002726
738332.44356164778582751751,3.54503006073183,2.40028077028718,337.701040681173
738332.44356173824053257704,3.55733919288715,2.38797163813186,337.774895474105
738332.44356182869523763657,3.56964832504247,2.38797163813186,337.811822870571
738332.44356191914994269609,3.58195745719779,2.38797163813186,337.76258634195
738332.44356200960464775562,3.58195745719779,2.38797163813186,337.737968077639
738332.44356209994293749332,3.61888485366375,2.40028077028718,337.737968077639
738332.44356219039764255285,3.64350311797438,2.4125899024425,337.737968077639
738332.44356228085234761238,3.64350311797438,2.42489903459782,337.664113284707
738332.44356237130705267191,3.64350311797438,2.43720816675314,337.688731549018
738332.44356246176175773144,3.63119398581907,2.44951729890845,337.676422416862
738332.44356255221646279097,3.63119398581907,2.44951729890845,337.651804152552
738332.44356264255475252867,3.63119398581907,2.44951729890845,337.627185888241
738332.44356273300945758820,3.58195745719779,2.42489903459782,337.725658945484
738332.44356282346416264772,3.55733919288715,2.4125899024425,337.774895474105
738332.44356291391886770725,3.53272092857652,2.38797163813186,337.78720460626
738332.44356300437357276678,3.5204117964212,2.37566250597654,337.750277209794
738332.44356309471186250448,3.5204117964212,2.38797163813186,337.811822870571
738332.44356318516656756401,3.50810266426588,2.37566250597654,337.811822870571
738332.44356327562127262354,3.50810266426588,2.37566250597654,337.701040681173
738332.44356336607597768307,3.50810266426588,2.37566250597654,337.78720460626
738332.44356345653068274260,3.49579353211056,2.37566250597654,337.824132002726
738332.44356354698538780212,3.49579353211056,2.36335337382122,337.737968077639
738332.44356363732367753983,3.48348439995524,2.38797163813186,337.811822870571
738332.44356372777838259935,3.53272092857652,2.4125899024425,337.848750267037
738332.44356381823308765888,3.72966704306162,2.51106295968505,337.78720460626
738332.44356390868779271841,4.02508621478927,2.73262733848079,337.688731549018
738332.44356399914249777794,4.25895972574033,2.74493647063611,337.405621509445
738332.44356408948078751564,3.92661315754672,2.46182643106377,337.147129734184
738332.44356417993549257517,3.31115654978078,1.96946114485102,337.405621509445
738332.44356427039019763470,3.10190130314035,1.99407940916166,337.701040681173
738332.44356436084490269423,3.20037436038291,2.19102552364676,337.774895474105
738332.44356445129960775375,3.23730175684886,2.22795292011272,337.811822870571
738332.44356454175431281328,3.34808394624673,2.32642597735527,337.885677663503
738332.44356463209260255098,3.4588661356446,2.4125899024425,337.885677663503
738332.44356472254730761051,3.5204117964212,2.43720816675314,337.78720460626
738332.44356481300201267004,3.55733919288715,2.43720816675314,337.725658945484
738332.44356490345671772957,3.56964832504247,2.42489903459782,337.750277209794
738332.44356499391142278910,3.56964832504247,2.42489903459782,337.701040681173
738332.44356508424971252680,3.58195745719779,2.43720816675314,337.701040681173
738332.44356517470441758633,3.59426658935311,2.42489903459782,337.76258634195
738332.44356526515912264585,3.60657572150843,2.44951729890845,337.688731549018
738332.44356535561382770538,3.60657572150843,2.43720816675314,337.774895474105
738332.44356544606853276491,3.61888485366375,2.44951729890845,337.78720460626
738332.44356553652323782444,3.63119398581907,2.46182643106377,337.799513738416
738332.44356562686152756214,3.64350311797438,2.46182643106377,337.713349813328
738332.44356571731623262167,3.64350311797438,2.47413556321909,337.750277209794
738332.44356580777093768120,3.66812138228502,2.47413556321909,337.76258634195
738332.44356589822564274073,3.68043051444034,2.47413556321909,337.737968077639
738332.44356598868034780025,3.70504877875098,2.49875382752973,337.76258634195
738332.44356607901863753796,3.7173579109063,2.49875382752973,337.799513738416
738332.44356616947334259748,3.74197617521694,2.51106295968505,337.774895474105
738332.44356625992804765701,3.75428530737225,2.52337209184037,337.713349813328
738332.44356635038275271654,3.76659443952757,2.53568122399569,337.725658945484
738332.44356644083745777607,3.80352183599353,2.54799035615101,337.76258634195
738332.44356653129216283560,3.81583096814885,2.56029948830632,337.664113284707
738332.44356662163045257330,3.82814010030417,2.57260862046164,337.737968077639
738332.44356671208515763283,3.84044923245949,2.57260862046164,337.774895474105
738332.44356680253986269236,3.82814010030417,2.56029948830632,337.725658945484
738332.44356689299456775188,3.81583096814885,2.53568122399569,337.688731549018
738332.44356698344927281141,3.79121270383821,2.52337209184037,337.725658945484
738332.44356707378756254911,3.75428530737225,2.49875382752973,337.750277209794
738332.44356716424226760864,3.7173579109063,2.48644469537441,337.614876756086
738332.44356725469697266817,3.66812138228502,2.46182643106377,337.737968077639
738332.44356734515167772770,3.63119398581907,2.44951729890845,337.737968077639
738332.44356743560638278723,3.60657572150843,2.42489903459782,337.676422416862
738332.44356752606108784676,3.58195745719779,2.4125899024425,337.664113284707
738332.44356761639937758446,3.55733919288715,2.4125899024425,337.528712830999
738332.44356770685408264399,3.55733919288715,2.40028077028718,337.590258491775
738332.44356779730878770351,3.54503006073183,2.40028077028718,337.750277209794
738332.44356788776349276304,3.54503006073183,2.40028077028718,337.750277209794
738332.44356797821819782257,3.53272092857652,2.40028077028718,337.799513738416
738332.44356806867290288210,3.5204117964212,2.38797163813186,337.78720460626
738332.44356815901119261980,3.5204117964212,2.38797163813186,337.774895474105
738332.44356824946589767933,3.53272092857652,2.38797163813186,337.76258634195
738332.44356833992060273886,3.53272092857652,2.38797163813186,337.78720460626
738332.44356843037530779839,3.5204117964212,2.38797163813186,337.824132002726
738332.44356852083001285791,3.53272092857652,2.37566250597654,337.737968077639
738332.44356861116830259562,3.53272092857652,2.38797163813186,337.774895474105
738332.44356870162300765514,3.53272092857652,2.38797163813186,337.78720460626
738332.44356879207771271467,3.53272092857652,2.38797163813186,337.688731549018
738332.44356888253241777420,3.53272092857652,2.38797163813186,337.737968077639
738332.44356897298712283373,3.54503006073183,2.40028077028718,337.713349813328
738332.44356906344182789326,3.54503006073183,2.40028077028718,337.774895474105
738332.44356915378011763096,3.54503006073183,2.4125899024425,337.688731549018
738332.44356924423482269049,3.55733919288715,2.4125899024425,337.737968077639
738332.44356933468952775002,3.55733919288715,2.4125899024425,337.750277209794
738332.44356942514423280954,3.55733919288715,2.42489903459782,337.76258634195
738332.44356951559893786907,3.55733919288715,2.42489903459782,337.76258634195
738332.44356960593722760677,3.55733919288715,2.4125899024425,337.676422416862
738332.44356969639193266630,3.56964832504247,2.4125899024425,337.76258634195
738332.44356978684663772583,3.55733919288715,2.42489903459782,337.750277209794
738332.44356987730134278536,3.55733919288715,2.4125899024425,337.713349813328
738332.44356996775604784489,3.56964832504247,2.4125899024425,337.676422416862
738332.44357005821075290442,3.56964832504247,2.4125899024425,337.76258634195
738332.44357014854904264212,3.55733919288715,2.42489903459782,337.76258634195
738332.44357023900374770164,3.55733919288715,2.4125899024425,337.701040681173
738332.44357032945845276117,3.55733919288715,2.40028077028718,337.750277209794
738332.44357041991315782070,3.55733919288715,2.40028077028718,337.76258634195
738332.44357051036786288023,3.55733919288715,2.4125899024425,337.750277209794
738332.44357060070615261793,3.55733919288715,2.4125899024425,337.725658945484
738332.44357069116085767746,3.55733919288715,2.40028077028718,337.737968077639
738332.44357078161556273699,3.55733919288715,2.4125899024425,337.737968077639
738332.44357087207026779652,3.54503006073183,2.4125899024425,337.701040681173
738332.44357096252497285604,3.54503006073183,2.4125899024425,337.701040681173
738332.44357105297967791557,3.54503006073183,2.40028077028718,337.750277209794
738332.44357114331796765327,3.54503006073183,2.4125899024425,337.627185888241
738332.44357123377267271280,3.54503006073183,2.40028077028718,337.614876756086
738332.44357132422737777233,3.54503006073183,2.4125899024425,337.76258634195
738332.44357141468208283186,3.54503006073183,2.4125899024425,337.799513738416
738332.44357150513678789139,3.54503006073183,2.4125899024425,337.737968077639
738332.44357159547507762909,3.55733919288715,2.4125899024425,337.737968077639
738332.44357168592978268862,3.54503006073183,2.4125899024425,337.737968077639
738332.44357177638448774815,3.55733919288715,2.40028077028718,337.701040681173
738332.44357186683919280767,3.56964832504247,2.40028077028718,337.701040681173
738332.44357195729389786720,3.58195745719779,2.40028077028718,337.76258634195
738332.44357204774860292673,3.59426658935311,2.4125899024425,337.676422416862
738332.44357213808689266443,3.61888485366375,2.42489903459782,337.614876756086
738332.44357222854159772396,3.64350311797438,2.42489903459782,337.602567623931
738332.44357231899630278349,3.6558122501297,2.43720816675314,337.614876756086
738332.44357240945100784302,3.6558122501297,2.47413556321909,337.614876756086
738332.44357249990571290255,3.64350311797438,2.46182643106377,337.639495020397
738332.44357259024400264025,3.63119398581907,2.47413556321909,337.627185888241
738332.44357268069870769978,3.60657572150843,2.44951729890845,337.725658945484
738332.44357277115341275930,3.56964832504247,2.42489903459782,337.725658945484
738332.44357286160811781883,3.54503006073183,2.40028077028718,337.76258634195
738332.44357295206282287836,3.53272092857652,2.40028077028718,337.774895474105
738332.44357304251752793789,3.53272092857652,2.40028077028718,337.750277209794
738332.44357313285581767559,3.5204117964212,2.40028077028718,337.774895474105
738332.44357322331052273512,3.5204117964212,2.40028077028718,337.750277209794
738332.44357331376522779465,3.5204117964212,2.38797163813186,337.713349813328
738332.44357340421993285418,3.5204117964212,2.38797163813186,337.750277209794
738332.44357349467463791370,3.5204117964212,2.40028077028718,337.750277209794
738332.44357358501292765141,3.50810266426588,2.42489903459782,337.811822870571
738332.44357367546763271093,3.53272092857652,2.4125899024425,337.873368531348
738332.44357376592233777046,3.59426658935311,2.42489903459782,337.861059399192
738332.44357385637704282999,3.85275836461481,2.62184514908292,337.824132002726
738332.44357394683174788952,4.1112501398765,2.76955473494675,337.664113284707
738332.44357403728645294905,4.19741406496373,2.72031820632547,337.442548905911
738332.44357412762474268675,3.68043051444034,2.28949858088931,337.504094566688
738332.44357421807944774628,3.20037436038291,1.90791548407442,337.516403698843
738332.44357430853415280581,3.15113783176163,2.08024333424889,337.824132002726
738332.44357439898885786533,3.24961088900418,2.24026205226803,337.922605059969
738332.44357448944356292486,3.34808394624673,2.33873510951058,337.922605059969
738332.44357457978185266256,3.4588661356446,2.4125899024425,338.033387249367
738332.44357467023655772209,3.53272092857652,2.46182643106377,337.824132002726
738332.44357476069126278162,3.56964832504247,2.46182643106377,337.688731549018
738332.44357485114596784115,3.59426658935311,2.44951729890845,337.78720460626
738332.44357494160067290068,3.59426658935311,2.44951729890845,337.78720460626
738332.44357503205537796021,3.60657572150843,2.46182643106377,337.811822870571
738332.44357512239366769791,3.61888485366375,2.46182643106377,337.774895474105
738332.44357521284837275743,3.63119398581907,2.46182643106377,337.774895474105
738332.44357530330307781696,3.64350311797438,2.47413556321909,337.76258634195
738332.44357539375778287649,3.64350311797438,2.47413556321909,337.688731549018
738332.44357548421248793602,3.6558122501297,2.47413556321909,337.750277209794
738332.44357557455077767372,3.66812138228502,2.48644469537441,337.799513738416
738332.44357566500548273325,3.68043051444034,2.48644469537441,337.78720460626
738332.44357575546018779278,3.69273964659566,2.48644469537441,337.713349813328
738332.44357584591489285231,3.70504877875098,2.51106295968505,337.713349813328
738332.44357593636959791183,3.7173579109063,2.51106295968505,337.688731549018
738332.44357602682430297136,3.74197617521694,2.52337209184037,337.688731549018
738332.44357611716259270906,3.75428530737225,2.53568122399569,337.676422416862
738332.44357620761729776859,3.79121270383821,2.54799035615101,337.688731549018
738332.44357629807200282812,3.80352183599353,2.57260862046164,337.676422416862
738332.44357638852670788765,3.84044923245949,2.58491775261696,337.676422416862
738332.44357647898141294718,3.85275836461481,2.59722688477228,337.676422416862
738332.44357656943611800671,3.86506749677012,2.59722688477228,337.602567623931
738332.44357665977440774441,3.87737662892544,2.6095360169276,337.627185888241
738332.44357675022911280394,3.87737662892544,2.59722688477228,337.614876756086
738332.44357684068381786346,3.85275836461481,2.58491775261696,337.664113284707
738332.44357693113852292299,3.82814010030417,2.54799035615101,337.639495020397
738332.44357702159322798252,3.79121270383821,2.53568122399569,337.651804152552
738332.44357711193151772022,3.75428530737225,2.51106295968505,337.651804152552
738332.44357720238622277975,3.7173579109063,2.48644469537441,337.651804152552
738332.44357729284092783928,3.68043051444034,2.47413556321909,337.701040681173
738332.44357738329563289881,3.6558122501297,2.46182643106377,337.701040681173
738332.44357747375033795834,3.63119398581907,2.43720816675314,337.676422416862
738332.44357756420504301786,3.61888485366375,2.43720816675314,337.725658945484
738332.44357765454333275557,3.60657572150843,2.42489903459782,337.725658945484
738332.44357774499803781509,3.60657572150843,2.4125899024425,337.737968077639
738332.44357783545274287462,3.58195745719779,2.4125899024425,337.737968077639
738332.44357792590744793415,3.58195745719779,2.40028077028718,337.824132002726
738332.44357801636215299368,3.56964832504247,2.40028077028718,337.811822870571
738332.44357810670044273138,3.56964832504247,2.40028077028718,337.76258634195
738332.44357819715514779091,3.56964832504247,2.40028077028718,337.651804152552
738332.44357828760985285044,3.58195745719779,2.40028077028718,337.664113284707
738332.44357837806455790997,3.58195745719779,2.40028077028718,337.76258634195
738332.44357846851926296949,3.58195745719779,2.40028077028718,337.713349813328
738332.44357855897396802902,3.59426658935311,2.40028077028718,337.76258634195
738332.44357864931225776672,3.58195745719779,2.4125899024425,337.774895474105
738332.44357873976696282625,3.59426658935311,2.4125899024425,337.725658945484
738332.44357883022166788578,3.60657572150843,2.4125899024425,337.750277209794
738332.44357892067637294531,3.60657572150843,2.4125899024425,337.811822870571
738332.44357901113107800484,3.60657572150843,2.42489903459782,337.713349813328
738332.44357910146936774254,3.61888485366375,2.42489903459782,337.737968077639
738332.44357919192407280207,3.61888485366375,2.42489903459782,337.76258634195
738332.44357928237877786160,3.63119398581907,2.42489903459782,337.799513738416
738332.44357937283348292112,3.63119398581907,2.43720816675314,337.701040681173
738332.44357946328818798065,3.63119398581907,2.43720816675314,337.76258634195
738332.44357955374289304018,3.63119398581907,2.42489903459782,337.799513738416
738332.44357964408118277788,3.63119398581907,2.42489903459782,337.676422416862
738332.44357973453588783741,3.63119398581907,2.43720816675314,337.713349813328
738332.44357982499059289694,3.63119398581907,2.42489903459782,337.701040681173
738332.44357991544529795647,3.61888485366375,2.4125899024425,337.774895474105
738332.44358000590000301600,3.63119398581907,2.42489903459782,337.774895474105
738332.44358009623829275370,3.61888485366375,2.4125899024425,337.664113284707
738332.44358018669299781322,3.60657572150843,2.40028077028718,337.676422416862
738332.44358027714770287275,3.61888485366375,2.4125899024425,337.750277209794
738332.44358036760240793228,3.60657572150843,2.4125899024425,337.713349813328
738332.44358045805711299181,3.61888485366375,2.4125899024425,337.78720460626
738332.44358054851181805134,3.60657572150843,2.4125899024425,337.664113284707
738332.44358063885010778904,3.61888485366375,2.4125899024425,337.725658945484
738332.44358072930481284857,3.60657572150843,2.40028077028718,337.688731549018
738332.44358081975951790810,3.61888485366375,2.4125899024425,337.725658945484
738332.44358091021422296762,3.61888485366375,2.40028077028718,337.701040681173
738332.44358100066892802715,3.61888485366375,2.4125899024425,337.701040681173
738332.44358109100721776485,3.61888485366375,2.4125899024425,337.713349813328
738332.44358118146192282438,3.61888485366375,2.40028077028718,337.688731549018
738332.44358127191662788391,3.61888485366375,2.38797163813186,337.701040681173
738332.44358136237133294344,3.61888485366375,2.40028077028718,337.688731549018
738332.44358145282603800297,3.63119398581907,2.40028077028718,337.688731549018
738332.44358154328074306250,3.61888485366375,2.40028077028718,337.76258634195
738332.44358163361903280020,3.63119398581907,2.40028077028718,337.737968077639
738332.44358172407373785973,3.61888485366375,2.40028077028718,337.713349813328
738332.44358181452844291925,3.63119398581907,2.40028077028718,337.614876756086
738332.44358190498314797878,3.61888485366375,2.40028077028718,337.76258634195
738332.44358199543785303831,3.63119398581907,2.38797163813186,337.774895474105
738332.44358208577614277601,3.63119398581907,2.40028077028718,337.824132002726
738332.44358217623084783554,3.64350311797438,2.38797163813186,337.811822870571
738332.44358226668555289507,3.64350311797438,2.40028077028718,337.737968077639
738332.44358235714025795460,3.66812138228502,2.42489903459782,337.78720460626
738332.44358244759496301413,3.69273964659566,2.4125899024425,337.78720460626
738332.44358253804966807365,3.7173579109063,2.42489903459782,337.701040681173
738332.44358262838795781136,3.72966704306162,2.43720816675314,337.774895474105
738332.44358271884266287088,3.7173579109063,2.44951729890845,337.774895474105
738332.44358280929736793041,3.72966704306162,2.46182643106377,337.725658945484
738332.44358289975207298994,3.70504877875098,2.44951729890845,337.799513738416
738332.44358299020677804947,3.66812138228502,2.4125899024425,337.848750267037
738332.44358308054506778717,3.64350311797438,2.40028077028718,337.811822870571
738332.44358317099977284670,3.63119398581907,2.38797163813186,337.76258634195
738332.44358326145447790623,3.61888485366375,2.38797163813186,337.836441134882
738332.44358335190918296576,3.60657572150843,2.37566250597654,337.811822870571
738332.44358344236388802528,3.60657572150843,2.37566250597654,337.774895474105
738332.44358353281859308481,3.60657572150843,2.37566250597654,337.836441134882
738332.44358362315688282251,3.58195745719779,2.36335337382122,337.836441134882
738332.44358371361158788204,3.59426658935311,2.36335337382122,337.824132002726
738332.44358380406629294157,3.60657572150843,2.36335337382122,337.811822870571
738332.44358389452099800110,3.59426658935311,2.38797163813186,337.836441134882
738332.44358398497570306063,3.61888485366375,2.38797163813186,337.861059399192
738332.44358407543040812016,3.81583096814885,2.48644469537441,337.750277209794
738332.44358416576869785786,4.07432274341055,2.69569994201483,337.78720460626
738332.44358425622340291739,4.27126885789565,2.72031820632547,337.614876756086
738332.44358434667810797691,4.02508621478927,2.4125899024425,337.417930641601
738332.44358443713281303644,3.48348439995524,1.92022461622974,337.491785434533
738332.44358452758751809597,3.2619200211595,1.90791548407442,337.651804152552
738332.44358461792580783367,3.24961088900418,2.12947986287016,337.836441134882
738332.44358470838051289320,3.36039307840205,2.26488031657867,337.97184158859
738332.44358479883521795273,3.43424787133396,2.36335337382122,337.996459852901
738332.44358488928992301226,3.5204117964212,2.4125899024425,337.959532456435
738332.44358497974462807178,3.59426658935311,2.43720816675314,337.959532456435
738332.44358507019933313131,3.61888485366375,2.42489903459782,337.897986795658
738332.44358516053762286901,3.6558122501297,2.42489903459782,337.861059399192
738332.44358525099232792854,3.66812138228502,2.42489903459782,337.76258634195
738332.44358534144703298807,3.68043051444034,2.42489903459782,337.627185888241
738332.44358543190173804760,3.69273964659566,2.42489903459782,337.750277209794
738332.44358552235644310713,3.70504877875098,2.43720816675314,337.750277209794
738332.44358561269473284483,3.70504877875098,2.43720816675314,337.774895474105
738332.44358570314943790436,3.7173579109063,2.43720816675314,337.78720460626
738332.44358579360414296389,3.72966704306162,2.43720816675314,337.78720460626
738332.44358588405884802341,3.74197617521694,2.44951729890845,337.811822870571
738332.44358597451355308294,3.75428530737225,2.44951729890845,337.811822870571
738332.44358606496825814247,3.76659443952757,2.47413556321909,337.78720460626
738332.44358615530654788017,3.79121270383821,2.48644469537441,337.750277209794
738332.44358624576125293970,3.80352183599353,2.49875382752973,337.811822870571
738332.44358633621595799923,3.81583096814885,2.51106295968505,337.811822870571
738332.44358642667066305876,3.84044923245949,2.52337209184037,337.701040681173
738332.44358651712536811829,3.86506749677012,2.53568122399569,337.78720460626
738332.44358660746365785599,3.88968576108076,2.54799035615101,337.78720460626
738332.44358669791836291552,3.92661315754672,2.56029948830632,337.811822870571
738332.44358678837306797504,3.95123142185736,2.58491775261696,337.688731549018
738332.44358687882777303457,3.96354055401268,2.58491775261696,337.76258634195
738332.44358696928247809410,3.97584968616799,2.58491775261696,337.774895474105
738332.44358705973718315363,3.96354055401268,2.58491775261696,337.76258634195
738332.44358715007547289133,3.93892228970204,2.54799035615101,337.713349813328
738332.44358724053017795086,3.92661315754672,2.53568122399569,337.750277209794
738332.44358733098488301039,3.87737662892544,2.51106295968505,337.774895474105
738332.44358742143958806992,3.84044923245949,2.47413556321909,337.76258634195
738332.44358751189429312944,3.79121270383821,2.46182643106377,337.811822870571
738332.44358760223258286715,3.76659443952757,2.43720816675314,337.811822870571
738332.44358769268728792667,3.72966704306162,2.4125899024425,337.725658945484
738332.44358778314199298620,3.70504877875098,2.40028077028718,337.799513738416
738332.44358787359669804573,3.68043051444034,2.37566250597654,337.737968077639
738332.44358796405140310526,3.6558122501297,2.37566250597654,337.713349813328
738332.44358805450610816479,3.6558122501297,2.36335337382122,337.824132002726
738332.44358814484439790249,3.6558122501297,2.3510442416659,337.76258634195
738332.44358823529910296202,3.64350311797438,2.3510442416659,337.725658945484
738332.44358832575380802155,3.64350311797438,2.33873510951058,337.750277209794
738332.44358841620851308107,3.64350311797438,2.33873510951058,337.750277209794
738332.44358850666321814060,3.64350311797438,2.33873510951058,337.78720460626
738332.44358859700150787830,3.63119398581907,2.33873510951058,337.824132002726
738332.44358868745621293783,3.64350311797438,2.3510442416659,337.799513738416
738332.44358877791091799736,3.64350311797438,2.3510442416659,337.713349813328
738332.44358886836562305689,3.6558122501297,2.3510442416659,337.614876756086
738332.44358895882032811642,3.6558122501297,2.3510442416659,337.76258634195
738332.44358904927503317595,3.68043051444034,2.36335337382122,337.836441134882
738332.44358913961332291365,3.68043051444034,2.37566250597654,337.836441134882
738332.44358923006802797318,3.68043051444034,2.37566250597654,337.725658945484
738332.44358932052273303270,3.68043051444034,2.36335337382122,337.811822870571
738332.44358941097743809223,3.68043051444034,2.36335337382122,337.737968077639
738332.44358950143214315176,3.69273964659566,2.36335337382122,337.750277209794
738332.44358959177043288946,3.69273964659566,2.37566250597654,337.811822870571
738332.44358968222513794899,3.68043051444034,2.36335337382122,337.774895474105
738332.44358977267984300852,3.69273964659566,2.37566250597654,337.750277209794
738332.44358986313454806805,3.68043051444034,2.37566250597654,337.750277209794
738332.44358995358925312757,3.68043051444034,2.36335337382122,337.701040681173
738332.44359004404395818710,3.66812138228502,2.36335337382122,337.750277209794
738332.44359013438224792480,3.68043051444034,2.3510442416659,337.811822870571
738332.44359022483695298433,3.66812138228502,2.36335337382122,337.737968077639
738332.44359031529165804386,3.66812138228502,2.3510442416659,337.78720460626
738332.44359040574636310339,3.6558122501297,2.33873510951058,337.76258634195
738332.44359049620106816292,3.66812138228502,2.36335337382122,337.811822870571
738332.44359058653935790062,3.66812138228502,2.3510442416659,337.811822870571
738332.44359067699406296015,3.66812138228502,2.3510442416659,337.848750267037
738332.44359076744876801968,3.6558122501297,2.33873510951058,337.861059399192
738332.44359085790347307920,3.6558122501297,2.33873510951058,337.811822870571
738332.44359094835817813873,3.66812138228502,2.33873510951058,337.848750267037
738332.44359103881288319826,3.6558122501297,2.32642597735527,337.861059399192
738332.44359112915117293596,3.66812138228502,2.32642597735527,337.873368531348
738332.44359121960587799549,3.6558122501297,2.33873510951058,337.799513738416
738332.44359131006058305502,3.66812138228502,2.32642597735527,337.836441134882
738332.44359140051528811455,3.66812138228502,2.33873510951058,337.836441134882
738332.44359149096999317408,3.6558122501297,2.33873510951058,337.78720460626
738332.44359158130828291178,3.6558122501297,2.33873510951058,337.848750267037
738332.44359167176298797131,3.68043051444034,2.33873510951058,337.811822870571
738332.44359176221769303083,3.69273964659566,2.33873510951058,337.76258634195
738332.44359185267239809036,3.70504877875098,2.3510442416659,337.78720460626
738332.44359194312710314989,3.72966704306162,2.36335337382122,337.725658945484
738332.44359203358180820942,3.75428530737225,2.36335337382122,337.713349813328
738332.44359212392009794712,3.76659443952757,2.37566250597654,337.774895474105
738332.44359221437480300665,3.76659443952757,2.38797163813186,337.76258634195
738332.44359230482950806618,3.75428530737225,2.40028077028718,337.528712830999
738332.44359239528421312571,3.75428530737225,2.40028077028718,337.664113284707
738332.44359248573891818523,3.70504877875098,2.36335337382122,337.713349813328
738332.44359257619362324476,3.69273964659566,2.36335337382122,337.737968077639
738332.44359266653191298246,3.68043051444034,2.32642597735527,337.836441134882
738332.44359275698661804199,3.6558122501297,2.31411684519995,337.774895474105
738332.44359284744132310152,3.64350311797438,2.32642597735527,337.750277209794
738332.44359293789602816105,3.63119398581907,2.31411684519995,337.799513738416
738332.44359302835073322058,3.64350311797438,2.31411684519995,337.824132002726
738332.44359311868902295828,3.63119398581907,2.30180771304463,337.824132002726
738332.44359320914372801781,3.64350311797438,2.30180771304463,337.873368531348
738332.44359329959843307734,3.63119398581907,2.30180771304463,337.861059399192
738332.44359339005313813686,3.63119398581907,2.31411684519995,337.78720460626
738332.44359348050784319639,3.63119398581907,2.33873510951058,337.910295927814
738332.44359357096254825592,3.74197617521694,2.33873510951058,337.799513738416
738332.44359366130083799362,4.01277708263395,2.52337209184037,337.774895474105
738332.44359375175554305315,4.28357799005097,2.64646341339356,337.639495020397
738332.44359384221024811268,4.29588712220628,2.49875382752973,337.528712830999
738332.44359393266495317221,3.76659443952757,2.08024333424889,337.57794935962
738332.44359402311965823174,3.28653828547014,1.79713329467655,337.676422416862
738332.44359411345794796944,3.22499262469354,1.99407940916166,337.836441134882
738332.44359420391265302896,3.27422915331482,2.1540981271808,337.910295927814
738332.44359429436735808849,3.42193873917865,2.26488031657867,337.922605059969
738332.44359438482206314802,3.4588661356446,2.31411684519995,337.959532456435
738332.44359447527676820755,3.55733919288715,2.38797163813186,337.959532456435
738332.44359456573147326708,3.61888485366375,2.38797163813186,337.910295927814
738332.44359465606976300478,3.66812138228502,2.38797163813186,337.848750267037
738332.44359474652446806431,3.70504877875098,2.37566250597654,337.811822870571
738332.44359483697917312384,3.7173579109063,2.36335337382122,337.836441134882
738332.44359492743387818336,3.72966704306162,2.37566250597654,337.824132002726
738332.44359501788858324289,3.74197617521694,2.37566250597654,337.861059399192
738332.44359510822687298059,3.75428530737225,2.38797163813186,337.774895474105
738332.44359519868157804012,3.76659443952757,2.38797163813186,337.824132002726
738332.44359528913628309965,3.77890357168289,2.38797163813186,337.836441134882
738332.44359537959098815918,3.77890357168289,2.40028077028718,337.725658945484
738332.44359547004569321871,3.80352183599353,2.4125899024425,337.799513738416
738332.44359556050039827824,3.81583096814885,2.4125899024425,337.78720460626
738332.44359565083868801594,3.82814010030417,2.43720816675314,337.76258634195
738332.44359574129339307547,3.85275836461481,2.43720816675314,337.774895474105
738332.44359583174809813499,3.87737662892544,2.44951729890845,337.651804152552
738332.44359592220280319452,3.90199489323608,2.47413556321909,337.664113284707
738332.44359601265750825405,3.92661315754672,2.48644469537441,337.750277209794
738332.44359610299579799175,3.95123142185736,2.49875382752973,337.750277209794
738332.44359619345050305128,3.98815881832331,2.52337209184037,337.713349813328
738332.44359628390520811081,4.00046795047863,2.53568122399569,337.713349813328
738332.44359637435991317034,4.01277708263395,2.54799035615101,337.651804152552
738332.44359646481461822987,4.03739534694459,2.54799035615101,337.639495020397
738332.44359655526932328939,4.03739534694459,2.53568122399569,337.701040681173
738332.44359664560761302710,4.02508621478927,2.53568122399569,337.737968077639
738332.44359673606231808662,4.00046795047863,2.52337209184037,337.713349813328
738332.44359682651702314615,3.97584968616799,2.49875382752973,337.774895474105
738332.44359691697172820568,3.92661315754672,2.46182643106377,337.78720460626
738332.44359700742643326521,3.87737662892544,2.43720816675314,337.701040681173
738332.44359709776472300291,3.82814010030417,2.40028077028718,337.725658945484
738332.44359718821942806244,3.80352183599353,2.38797163813186,337.811822870571
738332.44359727867413312197,3.76659443952757,2.37566250597654,337.799513738416
738332.44359736912883818150,3.74197617521694,2.36335337382122,337.799513738416
738332.44359745958354324102,3.74197617521694,2.36335337382122,337.78720460626
738332.44359755003824830055,3.7173579109063,2.33873510951058,337.836441134882
738332.44359764037653803825,3.70504877875098,2.33873510951058,337.750277209794
738332.44359773083124309778,3.70504877875098,2.32642597735527,337.750277209794
738332.44359782128594815731,3.69273964659566,2.32642597735527,337.750277209794
738332.44359791174065321684,3.68043051444034,2.31411684519995,337.799513738416
738332.44359800219535827637,3.69273964659566,2.32642597735527,337.750277209794
738332.44359809253364801407,3.69273964659566,2.31411684519995,337.824132002726
738332.44359818298835307360,3.69273964659566,2.31411684519995,337.799513738416
738332.44359827344305813313,3.69273964659566,2.32642597735527,337.78720460626
738332.44359836389776319265,3.70504877875098,2.32642597735527,337.799513738416
738332.44359845435246825218,3.70504877875098,2.33873510951058,337.848750267037
738332.44359854480717331171,3.70504877875098,2.33873510951058,337.824132002726
738332.44359863514546304941,3.7173579109063,2.33873510951058,337.725658945484
738332.44359872560016810894,3.7173579109063,2.3510442416659,337.76258634195
738332.44359881605487316847,3.72966704306162,2.36335337382122,337.799513738416
738332.44359890650957822800,3.74197617521694,2.3510442416659,337.713349813328
738332.44359899696428328753,3.72966704306162,2.36335337382122,337.737968077639
738332.44359908730257302523,3.74197617521694,2.36335337382122,337.750277209794
738332.44359917775727808475,3.74197617521694,2.36335337382122,337.737968077639
738332.44359926821198314428,3.74197617521694,2.37566250597654,337.725658945484
738332.44359935866668820381,3.72966704306162,2.36335337382122,337.590258491775
738332.44359944912139326334,3.72966704306162,2.36335337382122,337.701040681173
738332.44359953957609832287,3.72966704306162,2.36335337382122,337.861059399192
738332.44359962991438806057,3.7173579109063,2.36335337382122,337.774895474105
738332.44359972036909312010,3.72966704306162,2.36335337382122,337.76258634195
738332.44359981082379817963,3.72966704306162,2.3510442416659,337.824132002726
738332.44359990127850323915,3.7173579109063,2.3510442416659,337.824132002726
738332.44359999173320829868,3.7173579109063,2.3510442416659,337.78720460626
738332.44360008218791335821,3.7173579109063,2.3510442416659,337.811822870571
738332.44360017252620309591,3.70504877875098,2.3510442416659,337.848750267037
738332.44360026298090815544,3.70504877875098,2.33873510951058,337.861059399192
738332.44360035343561321497,3.70504877875098,2.3510442416659,337.811822870571
738332.44360044389031827450,3.70504877875098,2.3510442416659,337.811822870571
738332.44360053434502333403,3.70504877875098,2.33873510951058,337.774895474105
738332.44360062468331307173,3.69273964659566,2.3510442416659,337.713349813328
738332.44360071513801813126,3.70504877875098,2.3510442416659,337.799513738416
738332.44360080559272319078,3.7173579109063,2.36335337382122,337.76258634195
738332.44360089604742825031,3.72966704306162,2.3510442416659,337.725658945484
738332.44360098650213330984,3.74197617521694,2.3510442416659,337.713349813328
738332.44360107695683836937,3.76659443952757,2.37566250597654,337.750277209794
738332.44360116729512810707,3.77890357168289,2.37566250597654,337.688731549018
738332.44360125774983316660,3.79121270383821,2.38797163813186,337.713349813328
738332.44360134820453822613,3.80352183599353,2.38797163813186,337.713349813328
738332.44360143865924328566,3.79121270383821,2.40028077028718,337.725658945484
738332.44360152911394834518,3.79121270383821,2.4125899024425,337.713349813328
738332.44360161945223808289,3.77890357168289,2.40028077028718,337.774895474105
738332.44360170990694314241,3.74197617521694,2.38797163813186,337.799513738416
738332.44360180036164820194,3.70504877875098,2.36335337382122,337.713349813328
738332.44360189081635326147,3.70504877875098,2.3510442416659,337.750277209794
738332.44360198127105832100,3.68043051444034,2.3510442416659,337.737968077639
738332.44360207172576338053,3.68043051444034,2.3510442416659,337.78720460626
738332.44360216206405311823,3.68043051444034,2.3510442416659,337.737968077639
738332.44360225251875817776,3.66812138228502,2.33873510951058,337.750277209794
738332.44360234297346323729,3.6558122501297,2.32642597735527,337.750277209794
738332.44360243342816829681,3.66812138228502,2.32642597735527,337.737968077639
738332.44360252388287335634,3.66812138228502,2.33873510951058,337.725658945484
738332.44360261422116309404,3.66812138228502,2.33873510951058,337.725658945484
738332.44360270467586815357,3.6558122501297,2.36335337382122,337.799513738416
738332.44360279513057321310,3.80352183599353,2.40028077028718,337.750277209794
738332.44360288558527827263,4.09894100772118,2.59722688477228,337.627185888241
738332.44360297603998333216,4.3697419151382,2.65877254554888,337.442548905911
738332.44360306649468839169,4.29588712220628,2.48644469537441,337.430239773756
738332.44360315683297812939,3.68043051444034,2.05562506993825,337.516403698843
738332.44360324728768318892,3.28653828547014,1.87098808760847,337.713349813328
738332.44360333774238824844,3.27422915331482,2.08024333424889,337.873368531348
738332.44360342819709330797,3.36039307840205,2.20333465580208,337.97184158859
738332.44360351865179836750,3.47117526779992,2.31411684519995,338.033387249367
738332.44360360899008810520,3.58195745719779,2.38797163813186,338.008768985056
738332.44360369944479316473,3.6558122501297,2.4125899024425,338.021078117211
738332.44360378989949822426,3.68043051444034,2.4125899024425,337.947223324279
738332.44360388035420328379,3.70504877875098,2.40028077028718,337.885677663503
738332.44360397080890834332,3.72966704306162,2.40028077028718,337.848750267037
738332.44360406126361340284,3.74197617521694,2.38797163813186,337.824132002726
738332.44360415160190314054,3.74197617521694,2.40028077028718,337.811822870571
738332.44360424205660820007,3.75428530737225,2.4125899024425,337.78720460626
738332.44360433251131325960,3.76659443952757,2.4125899024425,337.811822870571
738332.44360442296601831913,3.77890357168289,2.4125899024425,337.824132002726
738332.44360451342072337866,3.77890357168289,2.4125899024425,337.848750267037
738332.44360460375901311636,3.79121270383821,2.4125899024425,337.76258634195
738332.44360469421371817589,3.80352183599353,2.42489903459782,337.78720460626
738332.44360478466842323542,3.81583096814885,2.43720816675314,337.78720460626
738332.44360487512312829494,3.82814010030417,2.43720816675314,337.811822870571
738332.44360496557783335447,3.84044923245949,2.44951729890845,337.76258634195
738332.44360505603253841400,3.86506749677012,2.46182643106377,337.824132002726
738332.44360514637082815170,3.87737662892544,2.48644469537441,337.688731549018
738332.44360523682553321123,3.90199489323608,2.49875382752973,337.701040681173
738332.44360532728023827076,3.93892228970204,2.51106295968505,337.664113284707
738332.44360541773494333029,3.97584968616799,2.51106295968505,337.676422416862
738332.44360550818964838982,4.00046795047863,2.53568122399569,337.664113284707
738332.44360559852793812752,4.00046795047863,2.53568122399569,337.713349813328
738332.44360568898264318705,4.00046795047863,2.52337209184037,337.651804152552
738332.44360577943734824657,4.00046795047863,2.52337209184037,337.664113284707
738332.44360586989205330610,3.98815881832331,2.51106295968505,337.676422416862
738332.44360596034675836563,3.96354055401268,2.49875382752973,337.651804152552
738332.44360605080146342516,3.92661315754672,2.48644469537441,337.651804152552
738332.44360614113975316286,3.87737662892544,2.46182643106377,337.664113284707
738332.44360623159445822239,3.84044923245949,2.42489903459782,337.713349813328
738332.44360632204916328192,3.80352183599353,2.4125899024425,337.750277209794
738332.44360641250386834145,3.75428530737225,2.40028077028718,337.701040681173
738332.44360650295857340097,3.75428530737225,2.40028077028718,337.541021963154
738332.44360659329686313868,3.72966704306162,2.38797163813186,337.750277209794
738332.44360668375156819820,3.7173579109063,2.37566250597654,337.76258634195
738332.44360677420627325773,3.70504877875098,2.37566250597654,337.799513738416
738332.44360686466097831726,3.69273964659566,2.36335337382122,337.811822870571
738332.44360695511568337679,3.68043051444034,2.36335337382122,337.737968077639
738332.44360704557038843632,3.68043051444034,2.3510442416659,337.811822870571
738332.44360713590867817402,3.68043051444034,2.3510442416659,337.737968077639
738332.44360722636338323355,3.68043051444034,2.36335337382122,337.737968077639
738332.44360731681808829308,3.66812138228502,2.3510442416659,337.774895474105
738332.44360740727279335260,3.66812138228502,2.3510442416659,337.76258634195
738332.44360749772749841213,3.66812138228502,2.3510442416659,337.701040681173
738332.44360758806578814983,3.66812138228502,2.36335337382122,337.725658945484
738332.44360767852049320936,3.68043051444034,2.36335337382122,337.701040681173
738332.44360776897519826889,3.68043051444034,2.37566250597654,337.725658945484
738332.44360785942990332842,3.69273964659566,2.37566250597654,337.713349813328
738332.44360794988460838795,3.69273964659566,2.37566250597654,337.725658945484
738332.44360804033931344748,3.70504877875098,2.38797163813186,337.78720460626
738332.44360813067760318518,3.70504877875098,2.38797163813186,337.824132002726
738332.44360822113230824471,3.70504877875098,2.38797163813186,337.701040681173
738332.44360831158701330423,3.70504877875098,2.40028077028718,337.799513738416
738332.44360840204171836376,3.7173579109063,2.40028077028718,337.78720460626
738332.44360849249642342329,3.70504877875098,2.38797163813186,337.811822870571
738332.44360858295112848282,3.70504877875098,2.38797163813186,337.78720460626
738332.44360867328941822052,3.70504877875098,2.40028077028718,337.836441134882
738332.44360876374412328005,3.70504877875098,2.4125899024425,337.824132002726
738332.44360885419882833958,3.70504877875098,2.40028077028718,337.76258634195
738332.44360894465353339911,3.70504877875098,2.40028077028718,337.811822870571
738332.44360903510823845863,3.70504877875098,2.38797163813186,337.824132002726
738332.44360912544652819633,3.69273964659566,2.38797163813186,337.774895474105
738332.44360921590123325586,3.69273964659566,2.38797163813186,337.799513738416
738332.44360930635593831539,3.68043051444034,2.38797163813186,337.76258634195
738332.44360939681064337492,3.68043051444034,2.38797163813186,337.701040681173
738332.44360948726534843445,3.68043051444034,2.38797163813186,337.750277209794
738332.44360957772005349398,3.69273964659566,2.38797163813186,337.76258634195
738332.44360966805834323168,3.68043051444034,2.38797163813186,337.737968077639
738332.44360975851304829121,3.68043051444034,2.38797163813186,337.725658945484
738332.44360984896775335073,3.68043051444034,2.38797163813186,337.725658945484
738332.44360993942245841026,3.68043051444034,2.38797163813186,337.701040681173
738332.44361002987716346979,3.68043051444034,2.38797163813186,337.639495020397
738332.44361012021545320749,3.66812138228502,2.38797163813186,337.737968077639
738332.44361021067015826702,3.68043051444034,2.40028077028718,337.76258634195
738332.44361030112486332655,3.69273964659566,2.38797163813186,337.713349813328
738332.44361039157956838608,3.70504877875098,2.37566250597654,337.750277209794
738332.44361048203427344561,3.72966704306162,2.40028077028718,337.737968077639
738332.44361057248897850513,3.76659443952757,2.4125899024425,337.78720460626
738332.44361066282726824284,3.76659443952757,2.4125899024425,337.750277209794
738332.44361075328197330236,3.76659443952757,2.42489903459782,337.627185888241
738332.44361084373667836189,3.76659443952757,2.44951729890845,337.688731549018
738332.44361093419138342142,3.76659443952757,2.44951729890845,337.639495020397
738332.44361102464608848095,3.74197617521694,2.43720816675314,337.713349813328
738332.44361111498437821865,3.7173579109063,2.42489903459782,337.725658945484
738332.44361120543908327818,3.66812138228502,2.40028077028718,337.76258634195
738332.44361129589378833771,3.6558122501297,2.38797163813186,337.713349813328
738332.44361138634849339724,3.64350311797438,2.38797163813186,337.737968077639
738332.44361147680319845676,3.64350311797438,2.37566250597654,337.78720460626
738332.44361156725790351629,3.63119398581907,2.38797163813186,337.76258634195
738332.44361165759619325399,3.63119398581907,2.37566250597654,337.824132002726
738332.44361174805089831352,3.61888485366375,2.37566250597654,337.836441134882
738332.44361183850560337305,3.61888485366375,2.37566250597654,337.750277209794
738332.44361192896030843258,3.61888485366375,2.37566250597654,337.848750267037
738332.44361201941501349211,3.61888485366375,2.38797163813186,337.824132002726
738332.44361210975330322981,3.60657572150843,2.4125899024425,337.861059399192
738332.44361220020800828934,3.72966704306162,2.42489903459782,337.873368531348
738332.44361229066271334887,4.01277708263395,2.62184514908292,337.824132002726
738332.44361238111741840839,4.3081962543616,2.72031820632547,337.676422416862
738332.44361247157212346792,4.3081962543616,2.63415428123824,337.405621509445
738332.44361256202682852745,3.7173579109063,2.19102552364676,337.553331095309
738332.44361265236511826515,3.24961088900418,1.94484288054038,337.701040681173
738332.44361274281982332468,3.23730175684886,2.11717073071485,337.959532456435
738332.44361283327452838421,3.33577481409141,2.24026205226803,337.922605059969
738332.44361292372923344374,3.44655700348928,2.33873510951058,338.033387249367
738332.44361301418393850327,3.56964832504247,2.4125899024425,338.033387249367
738332.44361310452222824097,3.63119398581907,2.44951729890845,338.021078117211
738332.44361319497693330050,3.6558122501297,2.43720816675314,337.873368531348
738332.44361328543163836002,3.68043051444034,2.43720816675314,337.885677663503
738332.44361337588634341955,3.68043051444034,2.42489903459782,337.885677663503
738332.44361346634104847908,3.69273964659566,2.43720816675314,337.713349813328
738332.44361355679575353861,3.70504877875098,2.43720816675314,337.590258491775
738332.44361364713404327631,3.7173579109063,2.44951729890845,337.725658945484
738332.44361373758874833584,3.7173579109063,2.46182643106377,337.750277209794
738332.44361382804345339537,3.72966704306162,2.44951729890845,337.737968077639
738332.44361391849815845490,3.72966704306162,2.46182643106377,337.737968077639
738332.44361400895286351442,3.74197617521694,2.46182643106377,337.811822870571
738332.44361409929115325212,3.75428530737225,2.47413556321909,337.76258634195
738332.44361418974585831165,3.75428530737225,2.47413556321909,337.799513738416
738332.44361428020056337118,3.76659443952757,2.48644469537441,337.737968077639
738332.44361437065526843071,3.77890357168289,2.48644469537441,337.737968077639
738332.44361446110997349024,3.79121270383821,2.48644469537441,337.737968077639
738332.44361455156467854977,3.81583096814885,2.51106295968505,337.688731549018
738332.44361464190296828747,3.84044923245949,2.52337209184037,337.750277209794
738332.44361473235767334700,3.86506749677012,2.52337209184037,337.725658945484
738332.44361482281237840652,3.88968576108076,2.53568122399569,337.725658945484
738332.44361491326708346605,3.90199489323608,2.56029948830632,337.799513738416
738332.44361500372178852558,3.9143040253914,2.56029948830632,337.78720460626
738332.44361509406007826328,3.92661315754672,2.56029948830632,337.76258634195
738332.44361518451478332281,3.92661315754672,2.56029948830632,337.664113284707
738332.44361527496948838234,3.9143040253914,2.54799035615101,337.750277209794
738332.44361536542419344187,3.88968576108076,2.53568122399569,337.725658945484
738332.44361545587889850140,3.84044923245949,2.51106295968505,337.725658945484
738332.44361554633360356092,3.80352183599353,2.49875382752973,337.701040681173
738332.44361563667189329863,3.76659443952757,2.47413556321909,337.713349813328
738332.44361572712659835815,3.72966704306162,2.46182643106377,337.76258634195
738332.44361581758130341768,3.69273964659566,2.44951729890845,337.774895474105
738332.44361590803600847721,3.66812138228502,2.43720816675314,337.824132002726
738332.44361599849071353674,3.64350311797438,2.42489903459782,337.725658945484
738332.44361608894541859627,3.61888485366375,2.4125899024425,337.76258634195
738332.44361617928370833397,3.61888485366375,2.4125899024425,337.799513738416
738332.44361626973841339350,3.60657572150843,2.40028077028718,337.811822870571
738332.44361636019311845303,3.60657572150843,2.40028077028718,337.811822870571
738332.44361645064782351255,3.60657572150843,2.40028077028718,337.799513738416
738332.44361654110252857208,3.60657572150843,2.40028077028718,337.861059399192
738332.44361663144081830978,3.59426658935311,2.40028077028718,337.848750267037
738332.44361672189552336931,3.59426658935311,2.40028077028718,337.76258634195
738332.44361681235022842884,3.59426658935311,2.40028077028718,337.824132002726
738332.44361690280493348837,3.59426658935311,2.40028077028718,337.824132002726
738332.44361699325963854790,3.59426658935311,2.40028077028718,337.78720460626
738332.44361708371434360743,3.60657572150843,2.40028077028718,337.602567623931
738332.44361717405263334513,3.60657572150843,2.40028077028718,337.848750267037
738332.44361726450733840466,3.60657572150843,2.40028077028718,337.824132002726
738332.44361735496204346418,3.60657572150843,2.40028077028718,337.836441134882
738332.44361744541674852371,3.61888485366375,2.40028077028718,337.774895474105
738332.44361753587145358324,3.61888485366375,2.4125899024425,337.774895474105
738332.44361762620974332094,3.61888485366375,2.4125899024425,337.76258634195
738332.44361771666444838047,3.63119398581907,2.4125899024425,337.737968077639
738332.44361780711915344000,3.63119398581907,2.4125899024425,337.76258634195
738332.44361789757385849953,3.63119398581907,2.4125899024425,337.774895474105
738332.44361798802856355906,3.63119398581907,2.4125899024425,337.750277209794
738332.44361807848326861858,3.63119398581907,2.42489903459782,337.713349813328
738332.44361816882155835629,3.61888485366375,2.4125899024425,337.799513738416
738332.44361825927626341581,3.61888485366375,2.4125899024425,337.725658945484
738332.44361834973096847534,3.60657572150843,2.4125899024425,337.725658945484
738332.44361844018567353487,3.61888485366375,2.4125899024425,337.725658945484
738332.44361853064037859440,3.60657572150843,2.4125899024425,337.76258634195
738332.44361862097866833210,3.60657572150843,2.42489903459782,337.774895474105
738332.44361871143337339163,3.59426658935311,2.4125899024425,337.737968077639
738332.44361880188807845116,3.59426658935311,2.40028077028718,337.725658945484
738332.44361889234278351068,3.59426658935311,2.4125899024425,337.725658945484
738332.44361898279748857021,3.59426658935311,2.40028077028718,337.725658945484
738332.44361907325219362974,3.59426658935311,2.4125899024425,337.639495020397
738332.44361916359048336744,3.58195745719779,2.40028077028718,337.725658945484
738332.44361925404518842697,3.59426658935311,2.40028077028718,337.774895474105
738332.44361934449989348650,3.59426658935311,2.4125899024425,337.737968077639
738332.44361943495459854603,3.59426658935311,2.4125899024425,337.799513738416
738332.44361952540930360556,3.58195745719779,2.4125899024425,337.811822870571
738332.44361961574759334326,3.58195745719779,2.40028077028718,337.811822870571
738332.44361970620229840279,3.59426658935311,2.4125899024425,337.811822870571
738332.44361979665700346231,3.59426658935311,2.4125899024425,337.713349813328
738332.44361988711170852184,3.58195745719779,2.40028077028718,337.725658945484
738332.44361997756641358137,3.59426658935311,2.4125899024425,337.76258634195
738332.44362006802111864090,3.58195745719779,2.40028077028718,337.78720460626
738332.44362015835940837860,3.59426658935311,2.4125899024425,337.774895474105
738332.44362024881411343813,3.59426658935311,2.40028077028718,337.774895474105
738332.44362033926881849766,3.61888485366375,2.40028077028718,337.824132002726
738332.44362042972352355719,3.64350311797438,2.4125899024425,337.78720460626
738332.44362052017822861671,3.6558122501297,2.42489903459782,337.516403698843
738332.44362061051651835442,3.68043051444034,2.43720816675314,337.57794935962
738332.44362070097122341394,3.68043051444034,2.43720816675314,337.750277209794
738332.44362079142592847347,3.68043051444034,2.46182643106377,337.78720460626
738332.44362088188063353300,3.66812138228502,2.46182643106377,337.78720460626
738332.44362097233533859253,3.66812138228502,2.47413556321909,337.78720460626
738332.44362106279004365206,3.63119398581907,2.43720816675314,337.799513738416
738332.44362115312833338976,3.60657572150843,2.43720816675314,337.76258634195
738332.44362124358303844929,3.56964832504247,2.40028077028718,337.824132002726
738332.44362133403774350882,3.55733919288715,2.40028077028718,337.861059399192
738332.44362142449244856834,3.54503006073183,2.4125899024425,337.799513738416
738332.44362151494715362787,3.54503006073183,2.38797163813186,337.836441134882
738332.44362160528544336557,3.54503006073183,2.40028077028718,337.836441134882
738332.44362169574014842510,3.53272092857652,2.38797163813186,337.848750267037
738332.44362178619485348463,3.53272092857652,2.38797163813186,337.750277209794
738332.44362187664955854416,3.53272092857652,2.38797163813186,337.750277209794
738332.44362196710426360369,3.53272092857652,2.40028077028718,337.76258634195
738332.44362205755896866322,3.5204117964212,2.42489903459782,337.848750267037
738332.44362214789725840092,3.66812138228502,2.46182643106377,337.750277209794
738332.44362223835196346045,3.95123142185736,2.67108167770419,337.737968077639
738332.44362232880666851997,4.23434146142969,2.75724560279143,337.57794935962
738332.44362241926137357950,4.13586840418714,2.62184514908292,337.405621509445
738332.44362250971607863903,3.86506749677012,2.38797163813186,337.417930641601
738332.44362260005436837673,3.28653828547014,1.96946114485102,337.553331095309
738332.44362269050907343626,3.15113783176163,2.05562506993825,337.824132002726
738332.44362278096377849579,3.24961088900418,2.24026205226803,337.922605059969
738332.44362287141848355532,3.33577481409141,2.31411684519995,337.922605059969
738332.44362296187318861485,3.44655700348928,2.40028077028718,337.959532456435
738332.44362305232789367437,3.53272092857652,2.44951729890845,337.922605059969
738332.44362314266618341208,3.58195745719779,2.44951729890845,337.799513738416
738332.44362323312088847160,3.59426658935311,2.43720816675314,337.811822870571
738332.44362332357559353113,3.59426658935311,2.43720816675314,337.811822870571
738332.44362341403029859066,3.60657572150843,2.44951729890845,337.861059399192
738332.44362350448500365019,3.63119398581907,2.44951729890845,337.861059399192
738332.44362359482329338789,3.63119398581907,2.44951729890845,337.701040681173
738332.44362368527799844742,3.64350311797438,2.46182643106377,337.725658945484
738332.44362377573270350695,3.64350311797438,2.46182643106377,337.725658945484
738332.44362386618740856647,3.6558122501297,2.47413556321909,337.688731549018
738332.44362395664211362600,3.66812138228502,2.47413556321909,337.701040681173
738332.44362404709681868553,3.66812138228502,2.47413556321909,337.57794935962
738332.44362413743510842323,3.69273964659566,2.48644469537441,337.627185888241
738332.44362422788981348276,3.70504877875098,2.49875382752973,337.676422416862
738332.44362431834451854229,3.7173579109063,2.49875382752973,337.701040681173
738332.44362440879922360182,3.72966704306162,2.51106295968505,337.725658945484
738332.44362449925392866135,3.75428530737225,2.52337209184037,337.76258634195
738332.44362458970863372087,3.77890357168289,2.52337209184037,337.78720460626
738332.44362468004692345858,3.80352183599353,2.54799035615101,337.750277209794
738332.44362477050162851810,3.81583096814885,2.54799035615101,337.799513738416
738332.44362486095633357763,3.84044923245949,2.57260862046164,337.737968077639
738332.44362495141103863716,3.85275836461481,2.58491775261696,337.688731549018
738332.44362504186574369669,3.86506749677012,2.58491775261696,337.76258634195
738332.44362513220403343439,3.85275836461481,2.57260862046164,337.750277209794
738332.44362522265873849392,3.85275836461481,2.56029948830632,337.664113284707
738332.44362531311344355345,3.82814010030417,2.54799035615101,337.750277209794
738332.44362540356814861298,3.79121270383821,2.53568122399569,337.737968077639
738332.44362549402285367250,3.74197617521694,2.51106295968505,337.737968077639
738332.44362558447755873203,3.7173579109063,2.49875382752973,337.774895474105
738332.44362567481584846973,3.66812138228502,2.46182643106377,337.78720460626
738332.44362576527055352926,3.64350311797438,2.44951729890845,337.76258634195
738332.44362585572525858879,3.60657572150843,2.43720816675314,337.799513738416
738332.44362594617996364832,3.60657572150843,2.42489903459782,337.811822870571
738332.44362603663466870785,3.58195745719779,2.42489903459782,337.701040681173
738332.44362612697295844555,3.58195745719779,2.4125899024425,337.713349813328
738332.44362621742766350508,3.55733919288715,2.42489903459782,337.750277209794
738332.44362630788236856461,3.55733919288715,2.42489903459782,337.774895474105
738332.44362639833707362413,3.55733919288715,2.4125899024425,337.750277209794
738332.44362648879177868366,3.54503006073183,2.40028077028718,337.725658945484
738332.44362657924648374319,3.55733919288715,2.4125899024425,337.750277209794
738332.44362666958477348089,3.54503006073183,2.40028077028718,337.750277209794
738332.44362676003947854042,3.55733919288715,2.40028077028718,337.750277209794
738332.44362685049418359995,3.55733919288715,2.40028077028718,337.824132002726
738332.44362694094888865948,3.55733919288715,2.40028077028718,337.774895474105
738332.44362703140359371901,3.55733919288715,2.40028077028718,337.713349813328
738332.44362712174188345671,3.56964832504247,2.4125899024425,337.725658945484
738332.44362721219658851624,3.56964832504247,2.4125899024425,337.725658945484
738332.44362730265129357576,3.56964832504247,2.4125899024425,337.713349813328
738332.44362739310599863529,3.58195745719779,2.42489903459782,337.676422416862
738332.44362748356070369482,3.59426658935311,2.42489903459782,337.774895474105
738332.44362757401540875435,3.58195745719779,2.42489903459782,337.627185888241
738332.44362766435369849205,3.59426658935311,2.42489903459782,337.651804152552
738332.44362775480840355158,3.59426658935311,2.43720816675314,337.811822870571
738332.44362784526310861111,3.59426658935311,2.42489903459782,337.737968077639
738332.44362793571781367064,3.60657572150843,2.43720816675314,337.713349813328
738332.44362802617251873016,3.60657572150843,2.43720816675314,337.750277209794
738332.44362811651080846786,3.59426658935311,2.43720816675314,337.750277209794
738332.44362820696551352739,3.59426658935311,2.43720816675314,337.78720460626
738332.44362829742021858692,3.59426658935311,2.43720816675314,337.78720460626
738332.44362838787492364645,3.59426658935311,2.42489903459782,337.836441134882
738332.44362847832962870598,3.59426658935311,2.43720816675314,337.824132002726
738332.44362856878433376551,3.59426658935311,2.42489903459782,337.713349813328
738332.44362865912262350321,3.58195745719779,2.42489903459782,337.811822870571
738332.44362874957732856274,3.58195745719779,2.42489903459782,337.836441134882
738332.44362884003203362226,3.58195745719779,2.42489903459782,337.78720460626
738332.44362893048673868179,3.58195745719779,2.4125899024425,337.836441134882
738332.44362902094144374132,3.56964832504247,2.4125899024425,337.824132002726
738332.44362911127973347902,3.56964832504247,2.4125899024425,337.78720460626
738332.44362920173443853855,3.56964832504247,2.4125899024425,337.811822870571
738332.44362929218914359808,3.58195745719779,2.4125899024425,337.811822870571
738332.44362938264384865761,3.56964832504247,2.4125899024425,337.836441134882
738332.44362947309855371714,3.56964832504247,2.4125899024425,337.76258634195
738332.44362956355325877666,3.56964832504247,2.4125899024425,337.824132002726
738332.44362965389154851437,3.56964832504247,2.4125899024425,337.836441134882
738332.44362974434625357389,3.56964832504247,2.4125899024425,337.811822870571
738332.44362983480095863342,3.58195745719779,2.4125899024425,337.811822870571
738332.44362992525566369295,3.56964832504247,2.4125899024425,337.848750267037
738332.44363001571036875248,3.58195745719779,2.4125899024425,337.861059399192
738332.44363010604865849018,3.58195745719779,2.4125899024425,337.78720460626
738332.44363019650336354971,3.58195745719779,2.42489903459782,337.836441134882
738332.44363028695806860924,3.56964832504247,2.4125899024425,337.848750267037
738332.44363037741277366877,3.56964832504247,2.4125899024425,337.76258634195
738332.44363046786747872829,3.58195745719779,2.4125899024425,337.799513738416
738332.44363055832218378782,3.59426658935311,2.42489903459782,337.701040681173
738332.44363064866047352552,3.59426658935311,2.4125899024425,337.725658945484
738332.44363073911517858505,3.60657572150843,2.4125899024425,337.725658945484
738332.44363082956988364458,3.63119398581907,2.43720816675314,337.701040681173
738332.44363092002458870411,3.6558122501297,2.43720816675314,337.664113284707
738332.44363101047929376364,3.66812138228502,2.43720816675314,337.664113284707
738332.44363110081758350134,3.68043051444034,2.46182643106377,337.541021963154
738332.44363119127228856087,3.66812138228502,2.47413556321909,337.602567623931
738332.44363128172699362040,3.66812138228502,2.48644469537441,337.713349813328
738332.44363137218169867992,3.64350311797438,2.47413556321909,337.750277209794
738332.44363146263640373945,3.60657572150843,2.44951729890845,337.713349813328
738332.44363155309110879898,3.59426658935311,2.42489903459782,337.774895474105
738332.44363164342939853668,3.55733919288715,2.4125899024425,337.799513738416
738332.44363173388410359621,3.55733919288715,2.4125899024425,337.750277209794
738332.44363182433880865574,3.55733919288715,2.4125899024425,337.799513738416
738332.44363191479351371527,3.54503006073183,2.4125899024425,337.78720460626
738332.44363200524821877480,3.54503006073183,2.4125899024425,337.836441134882
738332.44363209570292383432,3.53272092857652,2.40028077028718,337.799513738416
738332.44363218604121357203,3.54503006073183,2.40028077028718,337.750277209794
738332.44363227649591863155,3.53272092857652,2.40028077028718,337.811822870571
738332.44363236695062369108,3.53272092857652,2.42489903459782,337.836441134882
738332.44363245740532875061,3.55733919288715,2.43720816675314,337.922605059969
738332.44363254786003381014,3.7173579109063,2.48644469537441,337.873368531348
738332.44363263819832354784,4.00046795047863,2.73262733848079,337.78720460626
738332.44363272865302860737,4.24665059358501,2.76955473494675,337.541021963154
738332.44363281910773366690,4.06201361125523,2.57260862046164,337.430239773756
738332.44363290956243872643,3.47117526779992,2.08024333424889,337.528712830999
738332.44363300001714378595,3.17575609607227,1.98177027700634,337.750277209794
738332.44363309047184884548,3.22499262469354,2.19102552364676,337.910295927814
738332.44363318081013858318,3.32346568193609,2.28949858088931,337.885677663503
738332.44363327126484364271,3.42193873917865,2.37566250597654,338.045696381522
738332.44363336171954870224,3.5204117964212,2.44951729890845,337.996459852901
738332.44363345217425376177,3.58195745719779,2.46182643106377,337.910295927814
738332.44363354262895882130,3.60657572150843,2.44951729890845,337.873368531348
738332.44363363296724855900,3.60657572150843,2.46182643106377,337.848750267037
738332.44363372342195361853,3.61888485366375,2.44951729890845,337.873368531348
738332.44363381387665867805,3.63119398581907,2.44951729890845,337.750277209794
738332.44363390433136373758,3.64350311797438,2.46182643106377,337.824132002726
738332.44363399478606879711,3.64350311797438,2.47413556321909,337.824132002726
738332.44363408524077385664,3.6558122501297,2.47413556321909,337.836441134882
738332.44363417557906359434,3.66812138228502,2.48644469537441,337.750277209794
738332.44363426603376865387,3.66812138228502,2.47413556321909,337.848750267037
738332.44363435648847371340,3.68043051444034,2.48644469537441,337.811822870571
738332.44363444694317877293,3.69273964659566,2.49875382752973,337.737968077639
738332.44363453739788383245,3.70504877875098,2.48644469537441,337.774895474105
738332.44363462773617357016,3.7173579109063,2.51106295968505,337.627185888241
738332.44363471819087862968,3.74197617521694,2.52337209184037,337.565640227465
738332.44363480864558368921,3.75428530737225,2.53568122399569,337.701040681173
738332.44363489910028874874,3.77890357168289,2.54799035615101,337.701040681173
738332.44363498955499380827,3.80352183599353,2.56029948830632,337.750277209794
738332.44363508000969886780,3.82814010030417,2.57260862046164,337.774895474105
738332.44363517034798860550,3.85275836461481,2.58491775261696,337.688731549018
738332.44363526080269366503,3.87737662892544,2.59722688477228,337.774895474105
738332.44363535125739872456,3.87737662892544,2.59722688477228,337.774895474105
738332.44363544171210378408,3.87737662892544,2.59722688477228,337.701040681173
738332.44363553216680884361,3.86506749677012,2.58491775261696,337.688731549018
738332.44363562250509858131,3.85275836461481,2.56029948830632,337.701040681173
738332.44363571295980364084,3.82814010030417,2.54799035615101,337.688731549018
738332.44363580341450870037,3.80352183599353,2.53568122399569,337.688731549018
738332.44363589386921375990,3.76659443952757,2.49875382752973,337.725658945484
738332.44363598432391881943,3.7173579109063,2.47413556321909,337.750277209794
738332.44363607477862387896,3.68043051444034,2.46182643106377,337.750277209794
738332.44363616511691361666,3.66812138228502,2.44951729890845,337.774895474105
738332.44363625557161867619,3.64350311797438,2.43720816675314,337.774895474105
738332.44363634602632373571,3.61888485366375,2.42489903459782,337.78720460626
738332.44363643648102879524,3.61888485366375,2.42489903459782,337.78720460626
738332.44363652693573385477,3.59426658935311,2.4125899024425,337.78720460626
738332.44363661727402359247,3.59426658935311,2.4125899024425,337.799513738416
738332.44363670772872865200,3.58195745719779,2.4125899024425,337.824132002726
738332.44363679818343371153,3.59426658935311,2.4125899024425,337.861059399192
738332.44363688863813877106,3.58195745719779,2.40028077028718,337.848750267037
738332.44363697909284383059,3.58195745719779,2.4125899024425,337.78720460626
738332.44363706954754889011,3.58195745719779,2.40028077028718,337.774895474105
738332.44363715988583862782,3.59426658935311,2.4125899024425,337.774895474105
738332.44363725034054368734,3.59426658935311,2.40028077028718,337.78720460626
738332.44363734079524874687,3.59426658935311,2.40028077028718,337.811822870571
738332.44363743124995380640,3.59426658935311,2.4125899024425,337.861059399192
738332.44363752170465886593,3.60657572150843,2.4125899024425,337.836441134882
738332.44363761204294860363,3.60657572150843,2.4125899024425,337.836441134882
738332.44363770249765366316,3.60657572150843,2.42489903459782,337.774895474105
738332.44363779295235872269,3.63119398581907,2.43720816675314,337.78720460626
738332.44363788340706378222,3.61888485366375,2.43720816675314,337.750277209794
738332.44363797386176884174,3.63119398581907,2.43720816675314,337.725658945484
738332.44363806431647390127,3.63119398581907,2.43720816675314,337.737968077639
738332.44363815465476363897,3.64350311797438,2.43720816675314,337.639495020397
738332.44363824510946869850,3.63119398581907,2.43720816675314,337.627185888241
738332.44363833556417375803,3.64350311797438,2.43720816675314,337.76258634195
738332.44363842601887881756,3.63119398581907,2.43720816675314,337.76258634195
738332.44363851647358387709,3.63119398581907,2.43720816675314,337.78720460626
738332.44363860681187361479,3.63119398581907,2.42489903459782,337.76258634195
738332.44363869726657867432,3.63119398581907,2.43720816675314,337.824132002726
738332.44363878772128373384,3.61888485366375,2.42489903459782,337.78720460626
738332.44363887817598879337,3.61888485366375,2.42489903459782,337.774895474105
738332.44363896863069385290,3.61888485366375,2.42489903459782,337.76258634195
738332.44363905908539891243,3.61888485366375,2.42489903459782,337.78720460626
738332.44363914942368865013,3.61888485366375,2.42489903459782,337.774895474105
738332.44363923987839370966,3.61888485366375,2.4125899024425,337.76258634195
738332.44363933033309876919,3.63119398581907,2.4125899024425,337.78720460626
738332.44363942078780382872,3.63119398581907,2.4125899024425,337.824132002726
738332.44363951124250888824,3.61888485366375,2.4125899024425,337.836441134882
738332.44363960158079862595,3.60657572150843,2.4125899024425,337.861059399192
738332.44363969203550368547,3.61888485366375,2.4125899024425,337.76258634195
738332.44363978249020874500,3.61888485366375,2.4125899024425,337.78720460626
738332.44363987294491380453,3.61888485366375,2.4125899024425,337.824132002726
738332.44363996339961886406,3.63119398581907,2.4125899024425,337.76258634195
738332.44364005385432392359,3.63119398581907,2.4125899024425,337.811822870571
738332.44364014419261366129,3.63119398581907,2.4125899024425,337.836441134882
738332.44364023464731872082,3.61888485366375,2.40028077028718,337.824132002726
738332.44364032510202378035,3.63119398581907,2.40028077028718,337.737968077639
738332.44364041555672883987,3.63119398581907,2.40028077028718,337.774895474105
738332.44364050601143389940,3.63119398581907,2.4125899024425,337.76258634195
738332.44364059646613895893,3.63119398581907,2.4125899024425,337.799513738416
738332.44364068680442869663,3.63119398581907,2.40028077028718,337.811822870571
738332.44364077725913375616,3.63119398581907,2.40028077028718,337.848750267037
738332.44364086771383881569,3.64350311797438,2.40028077028718,337.873368531348
738332.44364095816854387522,3.66812138228502,2.4125899024425,337.76258634195
738332.44364104862324893475,3.69273964659566,2.43720816675314,337.799513738416
738332.44364113896153867245,3.70504877875098,2.42489903459782,337.799513738416
738332.44364122941624373198,3.72966704306162,2.43720816675314,337.688731549018
738332.44364131987094879150,3.72966704306162,2.44951729890845,337.737968077639
738332.44364141032565385103,3.74197617521694,2.47413556321909,337.774895474105
738332.44364150078035891056,3.74197617521694,2.47413556321909,337.774895474105
738332.44364159123506397009,3.72966704306162,2.46182643106377,337.78720460626
738332.44364168157335370779,3.68043051444034,2.42489903459782,337.750277209794
738332.44364177202805876732,3.6558122501297,2.4125899024425,337.676422416862
738332.44364186248276382685,3.64350311797438,2.40028077028718,337.836441134882
738332.44364195293746888638,3.61888485366375,2.40028077028718,337.861059399192
738332.44364204339217394590,3.61888485366375,2.38797163813186,337.824132002726
738332.44364213373046368361,3.61888485366375,2.38797163813186,337.897986795658
738332.44364222418516874313,3.61888485366375,2.37566250597654,337.861059399192
738332.44364231463987380266,3.61888485366375,2.37566250597654,337.799513738416
738332.44364240509457886219,3.63119398581907,2.38797163813186,337.873368531348
738332.44364249554928392172,3.59426658935311,2.36335337382122,337.836441134882
738332.44364258600398898125,3.59426658935311,2.40028077028718,337.824132002726
738332.44364267634227871895,3.6558122501297,2.40028077028718,337.885677663503
738332.44364276679698377848,3.87737662892544,2.52337209184037,337.861059399192
738332.44364285725168883801,4.12355927203182,2.72031820632547,337.774895474105
738332.44364294770639389753,4.28357799005097,2.72031820632547,337.602567623931
738332.44364303816109895706,3.96354055401268,2.3510442416659,337.541021963154
738332.44364312849938869476,3.68043051444034,2.11717073071485,337.590258491775
738332.44364321895409375429,3.29884741762546,1.85867895545315,337.725658945484
738332.44364330940879881382,3.27422915331482,2.08024333424889,337.885677663503
738332.44364339986350387335,3.33577481409141,2.2156437879574,338.021078117211
738332.44364349031820893288,3.44655700348928,2.33873510951058,338.070314645833
738332.44364358077291399240,3.5204117964212,2.40028077028718,338.033387249367
738332.44364367111120373011,3.60657572150843,2.44951729890845,337.934914192124
738332.44364376156590878963,3.6558122501297,2.43720816675314,337.861059399192
738332.44364385202061384916,3.68043051444034,2.42489903459782,337.824132002726
738332.44364394247531890869,3.69273964659566,2.43720816675314,337.811822870571
738332.44364403293002396822,3.70504877875098,2.42489903459782,337.78720460626
738332.44364412326831370592,3.7173579109063,2.43720816675314,337.799513738416
738332.44364421372301876545,3.72966704306162,2.43720816675314,337.774895474105
738332.44364430417772382498,3.74197617521694,2.44951729890845,337.76258634195
738332.44364439463242888451,3.74197617521694,2.43720816675314,337.774895474105
738332.44364448508713394403,3.75428530737225,2.44951729890845,337.774895474105
738332.44364457554183900356,3.76659443952757,2.46182643106377,337.774895474105
738332.44364466588012874126,3.79121270383821,2.46182643106377,337.750277209794
738332.44364475633483380079,3.80352183599353,2.47413556321909,337.799513738416
738332.44364484678953886032,3.81583096814885,2.48644469537441,337.76258634195
738332.44364493724424391985,3.81583096814885,2.49875382752973,337.750277209794
738332.44364502769894897938,3.82814010030417,2.49875382752973,337.78720460626
738332.44364511803723871708,3.85275836461481,2.51106295968505,337.799513738416
738332.44364520849194377661,3.88968576108076,2.54799035615101,337.750277209794
738332.44364529894664883614,3.9143040253914,2.56029948830632,337.614876756086
738332.44364538940135389566,3.95123142185736,2.57260862046164,337.774895474105
738332.44364547985605895519,3.97584968616799,2.58491775261696,337.725658945484
738332.44364557031076401472,3.98815881832331,2.59722688477228,337.737968077639
738332.44364566064905375242,3.98815881832331,2.58491775261696,337.713349813328
738332.44364575110375881195,3.98815881832331,2.57260862046164,337.737968077639
738332.44364584155846387148,3.97584968616799,2.54799035615101,337.737968077639
738332.44364593201316893101,3.95123142185736,2.54799035615101,337.774895474105
738332.44364602246787399054,3.9143040253914,2.51106295968505,337.774895474105
738332.44364611280616372824,3.87737662892544,2.47413556321909,337.78720460626
738332.44364620326086878777,3.82814010030417,2.44951729890845,337.774895474105
738332.44364629371557384729,3.77890357168289,2.42489903459782,337.836441134882
738332.44364638417027890682,3.76659443952757,2.4125899024425,337.848750267037
738332.44364647462498396635,3.72966704306162,2.40028077028718,337.78720460626
738332.44364656507968902588,3.7173579109063,2.37566250597654,337.824132002726
738332.44364665541797876358,3.70504877875098,2.37566250597654,337.824132002726
738332.44364674587268382311,3.69273964659566,2.36335337382122,337.824132002726
738332.44364683632738888264,3.68043051444034,2.36335337382122,337.799513738416
738332.44364692678209394217,3.66812138228502,2.3510442416659,337.873368531348
738332.44364701723679900169,3.68043051444034,2.3510442416659,337.861059399192
738332.44364710757508873940,3.68043051444034,2.3510442416659,337.836441134882
738332.44364719802979379892,3.66812138228502,2.33873510951058,337.799513738416
738332.44364728848449885845,3.66812138228502,2.33873510951058,337.78720460626
738332.44364737893920391798,3.68043051444034,2.3510442416659,337.76258634195
738332.44364746939390897751,3.68043051444034,2.3510442416659,337.76258634195
738332.44364755984861403704,3.68043051444034,2.36335337382122,337.750277209794
738332.44364765018690377474,3.68043051444034,2.37566250597654,337.750277209794
738332.44364774064160883427,3.70504877875098,2.37566250597654,337.76258634195
738332.44364783109631389380,3.70504877875098,2.37566250597654,337.774895474105
738332.44364792155101895332,3.70504877875098,2.37566250597654,337.848750267037
738332.44364801200572401285,3.7173579109063,2.38797163813186,337.774895474105
738332.44364810246042907238,3.70504877875098,2.38797163813186,337.737968077639
738332.44364819279871881008,3.7173579109063,2.37566250597654,337.811822870571
738332.44364828325342386961,3.70504877875098,2.38797163813186,337.78720460626
738332.44364837370812892914,3.7173579109063,2.38797163813186,337.76258634195
738332.44364846416283398867,3.70504877875098,2.37566250597654,337.76258634195
738332.44364855461753904819,3.70504877875098,2.38797163813186,337.737968077639
738332.44364864495582878590,3.69273964659566,2.37566250597654,337.750277209794
738332.44364873541053384542,3.70504877875098,2.38797163813186,337.713349813328
738332.44364882586523890495,3.70504877875098,2.37566250597654,337.57794935962
738332.44364891631994396448,3.70504877875098,2.37566250597654,337.737968077639
738332.44364900677464902401,3.7173579109063,2.36335337382122,337.774895474105
738332.44364909722935408354,3.70504877875098,2.36335337382122,337.725658945484
738332.44364918756764382124,3.69273964659566,2.3510442416659,337.799513738416
738332.44364927802234888077,3.69273964659566,2.36335337382122,337.774895474105
738332.44364936847705394030,3.70504877875098,2.36335337382122,337.824132002726
738332.44364945893175899982,3.69273964659566,2.3510442416659,337.873368531348
738332.44364954938646405935,3.69273964659566,2.36335337382122,337.725658945484
738332.44364963972475379705,3.69273964659566,2.36335337382122,337.811822870571
738332.44364973017945885658,3.70504877875098,2.3510442416659,337.848750267037
738332.44364982063416391611,3.69273964659566,2.36335337382122,337.811822870571
738332.44364991108886897564,3.69273964659566,2.3510442416659,337.76258634195
738332.44365000154357403517,3.70504877875098,2.3510442416659,337.799513738416
738332.44365009199827909470,3.69273964659566,2.3510442416659,337.750277209794
738332.44365018233656883240,3.70504877875098,2.33873510951058,337.824132002726
738332.44365027279127389193,3.70504877875098,2.3510442416659,337.873368531348
738332.44365036324597895145,3.70504877875098,2.36335337382122,337.824132002726
738332.44365045370068401098,3.7173579109063,2.3510442416659,337.799513738416
738332.44365054415538907051,3.74197617521694,2.3510442416659,337.824132002726
738332.44365063449367880821,3.75428530737225,2.36335337382122,337.848750267037
738332.44365072494838386774,3.77890357168289,2.37566250597654,337.737968077639
738332.44365081540308892727,3.77890357168289,2.36335337382122,337.774895474105
738332.44365090585779398680,3.79121270383821,2.38797163813186,337.78720460626
738332.44365099631249904633,3.79121270383821,2.40028077028718,337.799513738416
738332.44365108676720410585,3.79121270383821,2.4125899024425,337.76258634195
738332.44365117710549384356,3.77890357168289,2.40028077028718,337.836441134882
738332.44365126756019890308,3.74197617521694,2.36335337382122,337.873368531348
738332.44365135801490396261,3.70504877875098,2.36335337382122,337.799513738416
738332.44365144846960902214,3.66812138228502,2.33873510951058,337.861059399192
738332.44365153892431408167,3.66812138228502,2.32642597735527,337.885677663503
738332.44365162926260381937,3.66812138228502,2.33873510951058,337.799513738416
738332.44365171971730887890,3.66812138228502,2.32642597735527,337.885677663503
738332.44365181017201393843,3.66812138228502,2.33873510951058,337.873368531348
738332.44365190062671899796,3.68043051444034,2.33873510951058,337.811822870571
738332.44365199108142405748,3.66812138228502,2.32642597735527,337.836441134882
738332.44365208153612911701,3.66812138228502,2.32642597735527,337.910295927814
738332.44365217187441885471,3.6558122501297,2.36335337382122,337.873368531348
738332.44365226232912391424,3.74197617521694,2.3510442416659,337.627185888241
738332.44365235278382897377,4.02508621478927,2.52337209184037,337.725658945484
738332.44365244323853403330,4.29588712220628,2.65877254554888,337.824132002726
738332.44365253369323909283,4.3697419151382,2.63415428123824,337.614876756086
738332.44365262403152883053,4.1727958006531,2.37566250597654,337.491785434533
738332.44365271448623389006,3.58195745719779,1.93253374838506,337.651804152552
738332.44365280494093894958,3.27422915331482,1.88329721976379,337.799513738416
738332.44365289539564400911,3.2619200211595,2.10486159855953,337.885677663503
738332.44365298585034906864,3.36039307840205,2.22795292011272,337.934914192124
738332.44365307630505412817,3.48348439995524,2.32642597735527,337.959532456435
738332.44365316664334386587,3.58195745719779,2.37566250597654,337.947223324279
738332.44365325709804892540,3.66812138228502,2.4125899024425,337.910295927814
738332.44365334755275398493,3.70504877875098,2.40028077028718,337.848750267037
738332.44365343800745904446,3.72966704306162,2.38797163813186,337.76258634195
738332.44365352846216410398,3.74197617521694,2.37566250597654,337.725658945484
738332.44365361880045384169,3.74197617521694,2.38797163813186,337.713349813328
738332.44365370925515890121,3.75428530737225,2.38797163813186,337.750277209794
738332.44365379970986396074,3.76659443952757,2.40028077028718,337.811822870571
738332.44365389016456902027,3.77890357168289,2.40028077028718,337.76258634195
738332.44365398061927407980,3.80352183599353,2.40028077028718,337.811822870571
738332.44365407107397913933,3.81583096814885,2.4125899024425,337.725658945484
738332.44365416141226887703,3.82814010030417,2.4125899024425,337.76258634195
738332.44365425186697393656,3.84044923245949,2.42489903459782,337.774895474105
738332.44365434232167899609,3.85275836461481,2.43720816675314,337.799513738416
738332.44365443277638405561,3.86506749677012,2.43720816675314,337.836441134882
738332.44365452323108911514,3.88968576108076,2.46182643106377,337.811822870571
738332.44365461356937885284,3.90199489323608,2.46182643106377,337.774895474105
738332.44365470402408391237,3.92661315754672,2.48644469537441,337.799513738416
738332.44365479447878897190,3.96354055401268,2.51106295968505,337.824132002726
738332.44365488493349403143,3.98815881832331,2.52337209184037,337.774895474105
738332.44365497538819909096,4.02508621478927,2.54799035615101,337.76258634195
738332.44365506584290415049,4.03739534694459,2.53568122399569,337.78720460626
738332.44365515618119388819,4.06201361125523,2.56029948830632,337.76258634195
738332.44365524663589894772,4.06201361125523,2.54799035615101,337.750277209794
738332.44365533709060400724,4.06201361125523,2.56029948830632,337.750277209794
738332.44365542754530906677,4.03739534694459,2.52337209184037,337.78720460626
738332.44365551800001412630,4.01277708263395,2.49875382752973,337.737968077639
738332.44365560833830386400,3.95123142185736,2.47413556321909,337.824132002726
738332.44365569879300892353,3.9143040253914,2.43720816675314,337.713349813328
738332.44365578924771398306,3.85275836461481,2.4125899024425,337.590258491775
738332.44365587970241904259,3.82814010030417,2.40028077028718,337.664113284707
738332.44365597015712410212,3.80352183599353,2.37566250597654,337.78720460626
738332.44365606061182916164,3.76659443952757,2.36335337382122,337.799513738416
738332.44365615095011889935,3.74197617521694,2.3510442416659,337.78720460626
738332.44365624140482395887,3.74197617521694,2.3510442416659,337.799513738416
738332.44365633185952901840,3.74197617521694,2.33873510951058,337.824132002726
738332.44365642231423407793,3.72966704306162,2.33873510951058,337.78720460626
738332.44365651276893913746,3.74197617521694,2.33873510951058,337.774895474105
738332.44365660322364419699,3.7173579109063,2.31411684519995,337.774895474105
738332.44365669356193393469,3.70504877875098,2.31411684519995,337.774895474105
738332.44365678401663899422,3.70504877875098,2.31411684519995,337.737968077639
738332.44365687447134405375,3.7173579109063,2.32642597735527,337.774895474105
738332.44365696492604911327,3.7173579109063,2.32642597735527,337.76258634195
738332.44365705538075417280,3.72966704306162,2.32642597735527,337.799513738416
738332.44365714571904391050,3.72966704306162,2.32642597735527,337.799513738416
738332.44365723617374897003,3.74197617521694,2.33873510951058,337.836441134882
738332.44365732662845402956,3.75428530737225,2.3510442416659,337.861059399192
738332.44365741708315908909,3.75428530737225,2.3510442416659,337.873368531348
738332.44365750753786414862,3.75428530737225,2.3510442416659,337.811822870571
738332.44365759799256920815,3.76659443952757,2.36335337382122,337.76258634195
738332.44365768833085894585,3.77890357168289,2.3510442416659,337.78720460626
738332.44365777878556400537,3.77890357168289,2.36335337382122,337.774895474105
738332.44365786924026906490,3.77890357168289,2.37566250597654,337.799513738416
738332.44365795969497412443,3.76659443952757,2.36335337382122,337.861059399192
738332.44365805014967918396,3.76659443952757,2.3510442416659,337.824132002726
738332.44365814048796892166,3.76659443952757,2.36335337382122,337.861059399192
738332.44365823094267398119,3.76659443952757,2.36335337382122,337.750277209794
738332.44365832139737904072,3.76659443952757,2.3510442416659,337.811822870571
738332.44365841185208410025,3.76659443952757,2.36335337382122,337.824132002726
738332.44365850230678915977,3.76659443952757,2.36335337382122,337.76258634195
738332.44365859276149421930,3.76659443952757,2.3510442416659,337.774895474105
738332.44365868309978395700,3.76659443952757,2.3510442416659,337.836441134882
738332.44365877355448901653,3.76659443952757,2.3510442416659,337.824132002726
738332.44365886400919407606,3.75428530737225,2.33873510951058,337.836441134882
738332.44365895446389913559,3.75428530737225,2.33873510951058,337.836441134882
738332.44365904491860419512,3.76659443952757,2.33873510951058,337.873368531348
738332.44365913525689393282,3.75428530737225,2.3510442416659,337.836441134882
738332.44365922571159899235,3.75428530737225,2.33873510951058,337.799513738416
738332.44365931616630405188,3.75428530737225,2.33873510951058,337.713349813328
738332.44365940662100911140,3.75428530737225,2.33873510951058,337.725658945484
738332.44365949707571417093,3.76659443952757,2.3510442416659,337.774895474105
738332.44365958753041923046,3.77890357168289,2.3510442416659,337.836441134882
738332.44365967786870896816,3.79121270383821,2.3510442416659,337.811822870571
738332.44365976832341402769,3.81583096814885,2.37566250597654,337.811822870571
738332.44365985877811908722,3.84044923245949,2.37566250597654,337.774895474105
738332.44365994923282414675,3.84044923245949,2.37566250597654,337.811822870571
738332.44366003968752920628,3.85275836461481,2.38797163813186,337.78720460626
738332.44366013002581894398,3.85275836461481,2.40028077028718,337.737968077639
738332.44366022048052400351,3.84044923245949,2.40028077028718,337.824132002726
738332.44366031093522906303,3.84044923245949,2.4125899024425,337.836441134882
738332.44366040138993412256,3.80352183599353,2.37566250597654,337.76258634195
738332.44366049184463918209,3.77890357168289,2.36335337382122,337.78720460626
738332.44366058229934424162,3.75428530737225,2.33873510951058,337.799513738416
738332.44366067263763397932,3.72966704306162,2.33873510951058,337.78720460626
738332.44366076309233903885,3.72966704306162,2.33873510951058,337.848750267037
738332.44366085354704409838,3.72966704306162,2.33873510951058,337.799513738416
738332.44366094400174915791,3.72966704306162,2.33873510951058,337.799513738416
738332.44366103445645421743,3.72966704306162,2.33873510951058,337.848750267037
738332.44366112479474395514,3.72966704306162,2.33873510951058,337.737968077639
738332.44366121524944901466,3.7173579109063,2.32642597735527,337.737968077639
738332.44366130570415407419,3.7173579109063,2.3510442416659,337.78720460626
738332.44366139615885913372,3.7173579109063,2.37566250597654,337.774895474105
738332.44366148661356419325,3.88968576108076,2.40028077028718,337.76258634195
738332.44366157706826925278,4.18510493280842,2.58491775261696,337.713349813328
738332.44366166740655899048,4.44359670807011,2.63415428123824,337.528712830999
738332.44366175786126405001,4.29588712220628,2.4125899024425,337.417930641601
738332.44366184831596910954,3.69273964659566,1.98177027700634,337.467167170222
738332.44366193877067416906,3.43424787133396,1.84636982329783,337.602567623931
738332.44366202922537922859,3.31115654978078,1.98177027700634,337.836441134882
738332.44366211956366896629,3.34808394624673,2.16640725933612,337.959532456435
738332.44366221001837402582,3.47117526779992,2.27718944873399,337.97184158859
738332.44366230047307908535,3.56964832504247,2.36335337382122,338.021078117211
738332.44366239092778414488,3.69273964659566,2.42489903459782,338.045696381522
738332.44366248138248920441,3.74197617521694,2.43720816675314,337.959532456435
738332.44366257183719426394,3.76659443952757,2.4125899024425,337.885677663503
738332.44366266217548400164,3.79121270383821,2.4125899024425,337.848750267037
738332.44366275263018906116,3.79121270383821,2.4125899024425,337.848750267037
738332.44366284308489412069,3.79121270383821,2.4125899024425,337.737968077639
738332.44366293353959918022,3.80352183599353,2.4125899024425,337.688731549018
738332.44366302399430423975,3.81583096814885,2.42489903459782,337.811822870571
738332.44366311433259397745,3.82814010030417,2.42489903459782,337.811822870571
738332.44366320478729903698,3.84044923245949,2.42489903459782,337.713349813328
738332.44366329524200409651,3.84044923245949,2.44951729890845,337.824132002726
738332.44366338569670915604,3.85275836461481,2.44951729890845,337.811822870571
738332.44366347615141421556,3.86506749677012,2.46182643106377,337.774895474105
738332.44366356660611927509,3.87737662892544,2.46182643106377,337.811822870571
738332.44366365694440901279,3.88968576108076,2.47413556321909,337.848750267037
738332.44366374739911407232,3.90199489323608,2.47413556321909,337.799513738416
738332.44366383785381913185,3.92661315754672,2.48644469537441,337.701040681173
738332.44366392830852419138,3.93892228970204,2.49875382752973,337.774895474105
738332.44366401876322925091,3.97584968616799,2.52337209184037,337.750277209794
738332.44366410921793431044,4.00046795047863,2.53568122399569,337.76258634195
738332.44366419955622404814,4.03739534694459,2.54799035615101,337.725658945484
738332.44366429001092910767,4.03739534694459,2.56029948830632,337.774895474105
738332.44366438046563416719,4.06201361125523,2.56029948830632,337.737968077639
738332.44366447092033922672,4.04970447909991,2.54799035615101,337.688731549018
738332.44366456137504428625,4.03739534694459,2.53568122399569,337.701040681173
738332.44366465171333402395,4.00046795047863,2.51106295968505,337.701040681173
738332.44366474216803908348,3.96354055401268,2.48644469537441,337.725658945484
738332.44366483262274414301,3.9143040253914,2.47413556321909,337.688731549018
738332.44366492307744920254,3.87737662892544,2.43720816675314,337.725658945484
738332.44366501353215426207,3.84044923245949,2.42489903459782,337.76258634195
738332.44366510398685932159,3.80352183599353,2.4125899024425,337.750277209794
738332.44366519432514905930,3.77890357168289,2.40028077028718,337.737968077639
738332.44366528477985411882,3.76659443952757,2.38797163813186,337.824132002726
738332.44366537523455917835,3.74197617521694,2.37566250597654,337.824132002726
738332.44366546568926423788,3.72966704306162,2.37566250597654,337.737968077639
738332.44366555614396929741,3.7173579109063,2.37566250597654,337.799513738416
738332.44366564648225903511,3.70504877875098,2.36335337382122,337.78720460626
738332.44366573693696409464,3.70504877875098,2.36335337382122,337.824132002726
738332.44366582739166915417,3.70504877875098,2.36335337382122,337.737968077639
738332.44366591784637421370,3.70504877875098,2.37566250597654,337.824132002726
738332.44366600830107927322,3.69273964659566,2.36335337382122,337.848750267037
738332.44366609875578433275,3.70504877875098,2.36335337382122,337.774895474105
738332.44366618909407407045,3.70504877875098,2.36335337382122,337.737968077639
738332.44366627954877912998,3.7173579109063,2.36335337382122,337.725658945484
738332.44366637000348418951,3.70504877875098,2.36335337382122,337.627185888241
738332.44366646045818924904,3.7173579109063,2.37566250597654,337.590258491775
738332.44366655091289430857,3.72966704306162,2.38797163813186,337.713349813328
738332.44366664125118404627,3.72966704306162,2.38797163813186,337.737968077639
738332.44366673170588910580,3.72966704306162,2.40028077028718,337.688731549018
738332.44366682216059416533,3.74197617521694,2.38797163813186,337.737968077639
738332.44366691261529922485,3.74197617521694,2.40028077028718,337.824132002726
738332.44366700307000428438,3.74197617521694,2.40028077028718,337.811822870571
738332.44366709352470934391,3.74197617521694,2.40028077028718,337.701040681173
738332.44366718386299908161,3.74197617521694,2.40028077028718,337.799513738416
738332.44366727431770414114,3.74197617521694,2.40028077028718,337.824132002726
738332.44366736477240920067,3.74197617521694,2.40028077028718,337.799513738416
738332.44366745522711426020,3.74197617521694,2.40028077028718,337.750277209794
738332.44366754568181931973,3.72966704306162,2.40028077028718,337.824132002726
738332.44366763602010905743,3.74197617521694,2.40028077028718,337.848750267037
738332.44366772647481411695,3.74197617521694,2.40028077028718,337.750277209794
738332.44366781692951917648,3.7173579109063,2.38797163813186,337.774895474105
738332.44366790738422423601,3.7173579109063,2.40028077028718,337.836441134882
738332.44366799783892929554,3.72966704306162,2.38797163813186,337.811822870571
738332.44366808829363435507,3.72966704306162,2.38797163813186,337.750277209794
738332.44366817863192409277,3.7173579109063,2.38797163813186,337.861059399192
738332.44366826908662915230,3.7173579109063,2.38797163813186,337.824132002726
738332.44366835954133421183,3.7173579109063,2.38797163813186,337.76258634195
738332.44366844999603927135,3.7173579109063,2.37566250597654,337.811822870571
738332.44366854045074433088,3.70504877875098,2.38797163813186,337.824132002726
738332.44366863078903406858,3.7173579109063,2.38797163813186,337.836441134882
738332.44366872124373912811,3.7173579109063,2.38797163813186,337.774895474105
738332.44366881169844418764,3.72966704306162,2.38797163813186,337.811822870571
738332.44366890215314924717,3.72966704306162,2.37566250597654,337.799513738416
738332.44366899260785430670,3.75428530737225,2.38797163813186,337.676422416862
738332.44366908306255936623,3.79121270383821,2.40028077028718,337.76258634195
738332.44366917340084910393,3.80352183599353,2.42489903459782,337.737968077639
738332.44366926385555416346,3.81583096814885,2.4125899024425,337.676422416862
738332.44366935431025922298,3.82814010030417,2.42489903459782,337.651804152552
738332.44366944476496428251,3.81583096814885,2.42489903459782,337.725658945484
738332.44366953521966934204,3.80352183599353,2.43720816675314,337.750277209794
738332.44366962555795907974,3.80352183599353,2.44951729890845,337.701040681173
738332.44366971601266413927,3.76659443952757,2.42489903459782,337.688731549018
738332.44366980646736919880,3.72966704306162,2.4125899024425,337.76258634195
738332.44366989692207425833,3.70504877875098,2.38797163813186,337.651804152552
738332.44366998737677931786,3.69273964659566,2.37566250597654,337.590258491775
738332.44367007783148437738,3.68043051444034,2.38797163813186,337.688731549018
738332.44367016816977411509,3.68043051444034,2.37566250597654,337.688731549018
738332.44367025862447917461,3.68043051444034,2.37566250597654,337.676422416862
738332.44367034907918423414,3.66812138228502,2.37566250597654,337.713349813328
738332.44367043953388929367,3.66812138228502,2.37566250597654,337.701040681173
738332.44367052998859435320,3.66812138228502,2.37566250597654,337.725658945484
738332.44367062032688409090,3.66812138228502,2.38797163813186,337.78720460626
738332.44367071078158915043,3.66812138228502,2.4125899024425,337.799513738416
738332.44367080123629420996,3.80352183599353,2.43720816675314,337.774895474105
738332.44367089169099926949,4.12355927203182,2.65877254554888,337.701040681173
738332.44367098214570432901,4.40666931160415,2.70800907417015,337.528712830999
738332.44367107260040938854,4.3081962543616,2.56029948830632,337.417930641601
738332.44367116293869912624,3.68043051444034,2.11717073071485,337.504094566688
738332.44367125339340418577,3.40962960702333,1.94484288054038,337.553331095309
738332.44367134384810924530,3.2619200211595,2.03100680562761,337.824132002726
738332.44367143430281430483,3.36039307840205,2.2156437879574,337.934914192124
738332.44367152475751936436,3.4588661356446,2.28949858088931,338.008768985056
738332.44367161509580910206,3.58195745719779,2.38797163813186,337.947223324279
738332.44367170555051416159,3.66812138228502,2.43720816675314,337.922605059969
738332.44367179600521922112,3.70504877875098,2.43720816675314,337.897986795658
738332.44367188645992428064,3.72966704306162,2.42489903459782,337.861059399192
738332.44367197691462934017,3.74197617521694,2.42489903459782,337.774895474105
738332.44367206736933439970,3.75428530737225,2.42489903459782,337.799513738416
738332.44367215770762413740,3.75428530737225,2.43720816675314,337.824132002726
738332.44367224816232919693,3.76659443952757,2.43720816675314,337.737968077639
738332.44367233861703425646,3.76659443952757,2.44951729890845,337.799513738416
738332.44367242907173931599,3.77890357168289,2.44951729890845,337.824132002726
738332.44367251952644437551,3.77890357168289,2.44951729890845,337.824132002726
738332.44367260998114943504,3.79121270383821,2.46182643106377,337.774895474105
738332.44367270031943917274,3.81583096814885,2.46182643106377,337.76258634195
738332.44367279077414423227,3.81583096814885,2.46182643106377,337.774895474105
738332.44367288122884929180,3.84044923245949,2.47413556321909,337.78720460626
738332.44367297168355435133,3.85275836461481,2.47413556321909,337.737968077639
738332.44367306213825941086,3.86506749677012,2.48644469537441,337.78720460626
738332.44367315247654914856,3.87737662892544,2.49875382752973,337.651804152552
738332.44367324293125420809,3.90199489323608,2.51106295968505,337.651804152552
738332.44367333338595926762,3.92661315754672,2.52337209184037,337.602567623931
738332.44367342384066432714,3.93892228970204,2.53568122399569,337.590258491775
738332.44367351429536938667,3.96354055401268,2.54799035615101,337.516403698843
738332.44367360475007444620,3.97584968616799,2.54799035615101,337.676422416862
738332.44367369508836418390,3.98815881832331,2.54799035615101,337.676422416862
738332.44367378554306924343,3.97584968616799,2.54799035615101,337.651804152552
738332.44367387599777430296,3.97584968616799,2.52337209184037,337.639495020397
738332.44367396645247936249,3.93892228970204,2.51106295968505,337.639495020397
738332.44367405690718442202,3.9143040253914,2.51106295968505,337.688731549018
738332.44367414724547415972,3.87737662892544,2.48644469537441,337.688731549018
738332.44367423770017921925,3.82814010030417,2.47413556321909,337.676422416862
738332.44367432815488427877,3.77890357168289,2.44951729890845,337.688731549018
738332.44367441860958933830,3.75428530737225,2.43720816675314,337.750277209794
738332.44367450906429439783,3.72966704306162,2.42489903459782,337.713349813328
738332.44367459951899945736,3.70504877875098,2.4125899024425,337.725658945484
738332.44367468985728919506,3.69273964659566,2.4125899024425,337.750277209794
738332.44367478031199425459,3.68043051444034,2.4125899024425,337.799513738416
738332.44367487076669931412,3.68043051444034,2.40028077028718,337.799513738416
738332.44367496122140437365,3.66812138228502,2.40028077028718,337.750277209794
738332.44367505167610943317,3.66812138228502,2.4125899024425,337.78720460626
738332.44367514201439917088,3.66812138228502,2.40028077028718,337.774895474105
738332.44367523246910423040,3.66812138228502,2.4125899024425,337.713349813328
738332.44367532292380928993,3.66812138228502,2.40028077028718,337.713349813328
738332.44367541337851434946,3.66812138228502,2.40028077028718,337.750277209794
738332.44367550383321940899,3.6558122501297,2.40028077028718,337.76258634195
738332.44367559428792446852,3.6558122501297,2.38797163813186,337.76258634195
738332.44367568462621420622,3.6558122501297,2.38797163813186,337.750277209794
738332.44367577508091926575,3.66812138228502,2.38797163813186,337.78720460626
738332.44367586553562432528,3.66812138228502,2.40028077028718,337.78720460626
738332.44367595599032938480,3.68043051444034,2.4125899024425,337.713349813328
738332.44367604644503444433,3.68043051444034,2.4125899024425,337.811822870571
738332.44367613678332418203,3.69273964659566,2.4125899024425,337.799513738416
738332.44367622723802924156,3.69273964659566,2.4125899024425,337.725658945484
738332.44367631769273430109,3.69273964659566,2.4125899024425,337.76258634195
738332.44367640814743936062,3.69273964659566,2.4125899024425,337.811822870571
738332.44367649860214442015,3.69273964659566,2.4125899024425,337.750277209794
738332.44367658905684947968,3.69273964659566,2.42489903459782,337.737968077639
738332.44367667939513921738,3.70504877875098,2.42489903459782,337.78720460626
738332.44367676984984427691,3.70504877875098,2.42489903459782,337.76258634195
738332.44367686030454933643,3.70504877875098,2.42489903459782,337.76258634195
738332.44367695075925439596,3.69273964659566,2.42489903459782,337.725658945484
738332.44367704121395945549,3.70504877875098,2.42489903459782,337.528712830999
738332.44367713155224919319,3.70504877875098,2.42489903459782,337.651804152552
738332.44367722200695425272,3.70504877875098,2.42489903459782,337.676422416862
738332.44367731246165931225,3.69273964659566,2.42489903459782,337.651804152552
738332.44367740291636437178,3.68043051444034,2.4125899024425,337.627185888241
738332.44367749337106943130,3.68043051444034,2.42489903459782,337.651804152552
738332.44367758382577449083,3.69273964659566,2.4125899024425,337.701040681173
738332.44367767416406422853,3.69273964659566,2.4125899024425,337.737968077639
738332.44367776461876928806,3.68043051444034,2.4125899024425,337.76258634195
738332.44367785507347434759,3.69273964659566,2.42489903459782,337.76258634195
738332.44367794552817940712,3.68043051444034,2.4125899024425,337.688731549018
738332.44367803598288446665,3.68043051444034,2.42489903459782,337.76258634195
738332.44367812632117420435,3.68043051444034,2.4125899024425,337.811822870571
738332.44367821677587926388,3.68043051444034,2.42489903459782,337.688731549018
738332.44367830723058432341,3.69273964659566,2.4125899024425,337.750277209794
738332.44367839768528938293,3.69273964659566,2.4125899024425,337.76258634195
738332.44367848813999444246,3.7173579109063,2.40028077028718,337.713349813328
738332.44367857859469950199,3.74197617521694,2.43720816675314,337.725658945484
738332.44367866893298923969,3.75428530737225,2.44951729890845,337.750277209794
738332.44367875938769429922,3.76659443952757,2.44951729890845,337.774895474105
738332.44367884984239935875,3.77890357168289,2.44951729890845,337.713349813328
738332.44367894029710441828,3.77890357168289,2.46182643106377,337.713349813328
738332.44367903075180947781,3.76659443952757,2.46182643106377,337.737968077639
738332.44367912109009921551,3.75428530737225,2.47413556321909,337.725658945484
738332.44367921154480427504,3.74197617521694,2.46182643106377,337.713349813328
738332.44367930199950933456,3.70504877875098,2.43720816675314,337.774895474105
738332.44367939245421439409,3.68043051444034,2.42489903459782,337.688731549018
738332.44367948290891945362,3.6558122501297,2.4125899024425,337.713349813328
738332.44367957336362451315,3.6558122501297,2.4125899024425,337.750277209794
738332.44367966370191425085,3.64350311797438,2.40028077028718,337.701040681173
738332.44367975415661931038,3.63119398581907,2.40028077028718,337.713349813328
738332.44367984461132436991,3.63119398581907,2.38797163813186,337.737968077639
738332.44367993506602942944,3.63119398581907,2.40028077028718,337.774895474105
738332.44368002552073448896,3.63119398581907,2.38797163813186,337.811822870571
738332.44368011597543954849,3.61888485366375,2.40028077028718,337.78720460626
738332.44368020631372928619,3.61888485366375,2.42489903459782,337.811822870571
738332.44368029676843434572,3.70504877875098,2.43720816675314,337.836441134882
738332.44368038722313940525,3.97584968616799,2.63415428123824,337.799513738416
738332.44368047767784446478,4.25895972574033,2.75724560279143,337.430239773756
738332.44368056813254952431,4.34512365082756,2.70800907417015,337.307148452203
738332.44368065847083926201,4.1112501398765,2.52337209184037,337.405621509445
738332.44368074892554432154,3.48348439995524,2.05562506993825,337.491785434533
738332.44368083938024938107,3.22499262469354,2.00638854131698,337.627185888241
738332.44368092983495444059,3.31115654978078,2.20333465580208,337.811822870571
738332.44368102028965950012,3.39732047486801,2.27718944873399,337.873368531348
738332.44368111074436455965,3.50810266426588,2.38797163813186,337.910295927814
738332.44368120108265429735,3.60657572150843,2.44951729890845,337.910295927814
738332.44368129153735935688,3.6558122501297,2.44951729890845,337.76258634195
738332.44368138199206441641,3.68043051444034,2.43720816675314,337.750277209794
738332.44368147244676947594,3.69273964659566,2.44951729890845,337.725658945484
738332.44368156290147453547,3.70504877875098,2.44951729890845,337.750277209794
738332.44368165323976427317,3.70504877875098,2.44951729890845,337.713349813328
738332.44368174369446933270,3.7173579109063,2.46182643106377,337.737968077639
738332.44368183414917439222,3.72966704306162,2.46182643106377,337.737968077639
738332.44368192460387945175,3.72966704306162,2.46182643106377,337.676422416862
738332.44368201505858451128,3.74197617521694,2.46182643106377,337.688731549018
738332.44368210551328957081,3.74197617521694,2.47413556321909,337.774895474105
738332.44368219585157930851,3.75428530737225,2.47413556321909,337.811822870571
738332.44368228630628436804,3.76659443952757,2.48644469537441,337.701040681173
738332.44368237676098942757,3.77890357168289,2.48644469537441,337.688731549018
738332.44368246721569448709,3.79121270383821,2.49875382752973,337.713349813328
738332.44368255767039954662,3.79121270383821,2.49875382752973,337.676422416862
738332.44368264800868928432,3.81583096814885,2.52337209184037,337.701040681173
738332.44368273846339434385,3.84044923245949,2.52337209184037,337.688731549018
738332.44368282891809940338,3.86506749677012,2.54799035615101,337.737968077639
738332.44368291937280446291,3.90199489323608,2.56029948830632,337.688731549018
738332.44368300982750952244,3.9143040253914,2.56029948830632,337.713349813328
738332.44368310028221458197,3.92661315754672,2.58491775261696,337.737968077639
738332.44368319062050431967,3.93892228970204,2.58491775261696,337.750277209794
738332.44368328107520937920,3.93892228970204,2.58491775261696,337.725658945484
738332.44368337152991443872,3.92661315754672,2.56029948830632,337.688731549018
738332.44368346198461949825,3.9143040253914,2.54799035615101,337.76258634195
738332.44368355243932455778,3.87737662892544,2.53568122399569,337.725658945484
738332.44368364277761429548,3.84044923245949,2.51106295968505,337.688731549018
738332.44368373323231935501,3.80352183599353,2.48644469537441,337.676422416862
738332.44368382368702441454,3.76659443952757,2.47413556321909,337.725658945484
738332.44368391414172947407,3.72966704306162,2.44951729890845,337.737968077639
738332.44368400459643453360,3.70504877875098,2.43720816675314,337.541021963154
738332.44368409505113959312,3.68043051444034,2.42489903459782,337.676422416862
738332.44368418538942933083,3.66812138228502,2.4125899024425,337.750277209794
738332.44368427584413439035,3.6558122501297,2.4125899024425,337.78720460626
738332.44368436629883944988,3.6558122501297,2.40028077028718,337.799513738416
738332.44368445675354450941,3.64350311797438,2.40028077028718,337.774895474105
738332.44368454720824956894,3.63119398581907,2.40028077028718,337.824132002726
738332.44368463754653930664,3.64350311797438,2.4125899024425,337.824132002726
738332.44368472800124436617,3.64350311797438,2.40028077028718,337.799513738416
738332.44368481845594942570,3.63119398581907,2.40028077028718,337.799513738416
738332.44368490891065448523,3.63119398581907,2.40028077028718,337.799513738416
738332.44368499936535954475,3.63119398581907,2.40028077028718,337.78720460626
738332.44368508982006460428,3.63119398581907,2.40028077028718,337.774895474105
738332.44368518015835434198,3.63119398581907,2.40028077028718,337.725658945484
738332.44368527061305940151,3.64350311797438,2.4125899024425,337.737968077639
738332.44368536106776446104,3.64350311797438,2.40028077028718,337.750277209794
738332.44368545152246952057,3.6558122501297,2.4125899024425,337.76258634195
738332.44368554197717458010,3.66812138228502,2.4125899024425,337.76258634195
738332.44368563231546431780,3.6558122501297,2.42489903459782,337.737968077639
738332.44368572277016937733,3.66812138228502,2.4125899024425,337.688731549018
738332.44368581322487443686,3.66812138228502,2.42489903459782,337.713349813328
738332.44368590367957949638,3.66812138228502,2.42489903459782,337.713349813328
738332.44368599413428455591,3.66812138228502,2.42489903459782,337.676422416862
738332.44368608458898961544,3.66812138228502,2.42489903459782,337.688731549018
738332.44368617492727935314,3.66812138228502,2.42489903459782,337.76258634195
738332.44368626538198441267,3.66812138228502,2.42489903459782,337.774895474105
738332.44368635583668947220,3.66812138228502,2.42489903459782,337.78720460626
738332.44368644629139453173,3.66812138228502,2.43720816675314,337.725658945484
738332.44368653674609959126,3.66812138228502,2.42489903459782,337.76258634195
738332.44368662708438932896,3.66812138228502,2.42489903459782,337.750277209794
738332.44368671753909438848,3.66812138228502,2.42489903459782,337.750277209794
738332.44368680799379944801,3.6558122501297,2.4125899024425,337.725658945484
738332.44368689844850450754,3.6558122501297,2.42489903459782,337.750277209794
738332.44368698890320956707,3.6558122501297,2.42489903459782,337.78720460626
738332.44368707935791462660,3.6558122501297,2.4125899024425,337.725658945484
738332.44368716969620436430,3.6558122501297,2.4125899024425,337.713349813328
738332.44368726015090942383,3.64350311797438,2.4125899024425,337.774895474105
738332.44368735060561448336,3.64350311797438,2.42489903459782,337.750277209794
738332.44368744106031954288,3.64350311797438,2.4125899024425,337.737968077639
738332.44368753151502460241,3.64350311797438,2.4125899024425,337.57794935962
738332.44368762185331434011,3.6558122501297,2.4125899024425,337.676422416862
738332.44368771230801939964,3.6558122501297,2.42489903459782,337.76258634195
738332.44368780276272445917,3.6558122501297,2.42489903459782,337.750277209794
738332.44368789321742951870,3.64350311797438,2.4125899024425,337.737968077639
738332.44368798367213457823,3.6558122501297,2.4125899024425,337.750277209794
738332.44368807412683963776,3.6558122501297,2.4125899024425,337.725658945484
738332.44368816446512937546,3.6558122501297,2.4125899024425,337.78720460626
738332.44368825491983443499,3.6558122501297,2.4125899024425,337.750277209794
738332.44368834537453949451,3.6558122501297,2.4125899024425,337.664113284707
738332.44368843582924455404,3.6558122501297,2.4125899024425,337.76258634195
738332.44368852628394961357,3.66812138228502,2.4125899024425,337.774895474105
738332.44368861673865467310,3.66812138228502,2.4125899024425,337.737968077639
738332.44368870707694441080,3.68043051444034,2.40028077028718,337.651804152552
738332.44368879753164947033,3.70504877875098,2.42489903459782,337.676422416862
738332.44368888798635452986,3.72966704306162,2.42489903459782,337.651804152552
738332.44368897844105958939,3.74197617521694,2.43720816675314,337.639495020397
738332.44368906889576464891,3.75428530737225,2.44951729890845,337.664113284707
738332.44368915923405438662,3.74197617521694,2.47413556321909,337.725658945484
738332.44368924968875944614,3.74197617521694,2.47413556321909,337.78720460626
738332.44368934014346450567,3.74197617521694,2.47413556321909,337.750277209794
738332.44368943059816956520,3.70504877875098,2.44951729890845,337.725658945484
738332.44368952105287462473,3.68043051444034,2.43720816675314,337.799513738416
738332.44368961150757968426,3.64350311797438,2.42489903459782,337.737968077639
738332.44368970184586942196,3.63119398581907,2.4125899024425,337.76258634195
738332.44368979230057448149,3.63119398581907,2.4125899024425,337.737968077639
738332.44368988275527954102,3.61888485366375,2.4125899024425,337.713349813328
738332.44368997320998460054,3.61888485366375,2.40028077028718,337.76258634195
738332.44369006366468966007,3.63119398581907,2.40028077028718,337.725658945484
738332.44369015400297939777,3.61888485366375,2.40028077028718,337.737968077639
738332.44369024445768445730,3.61888485366375,2.40028077028718,337.78720460626
738332.44369033491238951683,3.61888485366375,2.4125899024425,337.76258634195
738332.44369042536709457636,3.60657572150843,2.42489903459782,337.824132002726
738332.44369051582179963589,3.68043051444034,2.43720816675314,337.701040681173
738332.44369060627650469542,3.93892228970204,2.6095360169276,337.725658945484
738332.44369069661479443312,4.20972319711905,2.75724560279143,337.639495020397
738332.44369078706949949265,4.32050538651692,2.72031820632547,337.417930641601
738332.44369087752420455217,3.81583096814885,2.30180771304463,337.417930641601
738332.44369096797890961170,3.32346568193609,1.93253374838506,337.528712830999
738332.44369105843361467123,3.24961088900418,2.08024333424889,337.614876756086
738332.44369114877190440893,3.36039307840205,2.24026205226803,337.725658945484
738332.44369123922660946846,3.4588661356446,2.33873510951058,337.885677663503
738332.44369132968131452799,3.56964832504247,2.42489903459782,338.008768985056
738332.44369142013601958752,3.63119398581907,2.44951729890845,337.848750267037
738332.44369151059072464705,3.66812138228502,2.46182643106377,337.78720460626
738332.44369160104542970657,3.69273964659566,2.44951729890845,337.78720460626
738332.44369169138371944427,3.69273964659566,2.44951729890845,337.750277209794
738332.44369178183842450380,3.70504877875098,2.43720816675314,337.824132002726
738332.44369187229312956333,3.7173579109063,2.44951729890845,337.78720460626
738332.44369196274783462286,3.70504877875098,2.44951729890845,337.76258634195
738332.44369205320253968239,3.7173579109063,2.46182643106377,337.750277209794
738332.44369214354082942009,3.72966704306162,2.46182643106377,337.713349813328
738332.44369223399553447962,3.74197617521694,2.47413556321909,337.750277209794
738332.44369232445023953915,3.75428530737225,2.47413556321909,337.774895474105
738332.44369241490494459867,3.76659443952757,2.48644469537441,337.688731549018
738332.44369250535964965820,3.77890357168289,2.49875382752973,337.701040681173
738332.44369259581435471773,3.80352183599353,2.49875382752973,337.725658945484
738332.44369268615264445543,3.81583096814885,2.49875382752973,337.737968077639
738332.44369277660734951496,3.84044923245949,2.52337209184037,337.76258634195
738332.44369286706205457449,3.85275836461481,2.52337209184037,337.76258634195
738332.44369295751675963402,3.87737662892544,2.54799035615101,337.725658945484
738332.44369304797146469355,3.90199489323608,2.54799035615101,337.750277209794
738332.44369313830975443125,3.92661315754672,2.57260862046164,337.664113284707
738332.44369322876445949078,3.93892228970204,2.58491775261696,337.651804152552
738332.44369331921916455030,3.95123142185736,2.59722688477228,337.627185888241
