time_dn,ecg_projection_ll_ra_mV,ecg_projection_la_ra_mV,ecg_projection_vx_rl_mV
738332.44987834349740296602,4.35743278298288,3.0034282458978,336.507054862107
738332.44987843395210802555,4.38205104729352,3.01573737805312,336.494745729952
738332.44987852440681308508,4.39436017944884,3.02804651020844,336.519363994263
738332.44987861474510282278,4.44359670807011,3.0649739066744,336.494745729952
738332.44987870519980788231,4.50514236884671,3.11421043529567,336.482436597797
738332.44987879565451294184,4.48052410453607,3.0649739066744,336.519363994263
738332.44987888610921800137,4.54206976531266,3.12651956745099,336.568600522884
738332.44987897656392306089,4.54206976531266,3.11421043529567,336.543982258573
738332.44987906690221279860,4.57899716177862,3.15113783176163,336.531673126418
738332.44987915735691785812,4.46821497238075,3.05266477451908,336.470127465641
738332.44987924781162291765,4.49283323669139,3.08959217098504,336.519363994263
738332.44987933826632797718,4.51745150100202,3.10190130314035,336.507054862107
738332.44987942872103303671,4.44359670807011,3.04035564236376,336.543982258573
738332.44987951917573809624,4.38205104729352,2.97880998158717,336.507054862107
738332.44987960951402783394,4.32050538651692,2.95419171727653,336.568600522884
738332.44987969996873289347,4.3081962543616,2.95419171727653,336.60552791935
738332.44987979042343795300,4.24665059358501,2.90495518865525,336.494745729952
738332.44987988087814301252,4.20972319711905,2.88033692434461,336.580909655039
738332.44987997133284807205,4.23434146142969,2.90495518865525,336.580909655039
738332.44988006167113780975,4.20972319711905,2.89264605649993,336.60552791935
738332.44988015212584286928,4.1727958006531,2.85571866003398,336.580909655039
738332.44988024258054792881,4.18510493280842,2.8680277921893,336.63014618366
738332.44988033303525298834,4.14817753634246,2.85571866003398,336.654764447971
738332.44988042348995804787,4.14817753634246,2.85571866003398,336.654764447971
738332.44988051394466310740,4.18510493280842,2.88033692434461,336.63014618366
738332.44988060428295284510,4.14817753634246,2.85571866003398,336.63014618366
738332.44988069473765790462,4.13586840418714,2.85571866003398,336.654764447971
738332.44988078519236296415,4.13586840418714,2.85571866003398,336.445509201331
738332.44988087564706802368,4.18510493280842,2.89264605649993,336.543982258573
738332.44988096610177308321,4.13586840418714,2.8680277921893,336.654764447971
738332.44988105655647814274,4.13586840418714,2.8680277921893,336.679382712282
738332.44988114689476788044,4.14817753634246,2.88033692434461,336.60552791935
738332.44988123734947293997,4.18510493280842,2.92957345296589,336.63014618366
738332.44988132780417799950,4.14817753634246,2.88033692434461,336.654764447971
738332.44988141825888305902,4.1727958006531,2.90495518865525,336.580909655039
738332.44988150871358811855,4.19741406496373,2.90495518865525,336.617837051505
738332.44988159905187785625,4.18510493280842,2.89264605649993,336.531673126418
738332.44988168950658291578,4.18510493280842,2.89264605649993,336.568600522884
738332.44988177996128797531,4.19741406496373,2.90495518865525,336.568600522884
738332.44988187041599303484,4.1727958006531,2.89264605649993,336.617837051505
738332.44988196087069809437,4.1727958006531,2.90495518865525,336.654764447971
738332.44988205132540315390,4.1727958006531,2.91726432081057,336.667073580126
738332.44988214166369289160,4.16048666849778,2.90495518865525,336.679382712282
738332.44988223211839795113,4.13586840418714,2.88033692434461,336.679382712282
738332.44988232257310301065,4.18510493280842,2.92957345296589,336.654764447971
738332.44988241302780807018,4.14817753634246,2.90495518865525,336.568600522884
738332.44988250348251312971,4.1112501398765,2.8680277921893,336.642455315816
738332.44988259382080286741,4.13586840418714,2.90495518865525,336.704000976592
738332.44988268427550792694,4.13586840418714,2.89264605649993,336.617837051505
738332.44988277473021298647,4.09894100772118,2.8680277921893,336.667073580126
738332.44988286518491804600,4.12355927203182,2.89264605649993,336.654764447971
738332.44988295563962310553,4.12355927203182,2.89264605649993,336.617837051505
738332.44988304609432816505,4.1112501398765,2.89264605649993,336.654764447971
738332.44988313643261790276,4.13586840418714,2.89264605649993,336.60552791935
738332.44988322688732296228,4.1112501398765,2.88033692434461,336.593218787194
738332.44988331734202802181,4.12355927203182,2.89264605649993,336.617837051505
738332.44988340779673308134,4.12355927203182,2.90495518865525,336.63014618366
738332.44988349825143814087,4.12355927203182,2.90495518865525,336.667073580126
738332.44988358858972787857,4.08663187556586,2.88033692434461,336.704000976592
738332.44988367904443293810,4.13586840418714,2.91726432081057,336.667073580126
738332.44988376949913799763,4.09894100772118,2.88033692434461,336.63014618366
738332.44988385995384305716,4.07432274341055,2.8680277921893,336.63014618366
738332.44988395040854811668,4.08663187556586,2.8680277921893,336.63014618366
738332.44988404086325317621,4.08663187556586,2.85571866003398,336.593218787194
738332.44988413120154291391,4.08663187556586,2.8680277921893,336.667073580126
738332.44988422165624797344,4.1112501398765,2.88033692434461,336.617837051505
738332.44988431211095303297,4.08663187556586,2.8680277921893,336.457818333486
738332.44988440256565809250,4.07432274341055,2.84340952787866,336.531673126418
738332.44988449302036315203,4.08663187556586,2.85571866003398,336.691691844437
738332.44988458335865288973,4.12355927203182,2.89264605649993,336.728619240903
738332.44988467381335794926,4.07432274341055,2.85571866003398,336.777855769524
738332.44988476426806300879,4.04970447909991,2.84340952787866,336.716310108748
738332.44988485472276806831,4.06201361125523,2.84340952787866,336.740928373058
738332.44988494517747312784,4.1112501398765,2.88033692434461,336.765546637369
738332.44988503563217818737,4.03739534694459,2.83110039572334,336.704000976592
738332.44988512597046792507,4.07432274341055,2.85571866003398,336.753237505214
738332.44988521642517298460,4.09894100772118,2.85571866003398,336.740928373058
738332.44988530687987804413,4.07432274341055,2.84340952787866,336.740928373058
738332.44988539733458310366,4.08663187556586,2.84340952787866,336.728619240903
738332.44988548778928816319,4.09894100772118,2.8680277921893,336.765546637369
738332.44988557812757790089,4.13586840418714,2.88033692434461,336.716310108748
738332.44988566858228296041,4.14817753634246,2.89264605649993,336.716310108748
738332.44988575903698801994,4.16048666849778,2.88033692434461,336.728619240903
738332.44988584949169307947,4.14817753634246,2.89264605649993,336.728619240903
738332.44988593994639813900,4.1727958006531,2.94188258512121,336.691691844437
738332.44988603040110319853,4.1727958006531,2.94188258512121,336.716310108748
738332.44988612073939293623,4.09894100772118,2.8680277921893,336.777855769524
738332.44988621119409799576,4.07432274341055,2.85571866003398,336.802474033835
738332.44988630164880305529,4.03739534694459,2.81879126356802,336.753237505214
738332.44988639210350811481,4.04970447909991,2.81879126356802,336.827092298145
738332.44988648255821317434,4.03739534694459,2.83110039572334,336.851710562456
738332.44988657289650291204,4.02508621478927,2.8064821314127,336.765546637369
738332.44988666335120797157,4.02508621478927,2.79417299925738,336.740928373058
738332.44988675380591303110,4.03739534694459,2.79417299925738,336.704000976592
738332.44988684426061809063,4.02508621478927,2.81879126356802,336.704000976592
738332.44988693471532315016,4.03739534694459,2.83110039572334,336.716310108748
738332.44988702517002820969,4.02508621478927,2.8064821314127,336.667073580126
738332.44988711550831794739,4.02508621478927,2.81879126356802,336.728619240903
738332.44988720596302300692,4.13586840418714,2.85571866003398,336.728619240903
738332.44988729641772806644,4.41897844375947,3.0649739066744,336.753237505214
738332.44988738687243312597,4.68977935117649,3.12651956745099,336.531673126418
738332.44988747732713818550,4.68977935117649,3.0034282458978,336.322417879777
738332.44988756778184324503,4.16048666849778,2.53568122399569,336.445509201331
738332.44988765812013298273,3.7173579109063,2.25257118442335,336.60552791935
738332.44988774857483804226,3.68043051444034,2.47413556321909,336.864019694611
738332.44988783902954310179,3.75428530737225,2.6095360169276,336.79016490168
738332.44988792948424816132,3.85275836461481,2.72031820632547,336.900947091077
738332.44988801993895322084,3.93892228970204,2.76955473494675,337.024038412631
738332.44988811027724295855,4.01277708263395,2.8064821314127,336.974801884009
738332.44988820073194801807,4.04970447909991,2.79417299925738,336.839401430301
738332.44988829118665307760,4.07432274341055,2.81879126356802,336.777855769524
738332.44988838164135813713,4.08663187556586,2.84340952787866,336.777855769524
738332.44988847209606319666,4.1112501398765,2.83110039572334,336.765546637369
738332.44988856255076825619,4.1112501398765,2.83110039572334,336.740928373058
738332.44988865288905799389,4.1112501398765,2.84340952787866,336.728619240903
738332.44988874334376305342,4.1112501398765,2.85571866003398,336.740928373058
738332.44988883379846811295,4.13586840418714,2.8680277921893,336.777855769524
738332.44988892425317317247,4.13586840418714,2.89264605649993,336.79016490168
738332.44988901470787823200,4.13586840418714,2.89264605649993,336.753237505214
738332.44988910504616796970,4.16048666849778,2.91726432081057,336.740928373058
738332.44988919550087302923,4.1727958006531,2.92957345296589,336.79016490168
738332.44988928595557808876,4.19741406496373,2.96650084943185,336.691691844437
738332.44988937641028314829,4.20972319711905,2.97880998158717,336.740928373058
738332.44988946686498820782,4.23434146142969,2.99111911374248,336.765546637369
738332.44988955731969326735,4.27126885789565,3.01573737805312,336.691691844437
738332.44988964765798300505,4.28357799005097,3.04035564236376,336.704000976592
738332.44988973811268806458,4.33281451867224,3.05266477451908,336.704000976592
738332.44988982856739312410,4.3697419151382,3.08959217098504,336.704000976592
738332.44988991902209818363,4.40666931160415,3.10190130314035,336.667073580126
738332.44989000947680324316,4.40666931160415,3.08959217098504,336.753237505214
738332.44989009981509298086,4.41897844375947,3.08959217098504,336.728619240903
738332.44989019026979804039,4.40666931160415,3.0649739066744,336.667073580126
738332.44989028072450309992,4.3697419151382,3.04035564236376,336.654764447971
738332.44989037117920815945,4.34512365082756,3.01573737805312,336.593218787194
738332.44989046163391321898,4.32050538651692,3.01573737805312,336.654764447971
738332.44989055208861827850,4.27126885789565,3.01573737805312,336.593218787194
738332.44989064242690801620,4.22203232927437,2.96650084943185,336.728619240903
738332.44989073288161307573,4.1727958006531,2.94188258512121,336.777855769524
738332.44989082333631813526,4.14817753634246,2.95419171727653,336.81478316599
738332.44989091379102319479,4.1112501398765,2.92957345296589,336.728619240903
738332.44989100424572825432,4.08663187556586,2.91726432081057,336.777855769524
738332.44989109458401799202,4.06201361125523,2.90495518865525,336.839401430301
738332.44989118503872305155,4.04970447909991,2.91726432081057,336.740928373058
738332.44989127549342811108,4.04970447909991,2.88033692434461,336.839401430301
738332.44989136594813317060,4.03739534694459,2.89264605649993,336.679382712282
738332.44989145640283823013,4.03739534694459,2.88033692434461,336.679382712282
738332.44989154685754328966,4.02508621478927,2.89264605649993,336.716310108748
738332.44989163719583302736,4.02508621478927,2.88033692434461,336.79016490168
738332.44989172765053808689,4.01277708263395,2.85571866003398,336.765546637369
738332.44989181810524314642,4.01277708263395,2.8680277921893,336.716310108748
738332.44989190855994820595,4.02508621478927,2.8680277921893,336.765546637369
738332.44989199901465326548,4.01277708263395,2.85571866003398,336.704000976592
738332.44989208935294300318,4.02508621478927,2.85571866003398,336.728619240903
738332.44989217980764806271,4.01277708263395,2.8680277921893,336.765546637369
738332.44989227026235312223,4.02508621478927,2.88033692434461,336.753237505214
738332.44989236071705818176,4.02508621478927,2.8680277921893,336.765546637369
738332.44989245117176324129,4.02508621478927,2.89264605649993,336.728619240903
738332.44989254162646830082,4.03739534694459,2.90495518865525,336.765546637369
738332.44989263196475803852,4.03739534694459,2.89264605649993,336.728619240903
738332.44989272241946309805,4.03739534694459,2.90495518865525,336.740928373058
738332.44989281287416815758,4.04970447909991,2.90495518865525,336.753237505214
738332.44989290332887321711,4.04970447909991,2.91726432081057,336.79016490168
738332.44989299378357827663,4.04970447909991,2.90495518865525,336.753237505214
738332.44989308412186801434,4.04970447909991,2.91726432081057,336.839401430301
738332.44989317457657307386,4.03739534694459,2.89264605649993,336.864019694611
738332.44989326503127813339,4.02508621478927,2.91726432081057,336.765546637369
738332.44989335548598319292,4.02508621478927,2.92957345296589,336.827092298145
738332.44989344594068825245,4.03739534694459,2.91726432081057,336.839401430301
738332.44989353639539331198,4.02508621478927,2.91726432081057,336.777855769524
738332.44989362673368304968,4.02508621478927,2.90495518865525,336.851710562456
738332.44989371718838810921,4.02508621478927,2.91726432081057,336.888637958922
738332.44989380764309316874,4.01277708263395,2.91726432081057,336.839401430301
738332.44989389809779822826,4.01277708263395,2.89264605649993,336.827092298145
738332.44989398855250328779,4.02508621478927,2.89264605649993,336.827092298145
738332.44989407900720834732,4.01277708263395,2.91726432081057,336.851710562456
738332.44989416934549808502,4.02508621478927,2.91726432081057,336.79016490168
738332.44989425980020314455,4.01277708263395,2.90495518865525,336.839401430301
738332.44989435025490820408,4.00046795047863,2.90495518865525,336.864019694611
738332.44989444070961326361,4.00046795047863,2.90495518865525,336.876328826767
738332.44989453116431832314,4.00046795047863,2.89264605649993,336.851710562456
738332.44989462150260806084,4.00046795047863,2.90495518865525,336.839401430301
738332.44989471195731312037,4.00046795047863,2.92957345296589,336.864019694611
738332.44989480241201817989,4.01277708263395,2.90495518865525,336.839401430301
738332.44989489286672323942,4.01277708263395,2.89264605649993,336.765546637369
738332.44989498332142829895,4.06201361125523,2.92957345296589,336.568600522884
738332.44989507377613335848,4.04970447909991,2.92957345296589,336.728619240903
738332.44989516411442309618,4.06201361125523,2.91726432081057,336.765546637369
738332.44989525456912815571,4.07432274341055,2.94188258512121,336.740928373058
738332.44989534502383321524,4.07432274341055,2.95419171727653,336.753237505214
738332.44989543547853827477,4.09894100772118,2.97880998158717,336.704000976592
738332.44989552593324333429,4.03739534694459,2.92957345296589,336.667073580126
738332.44989561627153307199,4.02508621478927,2.91726432081057,336.777855769524
738332.44989570672623813152,4.02508621478927,2.91726432081057,336.753237505214
738332.44989579718094319105,3.97584968616799,2.89264605649993,336.765546637369
738332.44989588763564825058,3.97584968616799,2.90495518865525,336.765546637369
738332.44989597809035331011,3.95123142185736,2.89264605649993,336.765546637369
738332.44989606854505836964,3.92661315754672,2.85571866003398,336.79016490168
738332.44989615888334810734,3.95123142185736,2.88033692434461,336.802474033835
738332.44989624933805316687,3.96354055401268,2.90495518865525,336.802474033835
738332.44989633979275822639,3.93892228970204,2.88033692434461,336.827092298145
738332.44989643024746328592,3.96354055401268,2.90495518865525,336.851710562456
738332.44989652070216834545,3.95123142185736,2.89264605649993,336.888637958922
738332.44989661104045808315,3.96354055401268,2.91726432081057,336.827092298145
738332.44989670149516314268,4.16048666849778,2.97880998158717,336.827092298145
738332.44989679194986820221,4.41897844375947,3.13882869960631,336.802474033835
738332.44989688240457326174,4.61592455824458,3.11421043529567,336.556291390728
738332.44989697285927832127,4.51745150100202,2.92957345296589,336.519363994263
738332.44989706331398338079,3.85275836461481,2.46182643106377,336.543982258573
738332.44989715365227311850,3.50810266426588,2.4125899024425,336.802474033835
738332.44989724410697817802,3.54503006073183,2.64646341339356,336.974801884009
738332.44989733456168323755,3.68043051444034,2.78186386710206,337.048656676941
738332.44989742501638829708,3.77890357168289,2.88033692434461,337.073274941252
738332.44989751547109335661,3.86506749677012,2.92957345296589,337.097893205563
738332.44989760580938309431,3.97584968616799,2.97880998158717,337.024038412631
738332.44989769626408815384,4.00046795047863,2.94188258512121,336.974801884009
738332.44989778671879321337,4.01277708263395,2.92957345296589,336.888637958922
738332.44989787717349827290,4.04970447909991,2.94188258512121,336.81478316599
738332.44989796762820333242,4.04970447909991,2.94188258512121,336.851710562456
738332.44989805808290839195,4.04970447909991,2.95419171727653,336.851710562456
738332.44989814842119812965,4.04970447909991,2.94188258512121,336.864019694611
738332.44989823887590318918,4.07432274341055,2.96650084943185,336.79016490168
738332.44989832933060824871,4.14817753634246,3.02804651020844,336.81478316599
738332.44989841978531330824,4.08663187556586,2.96650084943185,336.765546637369
738332.44989851024001836777,4.07432274341055,2.94188258512121,336.654764447971
738332.44989860057830810547,4.12355927203182,2.99111911374248,336.691691844437
738332.44989869103301316500,4.16048666849778,3.01573737805312,336.704000976592
738332.44989878148771822453,4.13586840418714,2.99111911374248,336.716310108748
738332.44989887194242328405,4.1727958006531,3.01573737805312,336.691691844437
738332.44989896239712834358,4.18510493280842,3.02804651020844,336.765546637369
738332.44989905285183340311,4.24665059358501,3.0649739066744,336.765546637369
738332.44989914319012314081,4.27126885789565,3.0649739066744,336.740928373058
738332.44989923364482820034,4.3081962543616,3.07728303882972,336.716310108748
738332.44989932409953325987,4.35743278298288,3.11421043529567,336.667073580126
738332.44989941455423831940,4.3697419151382,3.11421043529567,336.642455315816
738332.44989950500894337893,4.3697419151382,3.08959217098504,336.704000976592
738332.44989959534723311663,4.41897844375947,3.13882869960631,336.667073580126
738332.44989968580193817616,4.39436017944884,3.11421043529567,336.63014618366
738332.44989977625664323568,4.35743278298288,3.0649739066744,336.654764447971
738332.44989986671134829521,4.32050538651692,3.02804651020844,336.617837051505
738332.44989995716605335474,4.28357799005097,3.01573737805312,336.654764447971
738332.44990004762075841427,4.20972319711905,2.95419171727653,336.728619240903
738332.44990013795904815197,4.18510493280842,2.91726432081057,336.765546637369
738332.44990022841375321150,4.1112501398765,2.8680277921893,336.753237505214
738332.44990031886845827103,4.08663187556586,2.85571866003398,336.704000976592
738332.44990040932316333055,4.04970447909991,2.84340952787866,336.79016490168
738332.44990049977786839008,4.03739534694459,2.90495518865525,336.81478316599
738332.44990059023257344961,4.02508621478927,2.89264605649993,336.839401430301
738332.44990068057086318731,4.02508621478927,2.91726432081057,336.777855769524
738332.44990077102556824684,4.01277708263395,2.90495518865525,336.802474033835
738332.44990086148027330637,4.00046795047863,2.89264605649993,336.839401430301
738332.44990095193497836590,4.00046795047863,2.88033692434461,336.827092298145
738332.44990104238968342543,4.00046795047863,2.88033692434461,336.839401430301
738332.44990113272797316313,3.98815881832331,2.89264605649993,336.777855769524
738332.44990122318267822266,3.98815881832331,2.89264605649993,336.716310108748
738332.44990131363738328218,3.98815881832331,2.89264605649993,336.765546637369
738332.44990140409208834171,4.00046795047863,2.91726432081057,336.802474033835
738332.44990149454679340124,4.01277708263395,2.92957345296589,336.839401430301
738332.44990158500149846077,4.00046795047863,2.92957345296589,336.864019694611
738332.44990167533978819847,4.01277708263395,2.94188258512121,336.851710562456
738332.44990176579449325800,4.00046795047863,2.94188258512121,336.802474033835
738332.44990185624919831753,4.02508621478927,2.94188258512121,336.864019694611
738332.44990194670390337706,4.03739534694459,2.96650084943185,336.765546637369
738332.44990203715860843658,4.03739534694459,2.96650084943185,336.704000976592
738332.44990212749689817429,4.02508621478927,2.95419171727653,336.79016490168
738332.44990221795160323381,4.02508621478927,2.96650084943185,336.827092298145
738332.44990230840630829334,4.02508621478927,2.97880998158717,336.851710562456
738332.44990239886101335287,4.03739534694459,2.97880998158717,336.864019694611
738332.44990248931571841240,4.02508621478927,2.96650084943185,336.81478316599
738332.44990257977042347193,4.03739534694459,2.99111911374248,336.802474033835
738332.44990267010871320963,4.02508621478927,2.97880998158717,336.740928373058
738332.44990276056341826916,4.01277708263395,2.97880998158717,336.79016490168
738332.44990285101812332869,4.01277708263395,2.97880998158717,336.753237505214
738332.44990294147282838821,4.01277708263395,2.96650084943185,336.728619240903
738332.44990303192753344774,4.01277708263395,2.96650084943185,336.728619240903
738332.44990312226582318544,4.01277708263395,2.97880998158717,336.740928373058
738332.44990321272052824497,4.01277708263395,2.97880998158717,336.81478316599
738332.44990330317523330450,4.01277708263395,2.97880998158717,336.765546637369
738332.44990339362993836403,4.00046795047863,2.96650084943185,336.753237505214
738332.44990348408464342356,4.00046795047863,2.96650084943185,336.864019694611
738332.44990357453934848309,4.00046795047863,2.96650084943185,336.827092298145
738332.44990366487763822079,4.00046795047863,2.97880998158717,336.740928373058
738332.44990375533234328032,4.00046795047863,2.95419171727653,336.81478316599
738332.44990384578704833984,4.00046795047863,2.95419171727653,336.839401430301
738332.44990393624175339937,4.01277708263395,2.95419171727653,336.81478316599
738332.44990402669645845890,4.03739534694459,2.96650084943185,336.765546637369
738332.44990411703474819660,4.04970447909991,2.97880998158717,336.777855769524
738332.44990420748945325613,4.06201361125523,2.97880998158717,336.765546637369
738332.44990429794415831566,4.07432274341055,2.99111911374248,336.716310108748
738332.44990438839886337519,4.08663187556586,3.0034282458978,336.765546637369
738332.44990447885356843472,4.07432274341055,3.02804651020844,336.765546637369
738332.44990456930827349424,4.06201361125523,3.01573737805312,336.716310108748
738332.44990465964656323195,4.04970447909991,2.99111911374248,336.802474033835
738332.44990475010126829147,4.00046795047863,2.96650084943185,336.827092298145
738332.44990484055597335100,3.97584968616799,2.95419171727653,336.777855769524
738332.44990493101067841053,3.96354055401268,2.95419171727653,336.827092298145
738332.44990502146538347006,3.95123142185736,2.95419171727653,336.864019694611
738332.44990511180367320776,3.93892228970204,2.95419171727653,336.839401430301
738332.44990520225837826729,3.93892228970204,2.94188258512121,336.827092298145
738332.44990529271308332682,3.93892228970204,2.95419171727653,336.851710562456
738332.44990538316778838634,3.92661315754672,2.94188258512121,336.851710562456
738332.44990547362249344587,3.92661315754672,2.94188258512121,336.777855769524
738332.44990556407719850540,3.92661315754672,2.92957345296589,336.63014618366
738332.44990565441548824310,3.92661315754672,2.94188258512121,336.802474033835
738332.44990574487019330263,3.93892228970204,2.96650084943185,336.839401430301
738332.44990583532489836216,4.13586840418714,3.01573737805312,336.864019694611
738332.44990592577960342169,4.41897844375947,3.22499262469354,336.802474033835
738332.44990601623430848122,4.65285195471053,3.21268349253822,336.568600522884
738332.44990610657259821892,4.43128757591479,2.92957345296589,336.457818333486
738332.44990619702730327845,3.82814010030417,2.49875382752973,336.580909655039
738332.44990628748200833797,3.54503006073183,2.47413556321909,336.79016490168
738332.44990637793671339750,3.56964832504247,2.68339080985951,336.950183619699
738332.44990646839141845703,3.6558122501297,2.79417299925738,337.036347544786
738332.44990655884612351656,3.75428530737225,2.89264605649993,337.134820602028
738332.44990664918441325426,3.87737662892544,2.96650084943185,337.110202337718
738332.44990673963911831379,3.92661315754672,2.97880998158717,336.937874487543
738332.44990683009382337332,3.93892228970204,2.97880998158717,336.81478316599
738332.44990692054852843285,3.96354055401268,2.96650084943185,336.777855769524
738332.44990701100323349237,3.98815881832331,2.97880998158717,336.81478316599
738332.44990710145793855190,4.00046795047863,2.96650084943185,336.802474033835
738332.44990719179622828960,3.98815881832331,2.96650084943185,336.777855769524
738332.44990728225093334913,4.00046795047863,2.96650084943185,336.716310108748
738332.44990737270563840866,4.02508621478927,2.97880998158717,336.753237505214
738332.44990746316034346819,4.01277708263395,2.97880998158717,336.753237505214
738332.44990755361504852772,4.01277708263395,2.96650084943185,336.777855769524
738332.44990764395333826542,4.04970447909991,3.0034282458978,336.802474033835
738332.44990773440804332495,4.07432274341055,3.0034282458978,336.777855769524
738332.44990782486274838448,4.07432274341055,3.0034282458978,336.79016490168
738332.44990791531745344400,4.08663187556586,3.02804651020844,336.728619240903
738332.44990800577215850353,4.12355927203182,3.05266477451908,336.716310108748
738332.44990809622686356306,4.13586840418714,3.05266477451908,336.740928373058
738332.44990818656515330076,4.1727958006531,3.07728303882972,336.802474033835
738332.44990827701985836029,4.20972319711905,3.08959217098504,336.81478316599
738332.44990836747456341982,4.23434146142969,3.10190130314035,336.728619240903
738332.44990845792926847935,4.25895972574033,3.10190130314035,336.679382712282
738332.44990854838397353888,4.29588712220628,3.11421043529567,336.691691844437
738332.44990863872226327658,4.29588712220628,3.10190130314035,336.667073580126
738332.44990872917696833611,4.29588712220628,3.10190130314035,336.654764447971
738332.44990881963167339563,4.28357799005097,3.07728303882972,336.691691844437
738332.44990891008637845516,4.25895972574033,3.05266477451908,336.679382712282
738332.44990900054108351469,4.20972319711905,3.02804651020844,336.679382712282
738332.44990909099578857422,4.19741406496373,3.01573737805312,336.580909655039
738332.44990918133407831192,4.14817753634246,3.0034282458978,336.753237505214
738332.44990927178878337145,4.08663187556586,2.96650084943185,336.79016490168
738332.44990936224348843098,4.06201361125523,2.95419171727653,336.728619240903
738332.44990945269819349051,4.02508621478927,2.91726432081057,336.851710562456
738332.44990954315289855003,3.98815881832331,2.89264605649993,336.827092298145
738332.44990963349118828773,3.97584968616799,2.84340952787866,336.740928373058
738332.44990972394589334726,3.97584968616799,2.84340952787866,336.765546637369
738332.44990981440059840679,3.95123142185736,2.88033692434461,336.802474033835
738332.44990990485530346632,3.96354055401268,2.89264605649993,336.839401430301
738332.44990999531000852585,3.95123142185736,2.89264605649993,336.81478316599
738332.44991008576471358538,3.95123142185736,2.89264605649993,336.876328826767
738332.44991017610300332308,3.93892228970204,2.88033692434461,336.839401430301
738332.44991026655770838261,3.93892228970204,2.89264605649993,336.864019694611
738332.44991035701241344213,3.92661315754672,2.89264605649993,336.851710562456
738332.44991044746711850166,3.92661315754672,2.89264605649993,336.864019694611
738332.44991053792182356119,3.92661315754672,2.90495518865525,336.888637958922
738332.44991062826011329889,3.95123142185736,2.90495518865525,336.81478316599
738332.44991071871481835842,3.95123142185736,2.91726432081057,336.900947091077
738332.44991080916952341795,3.95123142185736,2.91726432081057,336.900947091077
738332.44991089962422847748,3.95123142185736,2.92957345296589,336.876328826767
738332.44991099007893353701,3.96354055401268,2.92957345296589,336.876328826767
738332.44991108053363859653,3.95123142185736,2.92957345296589,336.864019694611
738332.44991117087192833424,3.95123142185736,2.92957345296589,336.864019694611
738332.44991126132663339376,3.97584968616799,2.94188258512121,336.839401430301
738332.44991135178133845329,3.96354055401268,2.94188258512121,336.740928373058
738332.44991144223604351282,3.97584968616799,2.95419171727653,336.802474033835
738332.44991153269074857235,3.95123142185736,2.94188258512121,336.827092298145
738332.44991162302903831005,3.97584968616799,2.95419171727653,336.777855769524
738332.44991171348374336958,3.95123142185736,2.94188258512121,336.765546637369
738332.44991180393844842911,3.96354055401268,2.94188258512121,336.81478316599
738332.44991189439315348864,3.95123142185736,2.94188258512121,336.839401430301
738332.44991198484785854816,3.95123142185736,2.94188258512121,336.839401430301
738332.44991207530256360769,3.93892228970204,2.94188258512121,336.839401430301
738332.44991216564085334539,3.92661315754672,2.92957345296589,336.81478316599
738332.44991225609555840492,3.95123142185736,2.92957345296589,336.777855769524
738332.44991234655026346445,3.93892228970204,2.92957345296589,336.79016490168
738332.44991243700496852398,3.93892228970204,2.92957345296589,336.79016490168
738332.44991252745967358351,3.92661315754672,2.92957345296589,336.580909655039
738332.44991261779796332121,3.93892228970204,2.92957345296589,336.691691844437
738332.44991270825266838074,3.92661315754672,2.92957345296589,336.765546637369
738332.44991279870737344027,3.92661315754672,2.91726432081057,336.777855769524
738332.44991288916207849979,3.9143040253914,2.91726432081057,336.802474033835
738332.44991297961678355932,3.95123142185736,2.92957345296589,336.839401430301
738332.44991307007148861885,3.95123142185736,2.91726432081057,336.79016490168
738332.44991316040977835655,3.96354055401268,2.92957345296589,336.864019694611
738332.44991325086448341608,3.98815881832331,2.94188258512121,336.81478316599
738332.44991334131918847561,4.00046795047863,2.94188258512121,336.716310108748
738332.44991343177389353514,4.00046795047863,2.95419171727653,336.740928373058
738332.44991352222859859467,4.02508621478927,2.96650084943185,336.81478316599
738332.44991361268330365419,4.01277708263395,2.96650084943185,336.765546637369
738332.44991370302159339190,4.01277708263395,2.99111911374248,336.839401430301
738332.44991379347629845142,3.96354055401268,2.94188258512121,336.79016490168
738332.44991388393100351095,3.93892228970204,2.94188258512121,336.79016490168
738332.44991397438570857048,3.9143040253914,2.91726432081057,336.839401430301
738332.44991406484041363001,3.9143040253914,2.92957345296589,336.827092298145
738332.44991415517870336771,3.88968576108076,2.91726432081057,336.864019694611
738332.44991424563340842724,3.88968576108076,2.90495518865525,336.900947091077
738332.44991433608811348677,3.88968576108076,2.91726432081057,336.802474033835
738332.44991442654281854630,3.87737662892544,2.90495518865525,336.900947091077
738332.44991451699752360582,3.86506749677012,2.90495518865525,336.900947091077
738332.44991460745222866535,3.87737662892544,2.90495518865525,336.913256223233
738332.44991469779051840305,3.86506749677012,2.89264605649993,336.802474033835
738332.44991478824522346258,3.85275836461481,2.92957345296589,336.900947091077
738332.44991487869992852211,3.88968576108076,2.94188258512121,336.937874487543
738332.44991496915463358164,4.1112501398765,3.05266477451908,336.913256223233
738332.44991505960933864117,4.38205104729352,3.24961088900418,336.81478316599
738332.44991514994762837887,4.57899716177862,3.23730175684886,336.580909655039
738332.44991524040233343840,4.24665059358501,2.90495518865525,336.556291390728
738332.44991533085703849792,3.66812138228502,2.4125899024425,336.531673126418
738332.44991542131174355745,3.5204117964212,2.49875382752973,336.839401430301
738332.44991551176644861698,3.58195745719779,2.70800907417015,337.011729280475
738332.44991560222115367651,3.6558122501297,2.8064821314127,337.011729280475
738332.44991569255944341421,3.75428530737225,2.89264605649993,337.110202337718
738332.44991578301414847374,3.84044923245949,2.96650084943185,337.073274941252
738332.44991587346885353327,3.87737662892544,2.96650084943185,337.011729280475
738332.44991596392355859280,3.90199489323608,2.95419171727653,336.839401430301
738332.44991605437826365232,3.9143040253914,2.94188258512121,336.642455315816
738332.44991614471655339003,3.9143040253914,2.94188258512121,336.728619240903
738332.44991623517125844955,3.93892228970204,2.95419171727653,336.81478316599
738332.44991632562596350908,3.95123142185736,2.96650084943185,336.851710562456
738332.44991641608066856861,3.96354055401268,2.96650084943185,336.851710562456
738332.44991650653537362814,3.96354055401268,2.96650084943185,336.913256223233
738332.44991659699007868767,3.96354055401268,2.96650084943185,336.691691844437
738332.44991668732836842537,3.97584968616799,2.97880998158717,336.802474033835
738332.44991677778307348490,3.97584968616799,2.97880998158717,336.802474033835
738332.44991686823777854443,4.00046795047863,2.99111911374248,336.851710562456
738332.44991695869248360395,4.01277708263395,3.01573737805312,336.81478316599
738332.44991704914718866348,4.02508621478927,3.0034282458978,336.81478316599
738332.44991713948547840118,4.04970447909991,3.02804651020844,336.839401430301
738332.44991722994018346071,4.07432274341055,3.04035564236376,336.864019694611
738332.44991732039488852024,4.09894100772118,3.05266477451908,336.827092298145
738332.44991741084959357977,4.13586840418714,3.05266477451908,336.802474033835
738332.44991750130429863930,4.16048666849778,3.08959217098504,336.839401430301
738332.44991759175900369883,4.19741406496373,3.10190130314035,336.839401430301
738332.44991768209729343653,4.20972319711905,3.11421043529567,336.753237505214
738332.44991777255199849606,4.20972319711905,3.10190130314035,336.79016490168
738332.44991786300670355558,4.20972319711905,3.08959217098504,336.704000976592
738332.44991795346140861511,4.19741406496373,3.07728303882972,336.740928373058
738332.44991804391611367464,4.16048666849778,3.05266477451908,336.802474033835
738332.44991813425440341234,4.12355927203182,3.02804651020844,336.839401430301
738332.44991822470910847187,4.07432274341055,3.0034282458978,336.851710562456
738332.44991831516381353140,4.02508621478927,2.99111911374248,336.740928373058
738332.44991840561851859093,4.01277708263395,2.96650084943185,336.802474033835
738332.44991849607322365046,3.97584968616799,2.96650084943185,336.851710562456
738332.44991858652792870998,3.95123142185736,2.94188258512121,336.876328826767
738332.44991867686621844769,3.92661315754672,2.92957345296589,336.925565355388
738332.44991876732092350721,3.9143040253914,2.92957345296589,336.900947091077
738332.44991885777562856674,3.90199489323608,2.91726432081057,336.876328826767
738332.44991894823033362627,3.90199489323608,2.91726432081057,336.913256223233
738332.44991903868503868580,3.87737662892544,2.90495518865525,336.876328826767
738332.44991912902332842350,3.87737662892544,2.90495518865525,336.851710562456
738332.44991921947803348303,3.88968576108076,2.90495518865525,336.913256223233
738332.44991930993273854256,3.88968576108076,2.90495518865525,336.900947091077
738332.44991940038744360209,3.88968576108076,2.90495518865525,336.851710562456
738332.44991949084214866161,3.88968576108076,2.89264605649993,336.900947091077
738332.44991958129685372114,3.88968576108076,2.90495518865525,336.728619240903
738332.44991967163514345884,3.88968576108076,2.90495518865525,336.802474033835
738332.44991976208984851837,3.88968576108076,2.90495518865525,336.876328826767
738332.44991985254455357790,3.90199489323608,2.90495518865525,336.876328826767
738332.44991994299925863743,3.9143040253914,2.91726432081057,336.913256223233
738332.44992003345396369696,3.9143040253914,2.90495518865525,336.900947091077
738332.44992012390866875648,3.9143040253914,2.91726432081057,336.81478316599
738332.44992021424695849419,3.9143040253914,2.92957345296589,336.777855769524
738332.44992030470166355371,3.92661315754672,2.92957345296589,336.753237505214
738332.44992039515636861324,3.92661315754672,2.92957345296589,336.777855769524
738332.44992048561107367277,3.9143040253914,2.92957345296589,336.753237505214
738332.44992057606577873230,3.9143040253914,2.92957345296589,336.740928373058
738332.44992066640406847000,3.9143040253914,2.92957345296589,336.79016490168
738332.44992075685877352953,3.9143040253914,2.91726432081057,336.765546637369
738332.44992084731347858906,3.9143040253914,2.92957345296589,336.802474033835
738332.44992093776818364859,3.9143040253914,2.92957345296589,336.839401430301
738332.44992102822288870811,3.9143040253914,2.91726432081057,336.864019694611
738332.44992111867759376764,3.9143040253914,2.92957345296589,336.79016490168
738332.44992120901588350534,3.9143040253914,2.92957345296589,336.81478316599
738332.44992129947058856487,3.90199489323608,2.92957345296589,336.851710562456
738332.44992138992529362440,3.90199489323608,2.92957345296589,336.839401430301
738332.44992148037999868393,3.9143040253914,2.92957345296589,336.81478316599
738332.44992157083470374346,3.88968576108076,2.90495518865525,336.839401430301
738332.44992166117299348116,3.88968576108076,2.91726432081057,336.827092298145
738332.44992175162769854069,3.88968576108076,2.91726432081057,336.839401430301
738332.44992184208240360022,3.88968576108076,2.91726432081057,336.888637958922
738332.44992193253710865974,3.90199489323608,2.90495518865525,336.888637958922
738332.44992202299181371927,3.90199489323608,2.91726432081057,336.900947091077
738332.44992211344651877880,3.90199489323608,2.92957345296589,336.888637958922
738332.44992220378480851650,3.9143040253914,2.91726432081057,336.802474033835
738332.44992229423951357603,3.93892228970204,2.91726432081057,336.765546637369
738332.44992238469421863556,3.96354055401268,2.92957345296589,336.802474033835
738332.44992247514892369509,3.97584968616799,2.92957345296589,336.765546637369
738332.44992256560362875462,3.98815881832331,2.94188258512121,336.79016490168
738332.44992265594191849232,3.98815881832331,2.95419171727653,336.81478316599
738332.44992274639662355185,3.98815881832331,2.97880998158717,336.827092298145
738332.44992283685132861137,3.97584968616799,2.97880998158717,336.864019694611
738332.44992292730603367090,3.93892228970204,2.95419171727653,336.888637958922
738332.44992301776073873043,3.9143040253914,2.92957345296589,336.827092298145
738332.44992310821544378996,3.88968576108076,2.91726432081057,336.777855769524
738332.44992319855373352766,3.87737662892544,2.90495518865525,336.802474033835
738332.44992328900843858719,3.87737662892544,2.90495518865525,336.888637958922
738332.44992337946314364672,3.86506749677012,2.90495518865525,336.851710562456
738332.44992346991784870625,3.86506749677012,2.90495518865525,336.81478316599
738332.44992356037255376577,3.86506749677012,2.89264605649993,336.81478316599
738332.44992365071084350348,3.86506749677012,2.89264605649993,336.81478316599
738332.44992374116554856300,3.85275836461481,2.88033692434461,336.79016490168
738332.44992383162025362253,3.85275836461481,2.91726432081057,336.913256223233
738332.44992392207495868206,3.85275836461481,2.92957345296589,336.962492751854
738332.44992401252966374159,3.95123142185736,2.94188258512121,336.937874487543
738332.44992410298436880112,4.18510493280842,3.13882869960631,336.876328826767
738332.44992419332265853882,4.43128757591479,3.2619200211595,336.777855769524
738332.44992428377736359835,4.50514236884671,3.16344696391695,336.556291390728
738332.44992437423206865788,4.03739534694459,2.70800907417015,336.568600522884
738332.44992446468677371740,3.56964832504247,2.3510442416659,336.580909655039
738332.44992455514147877693,3.53272092857652,2.54799035615101,336.81478316599
738332.44992464547976851463,3.59426658935311,2.72031820632547,336.913256223233
738332.44992473593447357416,3.68043051444034,2.84340952787866,337.011729280475
738332.44992482638917863369,3.77890357168289,2.90495518865525,337.073274941252
738332.44992491684388369322,3.86506749677012,2.95419171727653,336.962492751854
738332.44992500729858875275,3.88968576108076,2.96650084943185,336.900947091077
738332.44992509775329381227,3.9143040253914,2.96650084943185,336.851710562456
738332.44992518809158354998,3.92661315754672,2.95419171727653,336.851710562456
738332.44992527854628860950,3.93892228970204,2.95419171727653,336.864019694611
738332.44992536900099366903,3.95123142185736,2.96650084943185,336.876328826767
738332.44992545945569872856,3.95123142185736,2.95419171727653,336.827092298145
738332.44992554991040378809,3.96354055401268,2.96650084943185,336.81478316599
738332.44992564024869352579,3.97584968616799,2.96650084943185,336.839401430301
738332.44992573070339858532,3.97584968616799,2.97880998158717,336.864019694611
738332.44992582115810364485,3.98815881832331,2.99111911374248,336.81478316599
738332.44992591161280870438,4.00046795047863,3.0034282458978,336.839401430301
738332.44992600206751376390,4.01277708263395,3.0034282458978,336.839401430301
738332.44992609252221882343,4.02508621478927,3.0034282458978,336.827092298145
738332.44992618286050856113,4.04970447909991,3.02804651020844,336.839401430301
738332.44992627331521362066,4.07432274341055,3.02804651020844,336.79016490168
738332.44992636376991868019,4.09894100772118,3.04035564236376,336.851710562456
738332.44992645422462373972,4.13586840418714,3.0649739066744,336.81478316599
738332.44992654467932879925,4.16048666849778,3.0649739066744,336.79016490168
738332.44992663513403385878,4.19741406496373,3.08959217098504,336.667073580126
738332.44992672547232359648,4.22203232927437,3.11421043529567,336.679382712282
738332.44992681592702865601,4.23434146142969,3.11421043529567,336.753237505214
738332.44992690638173371553,4.24665059358501,3.11421043529567,336.802474033835
738332.44992699683643877506,4.22203232927437,3.08959217098504,336.777855769524
738332.44992708729114383459,4.20972319711905,3.07728303882972,336.839401430301
738332.44992717762943357229,4.1727958006531,3.05266477451908,336.802474033835
738332.44992726808413863182,4.13586840418714,3.02804651020844,336.777855769524
738332.44992735853884369135,4.08663187556586,3.0034282458978,336.827092298145
738332.44992744899354875088,4.04970447909991,2.96650084943185,336.851710562456
738332.44992753944825381041,4.01277708263395,2.94188258512121,336.827092298145
738332.44992762990295886993,4.00046795047863,2.94188258512121,336.851710562456
738332.44992772024124860764,3.97584968616799,2.94188258512121,336.876328826767
738332.44992781069595366716,3.95123142185736,2.91726432081057,336.888637958922
738332.44992790115065872669,3.93892228970204,2.91726432081057,336.79016490168
738332.44992799160536378622,3.93892228970204,2.90495518865525,336.777855769524
738332.44992808206006884575,3.92661315754672,2.89264605649993,336.79016490168
738332.44992817239835858345,3.92661315754672,2.89264605649993,336.740928373058
738332.44992826285306364298,3.92661315754672,2.89264605649993,336.79016490168
738332.44992835330776870251,3.9143040253914,2.88033692434461,336.827092298145
738332.44992844376247376204,3.9143040253914,2.89264605649993,336.765546637369
738332.44992853421717882156,3.9143040253914,2.88033692434461,336.777855769524
738332.44992862467188388109,3.9143040253914,2.89264605649993,336.839401430301
738332.44992871501017361879,3.92661315754672,2.89264605649993,336.839401430301
738332.44992880546487867832,3.92661315754672,2.90495518865525,336.765546637369
738332.44992889591958373785,3.92661315754672,2.90495518865525,336.827092298145
738332.44992898637428879738,3.93892228970204,2.90495518865525,336.79016490168
738332.44992907682899385691,3.93892228970204,2.90495518865525,336.851710562456
738332.44992916716728359461,3.95123142185736,2.91726432081057,336.827092298145
738332.44992925762198865414,3.95123142185736,2.92957345296589,336.864019694611
738332.44992934807669371367,3.95123142185736,2.92957345296589,336.802474033835
738332.44992943853139877319,3.95123142185736,2.92957345296589,336.81478316599
738332.44992952898610383272,3.95123142185736,2.94188258512121,336.802474033835
738332.44992961944080889225,3.95123142185736,2.92957345296589,336.827092298145
738332.44992970977909862995,3.96354055401268,2.92957345296589,336.839401430301
738332.44992980023380368948,3.95123142185736,2.94188258512121,336.81478316599
738332.44992989068850874901,3.95123142185736,2.92957345296589,336.876328826767
738332.44992998114321380854,3.95123142185736,2.91726432081057,336.900947091077
738332.44993007159791886806,3.95123142185736,2.92957345296589,336.827092298145
738332.44993016193620860577,3.93892228970204,2.92957345296589,336.765546637369
738332.44993025239091366529,3.93892228970204,2.92957345296589,336.667073580126
738332.44993034284561872482,3.93892228970204,2.94188258512121,336.79016490168
738332.44993043330032378435,3.93892228970204,2.92957345296589,336.839401430301
738332.44993052375502884388,3.93892228970204,2.92957345296589,336.913256223233
738332.44993061420973390341,3.92661315754672,2.91726432081057,336.876328826767
738332.44993070454802364111,3.92661315754672,2.91726432081057,336.802474033835
738332.44993079500272870064,3.92661315754672,2.92957345296589,336.864019694611
738332.44993088545743376017,3.92661315754672,2.91726432081057,336.839401430301
738332.44993097591213881969,3.92661315754672,2.91726432081057,336.765546637369
738332.44993106636684387922,3.92661315754672,2.92957345296589,336.827092298145
738332.44993115670513361692,3.93892228970204,2.92957345296589,336.839401430301
738332.44993124715983867645,3.93892228970204,2.91726432081057,336.851710562456
738332.44993133761454373598,3.95123142185736,2.91726432081057,336.864019694611
738332.44993142806924879551,3.96354055401268,2.91726432081057,336.839401430301
738332.44993151852395385504,3.98815881832331,2.94188258512121,336.839401430301
738332.44993160897865891457,4.00046795047863,2.94188258512121,336.839401430301
738332.44993169931694865227,4.01277708263395,2.94188258512121,336.827092298145
738332.44993178977165371180,4.02508621478927,2.96650084943185,336.864019694611
738332.44993188022635877132,4.01277708263395,2.97880998158717,336.839401430301
738332.44993197068106383085,4.01277708263395,2.99111911374248,336.79016490168
738332.44993206113576889038,3.98815881832331,2.96650084943185,336.827092298145
738332.44993215147405862808,3.95123142185736,2.94188258512121,336.900947091077
738332.44993224192876368761,3.9143040253914,2.91726432081057,336.827092298145
738332.44993233238346874714,3.90199489323608,2.90495518865525,336.876328826767
738332.44993242283817380667,3.88968576108076,2.90495518865525,336.913256223233
738332.44993251329287886620,3.87737662892544,2.90495518865525,336.913256223233
738332.44993260374758392572,3.87737662892544,2.89264605649993,336.888637958922
738332.44993269408587366343,3.87737662892544,2.89264605649993,336.839401430301
738332.44993278454057872295,3.87737662892544,2.89264605649993,336.888637958922
738332.44993287499528378248,3.87737662892544,2.89264605649993,336.79016490168
738332.44993296544998884201,3.86506749677012,2.90495518865525,336.81478316599
738332.44993305590469390154,3.86506749677012,2.91726432081057,336.925565355388
738332.44993314635939896107,3.96354055401268,2.92957345296589,336.888637958922
738332.44993323669768869877,4.07432274341055,3.01573737805312,336.777855769524
738332.44993332715239375830,4.33281451867224,3.24961088900418,336.765546637369
738332.44993341760709881783,4.54206976531266,3.2619200211595,336.519363994263
738332.44993350806180387735,4.3081962543616,2.95419171727653,336.482436597797
738332.44993359851650893688,3.76659443952757,2.43720816675314,336.507054862107
738332.44993368885479867458,3.54503006073183,2.43720816675314,336.691691844437
738332.44993377930950373411,3.58195745719779,2.65877254554888,336.777855769524
738332.44993386976420879364,3.66812138228502,2.76955473494675,337.024038412631
738332.44993396021891385317,3.75428530737225,2.8680277921893,337.097893205563
738332.44993405067361891270,3.85275836461481,2.95419171727653,337.073274941252
738332.44993414112832397223,3.90199489323608,2.95419171727653,336.99942014832
738332.44993423146661370993,3.92661315754672,2.95419171727653,336.99942014832
738332.44993432192131876945,3.93892228970204,2.95419171727653,336.937874487543
738332.44993441237602382898,3.93892228970204,2.94188258512121,336.81478316599
738332.44993450283072888851,3.95123142185736,2.94188258512121,336.876328826767
738332.44993459328543394804,3.96354055401268,2.95419171727653,336.827092298145
738332.44993468362372368574,3.97584968616799,2.94188258512121,336.876328826767
738332.44993477407842874527,3.97584968616799,2.95419171727653,336.864019694611
738332.44993486453313380480,3.98815881832331,2.94188258512121,336.827092298145
738332.44993495498783886433,4.00046795047863,2.95419171727653,336.839401430301
738332.44993504544254392385,4.00046795047863,2.97880998158717,336.81478316599
738332.44993513589724898338,4.01277708263395,2.97880998158717,336.827092298145
738332.44993522623553872108,4.02508621478927,2.99111911374248,336.864019694611
738332.44993531669024378061,4.04970447909991,2.99111911374248,336.913256223233
738332.44993540714494884014,4.06201361125523,3.0034282458978,336.777855769524
738332.44993549759965389967,4.09894100772118,3.02804651020844,336.740928373058
738332.44993558805435895920,4.12355927203182,3.04035564236376,336.827092298145
738332.44993567839264869690,4.16048666849778,3.04035564236376,336.839401430301
738332.44993576884735375643,4.18510493280842,3.0649739066744,336.864019694611
738332.44993585930205881596,4.20972319711905,3.07728303882972,336.81478316599
738332.44993594975676387548,4.23434146142969,3.10190130314035,336.827092298145
738332.44993604021146893501,4.23434146142969,3.08959217098504,336.827092298145
738332.44993613066617399454,4.23434146142969,3.08959217098504,336.765546637369
738332.44993622100446373224,4.20972319711905,3.05266477451908,336.839401430301
738332.44993631145916879177,4.19741406496373,3.04035564236376,336.839401430301
738332.44993640191387385130,4.14817753634246,3.0034282458978,336.79016490168
738332.44993649236857891083,4.1112501398765,2.97880998158717,336.839401430301
738332.44993658282328397036,4.04970447909991,2.94188258512121,336.864019694611
738332.44993667316157370806,4.01277708263395,2.92957345296589,336.827092298145
738332.44993676361627876759,3.98815881832331,2.90495518865525,336.913256223233
738332.44993685407098382711,3.96354055401268,2.89264605649993,336.864019694611
738332.44993694452568888664,3.95123142185736,2.89264605649993,336.876328826767
738332.44993703498039394617,3.93892228970204,2.88033692434461,336.765546637369
738332.44993712543509900570,3.9143040253914,2.8680277921893,336.777855769524
738332.44993721577338874340,3.9143040253914,2.85571866003398,336.753237505214
738332.44993730622809380293,3.9143040253914,2.85571866003398,336.704000976592
738332.44993739668279886246,3.90199489323608,2.85571866003398,336.81478316599
738332.44993748713750392199,3.90199489323608,2.84340952787866,336.864019694611
738332.44993757759220898151,3.90199489323608,2.84340952787866,336.851710562456
738332.44993766793049871922,3.90199489323608,2.85571866003398,336.802474033835
738332.44993775838520377874,3.90199489323608,2.84340952787866,336.876328826767
738332.44993784883990883827,3.9143040253914,2.8680277921893,336.851710562456
738332.44993793929461389780,3.90199489323608,2.85571866003398,336.900947091077
738332.44993802974931895733,3.92661315754672,2.8680277921893,336.900947091077
738332.44993812020402401686,3.9143040253914,2.8680277921893,336.876328826767
738332.44993821054231375456,3.92661315754672,2.89264605649993,336.900947091077
738332.44993830099701881409,3.92661315754672,2.88033692434461,336.851710562456
738332.44993839145172387362,3.93892228970204,2.89264605649993,336.851710562456
738332.44993848190642893314,3.95123142185736,2.90495518865525,336.802474033835
738332.44993857236113399267,3.93892228970204,2.88033692434461,336.864019694611
738332.44993866269942373037,3.92661315754672,2.88033692434461,336.79016490168
738332.44993875315412878990,3.92661315754672,2.88033692434461,336.827092298145
738332.44993884360883384943,3.92661315754672,2.89264605649993,336.81478316599
738332.44993893406353890896,3.92661315754672,2.88033692434461,336.876328826767
738332.44993902451824396849,3.92661315754672,2.88033692434461,336.876328826767
738332.44993911497294902802,3.9143040253914,2.8680277921893,336.851710562456
738332.44993920531123876572,3.9143040253914,2.88033692434461,336.79016490168
738332.44993929576594382524,3.9143040253914,2.89264605649993,336.802474033835
738332.44993938622064888477,3.92661315754672,2.88033692434461,336.802474033835
738332.44993947667535394430,3.92661315754672,2.8680277921893,336.802474033835
738332.44993956713005900383,3.9143040253914,2.88033692434461,336.777855769524
738332.44993965758476406336,3.90199489323608,2.8680277921893,336.839401430301
738332.44993974792305380106,3.9143040253914,2.8680277921893,336.777855769524
738332.44993983837775886059,3.9143040253914,2.85571866003398,336.827092298145
738332.44993992883246392012,3.90199489323608,2.84340952787866,336.900947091077
738332.44994001928716897964,3.90199489323608,2.84340952787866,336.79016490168
738332.44994010974187403917,3.9143040253914,2.85571866003398,336.864019694611
738332.44994020008016377687,3.95123142185736,2.88033692434461,336.864019694611
738332.44994029053486883640,3.95123142185736,2.88033692434461,336.864019694611
738332.44994038098957389593,3.96354055401268,2.8680277921893,336.81478316599
738332.44994047144427895546,3.97584968616799,2.89264605649993,336.888637958922
738332.44994056189898401499,3.96354055401268,2.90495518865525,336.864019694611
738332.44994065235368907452,3.97584968616799,2.91726432081057,336.81478316599
738332.44994074269197881222,3.96354055401268,2.90495518865525,336.864019694611
738332.44994083314668387175,3.92661315754672,2.88033692434461,336.728619240903
738332.44994092360138893127,3.88968576108076,2.83110039572334,336.888637958922
738332.44994101405609399080,3.85275836461481,2.83110039572334,336.888637958922
738332.44994110451079905033,3.85275836461481,2.84340952787866,336.974801884009
738332.44994119484908878803,3.84044923245949,2.83110039572334,336.913256223233
738332.44994128530379384756,3.82814010030417,2.81879126356802,336.839401430301
738332.44994137575849890709,3.82814010030417,2.81879126356802,336.913256223233
738332.44994146621320396662,3.82814010030417,2.81879126356802,336.925565355388
738332.44994155666790902615,3.81583096814885,2.79417299925738,336.900947091077
738332.44994164712261408567,3.81583096814885,2.79417299925738,336.950183619699
738332.44994173746090382338,3.81583096814885,2.83110039572334,336.962492751854
738332.44994182791560888290,3.81583096814885,2.83110039572334,336.851710562456
738332.44994191837031394243,3.97584968616799,2.85571866003398,336.851710562456
738332.44994200882501900196,4.24665059358501,3.08959217098504,336.765546637369
738332.44994209927972406149,4.46821497238075,3.13882869960631,336.667073580126
738332.44994218961801379919,4.32050538651692,2.8680277921893,336.531673126418
738332.44994228007271885872,3.77890357168289,2.40028077028718,336.642455315816
738332.44994237052742391825,3.44655700348928,2.28949858088931,336.827092298145
738332.44994246098212897778,3.42193873917865,2.52337209184037,336.962492751854
738332.44994255143683403730,3.44655700348928,2.6095360169276,336.974801884009
738332.44994264189153909683,3.58195745719779,2.73262733848079,337.024038412631
738332.44994273222982883453,3.6558122501297,2.8064821314127,337.110202337718
738332.44994282268453389406,3.76659443952757,2.88033692434461,337.110202337718
738332.44994291313923895359,3.81583096814885,2.88033692434461,336.987111016165
738332.44994300359394401312,3.85275836461481,2.88033692434461,336.950183619699
738332.44994309404864907265,3.87737662892544,2.8680277921893,336.925565355388
738332.44994318438693881035,3.88968576108076,2.8680277921893,336.876328826767
738332.44994327484164386988,3.90199489323608,2.8680277921893,336.864019694611
738332.44994336529634892941,3.90199489323608,2.88033692434461,336.827092298145
738332.44994345575105398893,3.9143040253914,2.88033692434461,336.851710562456
738332.44994354620575904846,3.93892228970204,2.89264605649993,336.839401430301
738332.44994363666046410799,3.95123142185736,2.89264605649993,336.802474033835
738332.44994372699875384569,3.95123142185736,2.89264605649993,336.802474033835
738332.44994381745345890522,3.95123142185736,2.90495518865525,336.876328826767
738332.44994390790816396475,3.96354055401268,2.90495518865525,336.864019694611
738332.44994399836286902428,3.98815881832331,2.94188258512121,336.777855769524
738332.44994408881757408381,4.01277708263395,2.95419171727653,336.851710562456
738332.44994417915586382151,4.03739534694459,2.96650084943185,336.851710562456
738332.44994426961056888103,4.07432274341055,2.97880998158717,336.617837051505
738332.44994436006527394056,4.1112501398765,3.0034282458978,336.593218787194
738332.44994445051997900009,4.12355927203182,3.01573737805312,336.81478316599
738332.44994454097468405962,4.16048666849778,3.04035564236376,336.79016490168
738332.44994463142938911915,4.19741406496373,3.0649739066744,336.765546637369
738332.44994472176767885685,4.20972319711905,3.02804651020844,336.79016490168
738332.44994481222238391638,4.19741406496373,3.04035564236376,336.802474033835
738332.44994490267708897591,4.19741406496373,3.04035564236376,336.802474033835
738332.44994499313179403543,4.1727958006531,3.0034282458978,336.667073580126
738332.44994508358649909496,4.13586840418714,2.96650084943185,336.704000976592
738332.44994517392478883266,4.08663187556586,2.94188258512121,336.716310108748
738332.44994526437949389219,4.02508621478927,2.90495518865525,336.679382712282
738332.44994535483419895172,3.98815881832331,2.85571866003398,336.728619240903
738332.44994544528890401125,3.93892228970204,2.84340952787866,336.827092298145
738332.44994553574360907078,3.9143040253914,2.81879126356802,336.802474033835
738332.44994562619831413031,3.87737662892544,2.8064821314127,336.827092298145
738332.44994571653660386801,3.85275836461481,2.79417299925738,336.876328826767
738332.44994580699130892754,3.84044923245949,2.79417299925738,336.888637958922
738332.44994589744601398706,3.82814010030417,2.78186386710206,336.827092298145
738332.44994598790071904659,3.82814010030417,2.76955473494675,336.864019694611
738332.44994607835542410612,3.81583096814885,2.76955473494675,336.864019694611
738332.44994616881012916565,3.81583096814885,2.78186386710206,336.79016490168
738332.44994625914841890335,3.81583096814885,2.76955473494675,336.81478316599
738332.44994634960312396288,3.81583096814885,2.78186386710206,336.81478316599
738332.44994644005782902241,3.80352183599353,2.74493647063611,336.802474033835
738332.44994653051253408194,3.81583096814885,2.76955473494675,336.765546637369
738332.44994662096723914146,3.81583096814885,2.74493647063611,336.79016490168
738332.44994671130552887917,3.84044923245949,2.78186386710206,336.802474033835
738332.44994680176023393869,3.82814010030417,2.78186386710206,336.851710562456
738332.44994689221493899822,3.84044923245949,2.78186386710206,336.888637958922
738332.44994698266964405775,3.84044923245949,2.79417299925738,336.851710562456
738332.44994707312434911728,3.84044923245949,2.79417299925738,336.740928373058
738332.44994716357905417681,3.84044923245949,2.8064821314127,336.827092298145
738332.44994725391734391451,3.84044923245949,2.78186386710206,336.802474033835
738332.44994734437204897404,3.85275836461481,2.79417299925738,336.802474033835
738332.44994743482675403357,3.84044923245949,2.78186386710206,336.864019694611
738332.44994752528145909309,3.85275836461481,2.8064821314127,336.876328826767
738332.44994761573616415262,3.85275836461481,2.8064821314127,336.81478316599
738332.44994770607445389032,3.84044923245949,2.81879126356802,336.81478316599
738332.44994779652915894985,3.81583096814885,2.78186386710206,336.63014618366
738332.44994788698386400938,3.82814010030417,2.78186386710206,336.728619240903
738332.44994797743856906891,3.82814010030417,2.78186386710206,336.827092298145
738332.44994806789327412844,3.82814010030417,2.79417299925738,336.827092298145
738332.44994815834797918797,3.81583096814885,2.78186386710206,336.900947091077
738332.44994824868626892567,3.80352183599353,2.76955473494675,336.839401430301
738332.44994833914097398520,3.82814010030417,2.78186386710206,336.839401430301
738332.44994842959567904472,3.82814010030417,2.78186386710206,336.851710562456
738332.44994852005038410425,3.84044923245949,2.78186386710206,336.777855769524
738332.44994861050508916378,3.86506749677012,2.79417299925738,336.740928373058
738332.44994870084337890148,3.87737662892544,2.79417299925738,336.740928373058
738332.44994879129808396101,3.90199489323608,2.81879126356802,336.728619240903
738332.44994888175278902054,3.9143040253914,2.8064821314127,336.728619240903
738332.44994897220749408007,3.88968576108076,2.83110039572334,336.827092298145
738332.44994906266219913960,3.9143040253914,2.84340952787866,336.81478316599
738332.44994915311690419912,3.87737662892544,2.83110039572334,336.876328826767
738332.44994924345519393682,3.84044923245949,2.81879126356802,336.827092298145
738332.44994933390989899635,3.81583096814885,2.78186386710206,336.876328826767
738332.44994942436460405588,3.80352183599353,2.78186386710206,336.888637958922
738332.44994951481930911541,3.77890357168289,2.76955473494675,336.864019694611
738332.44994960527401417494,3.76659443952757,2.76955473494675,336.900947091077
738332.44994969561230391264,3.76659443952757,2.75724560279143,336.79016490168
738332.44994978606700897217,3.75428530737225,2.75724560279143,336.864019694611
738332.44994987652171403170,3.74197617521694,2.74493647063611,336.888637958922
738332.44994996697641909122,3.74197617521694,2.72031820632547,336.900947091077
738332.44995005743112415075,3.72966704306162,2.73262733848079,336.839401430301
738332.44995014788582921028,3.72966704306162,2.74493647063611,336.900947091077
738332.44995023822411894798,3.72966704306162,2.78186386710206,336.962492751854
738332.44995032867882400751,3.88968576108076,2.78186386710206,336.888637958922
738332.44995041913352906704,4.18510493280842,2.96650084943185,336.802474033835
738332.44995050958823412657,4.44359670807011,3.01573737805312,336.691691844437
738332.44995060004293918610,4.3081962543616,2.8064821314127,336.60552791935
738332.44995069038122892380,3.68043051444034,2.40028077028718,336.617837051505
738332.44995078083593398333,3.28653828547014,2.27718944873399,336.81478316599
738332.44995087129063904285,3.29884741762546,2.48644469537441,336.99942014832
738332.44995096174534410238,3.39732047486801,2.6095360169276,336.987111016165
738332.44995105220004916191,3.53272092857652,2.70800907417015,336.99942014832
738332.44995114265475422144,3.63119398581907,2.78186386710206,337.048656676941
738332.44995123299304395914,3.72966704306162,2.81879126356802,337.024038412631
738332.44995132344774901867,3.76659443952757,2.8064821314127,336.740928373058
738332.44995141390245407820,3.80352183599353,2.79417299925738,336.81478316599
738332.44995150435715913773,3.81583096814885,2.8064821314127,336.827092298145
738332.44995159481186419725,3.82814010030417,2.8064821314127,336.839401430301
738332.44995168515015393496,3.84044923245949,2.8064821314127,336.864019694611
738332.44995177560485899448,3.85275836461481,2.81879126356802,336.802474033835
738332.44995186605956405401,3.85275836461481,2.8064821314127,336.839401430301
738332.44995195651426911354,3.86506749677012,2.81879126356802,336.802474033835
738332.44995204696897417307,3.87737662892544,2.81879126356802,336.753237505214
738332.44995213742367923260,3.88968576108076,2.83110039572334,336.81478316599
738332.44995222776196897030,3.90199489323608,2.84340952787866,336.81478316599
738332.44995231821667402983,3.9143040253914,2.84340952787866,336.851710562456
738332.44995240867137908936,3.93892228970204,2.8680277921893,336.851710562456
738332.44995249912608414888,3.95123142185736,2.88033692434461,336.777855769524
738332.44995258958078920841,3.98815881832331,2.89264605649993,336.802474033835
738332.44995268003549426794,4.01277708263395,2.90495518865525,336.827092298145
738332.44995277037378400564,4.04970447909991,2.91726432081057,336.81478316599
738332.44995286082848906517,4.09894100772118,2.94188258512121,336.802474033835
738332.44995295128319412470,4.13586840418714,2.95419171727653,336.79016490168
738332.44995304173789918423,4.14817753634246,2.96650084943185,336.765546637369
738332.44995313219260424376,4.1727958006531,2.96650084943185,336.753237505214
738332.44995322253089398146,4.16048666849778,2.96650084943185,336.740928373058
738332.44995331298559904099,4.14817753634246,2.95419171727653,336.777855769524
738332.44995340344030410051,4.12355927203182,2.92957345296589,336.765546637369
738332.44995349389500916004,4.07432274341055,2.89264605649993,336.777855769524
738332.44995358434971421957,4.01277708263395,2.8680277921893,336.753237505214
738332.44995367480441927910,3.97584968616799,2.83110039572334,336.79016490168
738332.44995376514270901680,3.95123142185736,2.81879126356802,336.827092298145
738332.44995385559741407633,3.90199489323608,2.8064821314127,336.79016490168
738332.44995394605211913586,3.87737662892544,2.8064821314127,336.864019694611
738332.44995403650682419538,3.85275836461481,2.78186386710206,336.876328826767
738332.44995412696152925491,3.84044923245949,2.76955473494675,336.728619240903
738332.44995421729981899261,3.82814010030417,2.75724560279143,336.728619240903
738332.44995430775452405214,3.81583096814885,2.75724560279143,336.716310108748
738332.44995439820922911167,3.80352183599353,2.74493647063611,336.740928373058
738332.44995448866393417120,3.81583096814885,2.75724560279143,336.728619240903
738332.44995457911863923073,3.80352183599353,2.73262733848079,336.740928373058
738332.44995466957334429026,3.81583096814885,2.73262733848079,336.79016490168
738332.44995475991163402796,3.80352183599353,2.72031820632547,336.753237505214
738332.44995485036633908749,3.80352183599353,2.74493647063611,336.642455315816
738332.44995494082104414701,3.81583096814885,2.75724560279143,336.679382712282
738332.44995503127574920654,3.82814010030417,2.74493647063611,336.802474033835
738332.44995512173045426607,3.82814010030417,2.75724560279143,336.765546637369
738332.44995521206874400377,3.84044923245949,2.76955473494675,336.79016490168
738332.44995530252344906330,3.84044923245949,2.78186386710206,336.81478316599
738332.44995539297815412283,3.85275836461481,2.79417299925738,336.81478316599
738332.44995548343285918236,3.85275836461481,2.78186386710206,336.839401430301
738332.44995557388756424189,3.85275836461481,2.78186386710206,336.864019694611
738332.44995566434226930141,3.85275836461481,2.79417299925738,336.839401430301
738332.44995575468055903912,3.86506749677012,2.8064821314127,336.765546637369
738332.44995584513526409864,3.86506749677012,2.8064821314127,336.79016490168
738332.44995593558996915817,3.85275836461481,2.79417299925738,336.777855769524
738332.44995602604467421770,3.85275836461481,2.8064821314127,336.864019694611
738332.44995611649937927723,3.85275836461481,2.8064821314127,336.802474033835
738332.44995620683766901493,3.85275836461481,2.79417299925738,336.802474033835
738332.44995629729237407446,3.84044923245949,2.79417299925738,336.802474033835
738332.44995638774707913399,3.85275836461481,2.8064821314127,336.802474033835
738332.44995647820178419352,3.85275836461481,2.8064821314127,336.802474033835
738332.44995656865648925304,3.85275836461481,2.8064821314127,336.851710562456
738332.44995665911119431257,3.84044923245949,2.79417299925738,336.753237505214
738332.44995674944948405027,3.84044923245949,2.79417299925738,336.777855769524
738332.44995683990418910980,3.84044923245949,2.79417299925738,336.81478316599
738332.44995693035889416933,3.85275836461481,2.78186386710206,336.839401430301
738332.44995702081359922886,3.86506749677012,2.79417299925738,336.839401430301
738332.44995711126830428839,3.90199489323608,2.8064821314127,336.802474033835
738332.44995720160659402609,3.9143040253914,2.8064821314127,336.79016490168
738332.44995729206129908562,3.92661315754672,2.8064821314127,336.802474033835
738332.44995738251600414515,3.93892228970204,2.83110039572334,336.740928373058
738332.44995747297070920467,3.93892228970204,2.84340952787866,336.81478316599
738332.44995756342541426420,3.93892228970204,2.84340952787866,336.827092298145
738332.44995765388011932373,3.92661315754672,2.83110039572334,336.81478316599
738332.44995774421840906143,3.88968576108076,2.81879126356802,336.79016490168
738332.44995783467311412096,3.85275836461481,2.8064821314127,336.864019694611
738332.44995792512781918049,3.82814010030417,2.79417299925738,336.777855769524
738332.44995801558252424002,3.81583096814885,2.78186386710206,336.79016490168
738332.44995810603722929955,3.80352183599353,2.78186386710206,336.802474033835
738332.44995819637551903725,3.80352183599353,2.78186386710206,336.79016490168
738332.44995828683022409678,3.80352183599353,2.78186386710206,336.777855769524
738332.44995837728492915630,3.79121270383821,2.78186386710206,336.691691844437
738332.44995846773963421583,3.80352183599353,2.78186386710206,336.704000976592
738332.44995855819433927536,3.79121270383821,2.78186386710206,336.802474033835
738332.44995864864904433489,3.79121270383821,2.79417299925738,336.888637958922
738332.44995873898733407259,3.79121270383821,2.81879126356802,336.900947091077
738332.44995882944203913212,3.95123142185736,2.84340952787866,336.777855769524
738332.44995891989674419165,4.25895972574033,3.02804651020844,336.765546637369
738332.44995901035144925117,4.54206976531266,3.0649739066744,336.60552791935
738332.44995910080615431070,4.43128757591479,2.88033692434461,336.470127465641
738332.44995919126085937023,3.80352183599353,2.43720816675314,336.580909655039
738332.44995928159914910793,3.54503006073183,2.30180771304463,336.60552791935
738332.44995937205385416746,3.39732047486801,2.4125899024425,336.802474033835
738332.44995946250855922699,3.47117526779992,2.62184514908292,336.962492751854
738332.44995955296326428652,3.56964832504247,2.70800907417015,336.937874487543
738332.44995964341796934605,3.69273964659566,2.79417299925738,336.974801884009
738332.44995973375625908375,3.79121270383821,2.83110039572334,336.900947091077
738332.44995982421096414328,3.82814010030417,2.83110039572334,336.827092298145
738332.44995991466566920280,3.85275836461481,2.83110039572334,336.777855769524
738332.44996000512037426233,3.87737662892544,2.83110039572334,336.777855769524
738332.44996009557507932186,3.87737662892544,2.83110039572334,336.802474033835
738332.44996018602978438139,3.88968576108076,2.83110039572334,336.79016490168
738332.44996027636807411909,3.90199489323608,2.83110039572334,336.839401430301
738332.44996036682277917862,3.9143040253914,2.84340952787866,336.839401430301
738332.44996045727748423815,3.9143040253914,2.84340952787866,336.81478316599
738332.44996054773218929768,3.92661315754672,2.85571866003398,336.79016490168
738332.44996063818689435720,3.93892228970204,2.8680277921893,336.728619240903
738332.44996072852518409491,3.95123142185736,2.85571866003398,336.839401430301
738332.44996081897988915443,3.96354055401268,2.8680277921893,336.765546637369
738332.44996090943459421396,3.97584968616799,2.88033692434461,336.753237505214
738332.44996099988929927349,4.01277708263395,2.90495518865525,336.777855769524
738332.44996109034400433302,4.02508621478927,2.90495518865525,336.777855769524
738332.44996118079870939255,4.03739534694459,2.90495518865525,336.79016490168
738332.44996127113699913025,4.07432274341055,2.91726432081057,336.79016490168
738332.44996136159170418978,4.09894100772118,2.92957345296589,336.704000976592
738332.44996145204640924931,4.12355927203182,2.92957345296589,336.753237505214
738332.44996154250111430883,4.14817753634246,2.94188258512121,336.79016490168
738332.44996163295581936836,4.1727958006531,2.96650084943185,336.716310108748
738332.44996172329410910606,4.18510493280842,2.96650084943185,336.753237505214
738332.44996181374881416559,4.1727958006531,2.94188258512121,336.777855769524
738332.44996190420351922512,4.13586840418714,2.92957345296589,336.667073580126
738332.44996199465822428465,4.1112501398765,2.90495518865525,336.580909655039
738332.44996208511292934418,4.07432274341055,2.88033692434461,336.777855769524
738332.44996217556763440371,4.02508621478927,2.8680277921893,336.827092298145
738332.44996226590592414141,3.97584968616799,2.85571866003398,336.79016490168
738332.44996235636062920094,3.93892228970204,2.85571866003398,336.81478316599
738332.44996244681533426046,3.9143040253914,2.81879126356802,336.827092298145
738332.44996253727003931999,3.90199489323608,2.81879126356802,336.802474033835
738332.44996262772474437952,3.87737662892544,2.81879126356802,336.81478316599
738332.44996271806303411722,3.86506749677012,2.8064821314127,336.802474033835
738332.44996280851773917675,3.86506749677012,2.79417299925738,336.716310108748
738332.44996289897244423628,3.85275836461481,2.79417299925738,336.777855769524
738332.44996298942714929581,3.85275836461481,2.79417299925738,336.765546637369
738332.44996307988185435534,3.85275836461481,2.78186386710206,336.728619240903
738332.44996317033655941486,3.85275836461481,2.78186386710206,336.802474033835
738332.44996326067484915257,3.84044923245949,2.79417299925738,336.753237505214
738332.44996335112955421209,3.85275836461481,2.79417299925738,336.827092298145
738332.44996344158425927162,3.84044923245949,2.79417299925738,336.765546637369
738332.44996353203896433115,3.85275836461481,2.78186386710206,336.740928373058
738332.44996362249366939068,3.85275836461481,2.79417299925738,336.740928373058
738332.44996371283195912838,3.85275836461481,2.79417299925738,336.728619240903
738332.44996380328666418791,3.85275836461481,2.78186386710206,336.740928373058
738332.44996389374136924744,3.85275836461481,2.78186386710206,336.716310108748
738332.44996398419607430696,3.85275836461481,2.79417299925738,336.765546637369
738332.44996407465077936649,3.86506749677012,2.8064821314127,336.728619240903
738332.44996416510548442602,3.86506749677012,2.8064821314127,336.765546637369
738332.44996425544377416372,3.87737662892544,2.81879126356802,336.716310108748
738332.44996434589847922325,3.87737662892544,2.81879126356802,336.753237505214
738332.44996443635318428278,3.87737662892544,2.81879126356802,336.765546637369
738332.44996452680788934231,3.87737662892544,2.81879126356802,336.79016490168
738332.44996461726259440184,3.87737662892544,2.83110039572334,336.704000976592
738332.44996470760088413954,3.87737662892544,2.81879126356802,336.79016490168
738332.44996479805558919907,3.86506749677012,2.81879126356802,336.851710562456
738332.44996488851029425859,3.86506749677012,2.81879126356802,336.81478316599
738332.44996497896499931812,3.86506749677012,2.81879126356802,336.765546637369
738332.44996506941970437765,3.86506749677012,2.81879126356802,336.777855769524
738332.44996515987440943718,3.85275836461481,2.8064821314127,336.827092298145
738332.44996525021269917488,3.85275836461481,2.8064821314127,336.802474033835
738332.44996534066740423441,3.85275836461481,2.81879126356802,336.839401430301
738332.44996543112210929394,3.85275836461481,2.8064821314127,336.777855769524
738332.44996552157681435347,3.85275836461481,2.83110039572334,336.642455315816
738332.44996561203151941299,3.85275836461481,2.8064821314127,336.802474033835
738332.44996570248622447252,3.85275836461481,2.8064821314127,336.888637958922
738332.44996579282451421022,3.85275836461481,2.81879126356802,336.79016490168
738332.44996588327921926975,3.85275836461481,2.8064821314127,336.839401430301
738332.44996597373392432928,3.86506749677012,2.83110039572334,336.851710562456
738332.44996606418862938881,3.86506749677012,2.81879126356802,336.851710562456
738332.44996615464333444834,3.88968576108076,2.81879126356802,336.765546637369
738332.44996624498162418604,3.9143040253914,2.84340952787866,336.81478316599
738332.44996633543632924557,3.92661315754672,2.83110039572334,336.839401430301
738332.44996642589103430510,3.92661315754672,2.84340952787866,336.765546637369
738332.44996651634573936462,3.93892228970204,2.85571866003398,336.839401430301
738332.44996660680044442415,3.93892228970204,2.88033692434461,336.827092298145
738332.44996669725514948368,3.92661315754672,2.88033692434461,336.802474033835
738332.44996678759343922138,3.92661315754672,2.89264605649993,336.740928373058
738332.44996687804814428091,3.90199489323608,2.85571866003398,336.777855769524
738332.44996696850284934044,3.86506749677012,2.85571866003398,336.802474033835
738332.44996705895755439997,3.84044923245949,2.81879126356802,336.716310108748
738332.44996714941225945950,3.82814010030417,2.83110039572334,336.839401430301
738332.44996723975054919720,3.81583096814885,2.81879126356802,336.777855769524
738332.44996733020525425673,3.81583096814885,2.8064821314127,336.777855769524
738332.44996742065995931625,3.81583096814885,2.81879126356802,336.802474033835
738332.44996751111466437578,3.80352183599353,2.81879126356802,336.839401430301
738332.44996760156936943531,3.81583096814885,2.81879126356802,336.876328826767
738332.44996769202407449484,3.80352183599353,2.8064821314127,336.888637958922
738332.44996778236236423254,3.80352183599353,2.81879126356802,336.827092298145
738332.44996787281706929207,3.79121270383821,2.84340952787866,336.79016490168
738332.44996796327177435160,3.90199489323608,2.8680277921893,336.827092298145
738332.44996805372647941113,4.16048666849778,3.05266477451908,336.740928373058
738332.44996814418118447065,4.44359670807011,3.16344696391695,336.617837051505
738332.44996823451947420835,4.50514236884671,3.0649739066744,336.457818333486
738332.44996832497417926788,3.98815881832331,2.62184514908292,336.531673126418
738332.44996841542888432741,3.49579353211056,2.31411684519995,336.63014618366
738332.44996850588358938694,3.4588661356446,2.49875382752973,336.864019694611
738332.44996859633829444647,3.50810266426588,2.59722688477228,336.925565355388
738332.44996868679299950600,3.56964832504247,2.69569994201483,336.974801884009
738332.44996877713128924370,3.69273964659566,2.8064821314127,337.036347544786
738332.44996886758599430323,3.79121270383821,2.8680277921893,336.974801884009
738332.44996895804069936275,3.82814010030417,2.88033692434461,336.888637958922
738332.44996904849540442228,3.86506749677012,2.8680277921893,336.728619240903
738332.44996913895010948181,3.87737662892544,2.8680277921893,336.81478316599
738332.44996922928839921951,3.88968576108076,2.88033692434461,336.851710562456
738332.44996931974310427904,3.88968576108076,2.88033692434461,336.851710562456
738332.44996941019780933857,3.88968576108076,2.88033692434461,336.81478316599
738332.44996950065251439810,3.88968576108076,2.8680277921893,336.753237505214
738332.44996959110721945763,3.92661315754672,2.88033692434461,336.827092298145
738332.44996968156192451715,3.96354055401268,2.92957345296589,336.851710562456
738332.44996977190021425486,3.9143040253914,2.88033692434461,336.851710562456
738332.44996986235491931438,3.93892228970204,2.89264605649993,336.839401430301
738332.44996995280962437391,3.95123142185736,2.91726432081057,336.777855769524
738332.44997004326432943344,3.98815881832331,2.92957345296589,336.827092298145
738332.44997013371903449297,3.98815881832331,2.92957345296589,336.81478316599
738332.44997022405732423067,4.02508621478927,2.94188258512121,336.839401430301
738332.44997031451202929020,4.02508621478927,2.91726432081057,336.765546637369
738332.44997040496673434973,4.13586840418714,3.05266477451908,336.716310108748
738332.44997049542143940926,4.12355927203182,3.01573737805312,336.728619240903
738332.44997058587614446878,4.13586840418714,3.01573737805312,336.704000976592
738332.44997067633084952831,4.12355927203182,2.99111911374248,336.704000976592
738332.44997076666913926601,4.13586840418714,2.97880998158717,336.716310108748
738332.44997085712384432554,4.16048666849778,3.0034282458978,336.79016490168
738332.44997094757854938507,4.16048666849778,3.0034282458978,336.679382712282
738332.44997103803325444460,4.12355927203182,2.95419171727653,336.679382712282
738332.44997112848795950413,4.14817753634246,3.0034282458978,336.728619240903
738332.44997121882624924183,4.13586840418714,3.0034282458978,336.740928373058
738332.44997130928095430136,4.00046795047863,2.89264605649993,336.740928373058
738332.44997139973565936089,4.00046795047863,2.91726432081057,336.740928373058
738332.44997149019036442041,3.96354055401268,2.89264605649993,336.753237505214
738332.44997158064506947994,3.88968576108076,2.83110039572334,336.765546637369
738332.44997167109977453947,3.88968576108076,2.83110039572334,336.777855769524
738332.44997176143806427717,3.90199489323608,2.84340952787866,336.802474033835
738332.44997185189276933670,3.86506749677012,2.83110039572334,336.839401430301
738332.44997194234747439623,3.87737662892544,2.84340952787866,336.740928373058
738332.44997203280217945576,3.88968576108076,2.85571866003398,336.79016490168
738332.44997212325688451529,3.82814010030417,2.8064821314127,336.753237505214
738332.44997221371158957481,3.84044923245949,2.79417299925738,336.740928373058
738332.44997230404987931252,3.86506749677012,2.81879126356802,336.777855769524
738332.44997239450458437204,3.86506749677012,2.83110039572334,336.765546637369
738332.44997248495928943157,3.84044923245949,2.8064821314127,336.79016490168
738332.44997257541399449110,3.85275836461481,2.8064821314127,336.691691844437
738332.44997266586869955063,3.86506749677012,2.81879126356802,336.740928373058
738332.44997275620698928833,3.86506749677012,2.8064821314127,336.802474033835
738332.44997284666169434786,3.86506749677012,2.79417299925738,336.827092298145
738332.44997293711639940739,3.88968576108076,2.83110039572334,336.765546637369
738332.44997302757110446692,3.85275836461481,2.8064821314127,336.765546637369
738332.44997311802580952644,3.86506749677012,2.81879126356802,336.765546637369
738332.44997320848051458597,3.88968576108076,2.83110039572334,336.79016490168
738332.44997329881880432367,3.87737662892544,2.81879126356802,336.802474033835
738332.44997338927350938320,3.87737662892544,2.83110039572334,336.79016490168
738332.44997347972821444273,3.87737662892544,2.83110039572334,336.79016490168
738332.44997357018291950226,3.88968576108076,2.83110039572334,336.839401430301
738332.44997366063762456179,3.88968576108076,2.84340952787866,336.802474033835
738332.44997375097591429949,3.87737662892544,2.83110039572334,336.79016490168
738332.44997384143061935902,3.88968576108076,2.84340952787866,336.827092298145
738332.44997393188532441854,3.88968576108076,2.84340952787866,336.876328826767
738332.44997402234002947807,3.87737662892544,2.83110039572334,336.851710562456
738332.44997411279473453760,3.87737662892544,2.83110039572334,336.79016490168
738332.44997420324943959713,3.87737662892544,2.83110039572334,336.765546637369
738332.44997429358772933483,3.87737662892544,2.83110039572334,336.753237505214
738332.44997438404243439436,3.87737662892544,2.84340952787866,336.728619240903
738332.44997447449713945389,3.88968576108076,2.85571866003398,336.765546637369
738332.44997456495184451342,3.87737662892544,2.84340952787866,336.777855769524
738332.44997465540654957294,3.86506749677012,2.81879126356802,336.81478316599
738332.44997474574483931065,3.88968576108076,2.84340952787866,336.802474033835
738332.44997483619954437017,3.88968576108076,2.85571866003398,336.827092298145
738332.44997492665424942970,3.86506749677012,2.84340952787866,336.839401430301
738332.44997501710895448923,3.87737662892544,2.84340952787866,336.876328826767
738332.44997510756365954876,3.88968576108076,2.8680277921893,336.802474033835
738332.44997519801836460829,3.86506749677012,2.81879126356802,336.839401430301
738332.44997528835665434599,3.86506749677012,2.84340952787866,336.827092298145
738332.44997537881135940552,3.85275836461481,2.83110039572334,336.827092298145
738332.44997546926606446505,3.88968576108076,2.85571866003398,336.827092298145
738332.44997555972076952457,3.86506749677012,2.83110039572334,336.839401430301
738332.44997565017547458410,3.85275836461481,2.81879126356802,336.876328826767
738332.44997574051376432180,3.86506749677012,2.84340952787866,336.851710562456
738332.44997583096846938133,3.85275836461481,2.83110039572334,336.802474033835
738332.44997592142317444086,3.86506749677012,2.83110039572334,336.716310108748
738332.44997601187787950039,3.86506749677012,2.83110039572334,336.691691844437
738332.44997610233258455992,3.87737662892544,2.85571866003398,336.63014618366
738332.44997619278728961945,3.86506749677012,2.83110039572334,336.728619240903
738332.44997628312557935715,3.87737662892544,2.84340952787866,336.765546637369
738332.44997637358028441668,3.90199489323608,2.85571866003398,336.765546637369
738332.44997646403498947620,3.90199489323608,2.84340952787866,336.740928373058
738332.44997655448969453573,3.90199489323608,2.85571866003398,336.740928373058
738332.44997664494439959526,3.88968576108076,2.85571866003398,336.753237505214
738332.44997673528268933296,3.9143040253914,2.85571866003398,336.777855769524
738332.44997682573739439249,3.96354055401268,2.88033692434461,336.81478316599
738332.44997691619209945202,3.96354055401268,2.88033692434461,336.79016490168
738332.44997700664680451155,4.00046795047863,2.90495518865525,336.728619240903
738332.44997709710150957108,3.97584968616799,2.90495518865525,336.765546637369
738332.44997718755621463060,3.98815881832331,2.91726432081057,336.740928373058
738332.44997727789450436831,3.97584968616799,2.92957345296589,336.827092298145
738332.44997736834920942783,3.95123142185736,2.90495518865525,336.839401430301
738332.44997745880391448736,3.9143040253914,2.89264605649993,336.802474033835
738332.44997754925861954689,3.90199489323608,2.8680277921893,336.81478316599
738332.44997763971332460642,3.86506749677012,2.84340952787866,336.864019694611
738332.44997773005161434412,3.86506749677012,2.85571866003398,336.777855769524
738332.44997782050631940365,3.84044923245949,2.83110039572334,336.802474033835
738332.44997791096102446318,3.85275836461481,2.84340952787866,336.827092298145
738332.44997800141572952271,3.85275836461481,2.83110039572334,336.81478316599
738332.44997809187043458223,3.82814010030417,2.79417299925738,336.876328826767
738332.44997818232513964176,3.82814010030417,2.8064821314127,336.876328826767
738332.44997827266342937946,3.81583096814885,2.8064821314127,336.802474033835
738332.44997836311813443899,3.81583096814885,2.83110039572334,336.888637958922
738332.44997845357283949852,3.9143040253914,2.85571866003398,336.913256223233
738332.44997854402754455805,4.1727958006531,3.04035564236376,336.851710562456
738332.44997863448224961758,4.44359670807011,3.15113783176163,336.667073580126
738332.44997872493695467710,4.50514236884671,3.08959217098504,336.482436597797
738332.44997881527524441481,4.01277708263395,2.64646341339356,336.543982258573
738332.44997890572994947433,3.54503006073183,2.31411684519995,336.593218787194
738332.44997899618465453386,3.50810266426588,2.49875382752973,336.913256223233
738332.44997908663935959339,3.59426658935311,2.65877254554888,336.99942014832
738332.44997917709406465292,3.6558122501297,2.75724560279143,337.024038412631
738332.44997926743235439062,3.75428530737225,2.84340952787866,337.122511469873
738332.44997935788705945015,3.82814010030417,2.8680277921893,337.036347544786
738332.44997944834176450968,3.87737662892544,2.88033692434461,336.925565355388
738332.44997953879646956921,3.88968576108076,2.8680277921893,336.667073580126
738332.44997962925117462873,3.87737662892544,2.84340952787866,336.802474033835
738332.44997971970587968826,3.90199489323608,2.85571866003398,336.888637958922
738332.44997981004416942596,3.90199489323608,2.85571866003398,336.765546637369
738332.44997990049887448549,3.90199489323608,2.85571866003398,336.777855769524
738332.44997999095357954502,3.92661315754672,2.8680277921893,336.777855769524
738332.44998008140828460455,3.93892228970204,2.88033692434461,336.777855769524
738332.44998017186298966408,3.95123142185736,2.88033692434461,336.753237505214
738332.44998026220127940178,3.95123142185736,2.88033692434461,336.802474033835
738332.44998035265598446131,3.97584968616799,2.90495518865525,336.753237505214
738332.44998044311068952084,3.98815881832331,2.90495518865525,336.765546637369
738332.44998053356539458036,4.01277708263395,2.91726432081057,336.79016490168
738332.44998062402009963989,4.02508621478927,2.91726432081057,336.802474033835
738332.44998071447480469942,4.04970447909991,2.91726432081057,336.753237505214
738332.44998080481309443712,4.06201361125523,2.92957345296589,336.740928373058
738332.44998089526779949665,4.09894100772118,2.96650084943185,336.777855769524
738332.44998098572250455618,4.12355927203182,2.95419171727653,336.740928373058
738332.44998107617720961571,4.18510493280842,3.01573737805312,336.765546637369
738332.44998116663191467524,4.20972319711905,3.01573737805312,336.79016490168
738332.44998125697020441294,4.18510493280842,2.97880998158717,336.802474033835
738332.44998134742490947247,4.20972319711905,2.99111911374248,336.839401430301
738332.44998143787961453199,4.19741406496373,2.97880998158717,336.728619240903
738332.44998152833431959152,4.1727958006531,2.95419171727653,336.777855769524
738332.44998161878902465105,4.16048666849778,2.92957345296589,336.777855769524
738332.44998170924372971058,4.12355927203182,2.90495518865525,336.740928373058
738332.44998179958201944828,4.06201361125523,2.90495518865525,336.753237505214
738332.44998189003672450781,4.02508621478927,2.89264605649993,336.802474033835
738332.44998198049142956734,3.98815881832331,2.84340952787866,336.79016490168
738332.44998207094613462687,3.95123142185736,2.85571866003398,336.827092298145
738332.44998216140083968639,3.92661315754672,2.81879126356802,336.765546637369
738332.44998225173912942410,3.9143040253914,2.81879126356802,336.827092298145
738332.44998234219383448362,3.90199489323608,2.8064821314127,336.802474033835
738332.44998243264853954315,3.88968576108076,2.79417299925738,336.876328826767
738332.44998252310324460268,3.86506749677012,2.78186386710206,336.851710562456
738332.44998261355794966221,3.86506749677012,2.78186386710206,336.765546637369
738332.44998270401265472174,3.86506749677012,2.78186386710206,336.851710562456
738332.44998279435094445944,3.85275836461481,2.78186386710206,336.851710562456
738332.44998288480564951897,3.85275836461481,2.76955473494675,336.81478316599
738332.44998297526035457850,3.85275836461481,2.76955473494675,336.839401430301
738332.44998306571505963802,3.84044923245949,2.76955473494675,336.691691844437
738332.44998315616976469755,3.85275836461481,2.76955473494675,336.753237505214
738332.44998324650805443525,3.85275836461481,2.76955473494675,336.839401430301
738332.44998333696275949478,3.85275836461481,2.75724560279143,336.864019694611
738332.44998342741746455431,3.85275836461481,2.76955473494675,336.876328826767
738332.44998351787216961384,3.85275836461481,2.78186386710206,336.802474033835
738332.44998360832687467337,3.85275836461481,2.78186386710206,336.777855769524
738332.44998369878157973289,3.85275836461481,2.79417299925738,336.777855769524
738332.44998378911986947060,3.85275836461481,2.79417299925738,336.777855769524
738332.44998387957457453012,3.85275836461481,2.79417299925738,336.753237505214
738332.44998397002927958965,3.86506749677012,2.79417299925738,336.839401430301
738332.44998406048398464918,3.85275836461481,2.79417299925738,336.839401430301
738332.44998415093868970871,3.86506749677012,2.8064821314127,336.839401430301
738332.44998424127697944641,3.85275836461481,2.79417299925738,336.876328826767
738332.44998433173168450594,3.86506749677012,2.81879126356802,336.79016490168
738332.44998442218638956547,3.85275836461481,2.79417299925738,336.839401430301
738332.44998451264109462500,3.85275836461481,2.79417299925738,336.753237505214
738332.44998460309579968452,3.85275836461481,2.79417299925738,336.728619240903
738332.44998469355050474405,3.82814010030417,2.78186386710206,336.753237505214
738332.44998478388879448175,3.82814010030417,2.76955473494675,336.79016490168
738332.44998487434349954128,3.82814010030417,2.78186386710206,336.81478316599
738332.44998496479820460081,3.84044923245949,2.78186386710206,336.81478316599
738332.44998505525290966034,3.84044923245949,2.78186386710206,336.802474033835
738332.44998514570761471987,3.84044923245949,2.79417299925738,336.864019694611
738332.44998523616231977940,3.84044923245949,2.78186386710206,336.777855769524
738332.44998532650060951710,3.84044923245949,2.79417299925738,336.79016490168
738332.44998541695531457663,3.82814010030417,2.79417299925738,336.79016490168
738332.44998550741001963615,3.84044923245949,2.78186386710206,336.777855769524
738332.44998559786472469568,3.84044923245949,2.79417299925738,336.79016490168
738332.44998568831942975521,3.84044923245949,2.79417299925738,336.802474033835
738332.44998577865771949291,3.82814010030417,2.76955473494675,336.839401430301
738332.44998586911242455244,3.82814010030417,2.78186386710206,336.802474033835
738332.44998595956712961197,3.82814010030417,2.79417299925738,336.802474033835
738332.44998605002183467150,3.82814010030417,2.78186386710206,336.802474033835
738332.44998614047653973103,3.81583096814885,2.78186386710206,336.81478316599
738332.44998623093124479055,3.81583096814885,2.76955473494675,336.851710562456
738332.44998632126953452826,3.84044923245949,2.79417299925738,336.765546637369
738332.44998641172423958778,3.80352183599353,2.76955473494675,336.777855769524
738332.44998650217894464731,3.81583096814885,2.76955473494675,336.827092298145
738332.44998659263364970684,3.81583096814885,2.78186386710206,336.716310108748
738332.44998668308835476637,3.81583096814885,2.79417299925738,336.704000976592
738332.44998677342664450407,3.82814010030417,2.78186386710206,336.864019694611
738332.44998686388134956360,3.82814010030417,2.78186386710206,336.839401430301
738332.44998695433605462313,3.84044923245949,2.78186386710206,336.81478316599
738332.44998704479075968266,3.86506749677012,2.79417299925738,336.765546637369
738332.44998713524546474218,3.88968576108076,2.8064821314127,336.839401430301
738332.44998722570016980171,3.90199489323608,2.81879126356802,336.802474033835
738332.44998731603845953941,3.90199489323608,2.81879126356802,336.802474033835
738332.44998740649316459894,3.9143040253914,2.83110039572334,336.827092298145
738332.44998749694786965847,3.90199489323608,2.85571866003398,336.802474033835
738332.44998758740257471800,3.9143040253914,2.85571866003398,336.839401430301
738332.44998767785727977753,3.88968576108076,2.84340952787866,336.777855769524
738332.44998776819556951523,3.85275836461481,2.8064821314127,336.864019694611
738332.44998785865027457476,3.82814010030417,2.78186386710206,336.876328826767
738332.44998794910497963428,3.80352183599353,2.76955473494675,336.728619240903
738332.44998803955968469381,3.79121270383821,2.78186386710206,336.765546637369
738332.44998813001438975334,3.79121270383821,2.76955473494675,336.765546637369
738332.44998822046909481287,3.79121270383821,2.78186386710206,336.716310108748
738332.44998831080738455057,3.77890357168289,2.75724560279143,336.765546637369
738332.44998840126208961010,3.76659443952757,2.75724560279143,336.777855769524
738332.44998849171679466963,3.76659443952757,2.74493647063611,336.777855769524
738332.44998858217149972916,3.77890357168289,2.75724560279143,336.765546637369
738332.44998867262620478868,3.75428530737225,2.78186386710206,336.839401430301
738332.44998876296449452639,3.85275836461481,2.79417299925738,336.827092298145
738332.44998885341919958591,4.09894100772118,2.99111911374248,336.802474033835
738332.44998894387390464544,4.34512365082756,3.11421043529567,336.691691844437
738332.44998903432860970497,4.43128757591479,3.02804651020844,336.531673126418
738332.44998912478331476450,4.23434146142969,2.81879126356802,336.470127465641
738332.44998921523801982403,3.68043051444034,2.31411684519995,336.519363994263
738332.44998930557630956173,3.43424787133396,2.28949858088931,336.728619240903
738332.44998939603101462126,3.47117526779992,2.51106295968505,336.888637958922
738332.44998948648571968079,3.55733919288715,2.63415428123824,336.937874487543
738332.44998957694042474031,3.64350311797438,2.73262733848079,337.085584073407
738332.44998966739512979984,3.74197617521694,2.8064821314127,337.097893205563
738332.44998975773341953754,3.80352183599353,2.84340952787866,336.937874487543
738332.44998984818812459707,3.82814010030417,2.8064821314127,336.900947091077
738332.44998993864282965660,3.82814010030417,2.8064821314127,336.876328826767
738332.44999002909753471613,3.85275836461481,2.8064821314127,336.900947091077
738332.44999011955223977566,3.85275836461481,2.81879126356802,336.654764447971
738332.44999021000694483519,3.87737662892544,2.81879126356802,336.654764447971
738332.44999030034523457289,3.87737662892544,2.83110039572334,336.753237505214
738332.44999039079993963242,3.87737662892544,2.81879126356802,336.79016490168
738332.44999048125464469194,3.90199489323608,2.85571866003398,336.81478316599
738332.44999057170934975147,3.9143040253914,2.84340952787866,336.827092298145
738332.44999066216405481100,3.9143040253914,2.85571866003398,336.827092298145
738332.44999075250234454870,3.93892228970204,2.8680277921893,336.765546637369
738332.44999084295704960823,3.96354055401268,2.88033692434461,336.864019694611
738332.44999093341175466776,3.97584968616799,2.89264605649993,336.827092298145
738332.44999102386645972729,3.97584968616799,2.89264605649993,336.839401430301
738332.44999111432116478682,4.01277708263395,2.90495518865525,336.740928373058
738332.44999120477586984634,4.03739534694459,2.92957345296589,336.765546637369
738332.44999129511415958405,4.07432274341055,2.95419171727653,336.827092298145
738332.44999138556886464357,4.09894100772118,2.95419171727653,336.79016490168
738332.44999147602356970310,4.12355927203182,2.97880998158717,336.740928373058
738332.44999156647827476263,4.14817753634246,2.97880998158717,336.802474033835
738332.44999165693297982216,4.14817753634246,3.0034282458978,336.777855769524
738332.44999174738768488169,4.14817753634246,2.97880998158717,336.79016490168
738332.44999183772597461939,4.14817753634246,2.96650084943185,336.728619240903
738332.44999192818067967892,4.12355927203182,2.95419171727653,336.765546637369
738332.44999201863538473845,4.07432274341055,2.91726432081057,336.802474033835
738332.44999210909008979797,4.02508621478927,2.88033692434461,336.765546637369
738332.44999219954479485750,3.97584968616799,2.8680277921893,336.753237505214
738332.44999228988308459520,3.92661315754672,2.81879126356802,336.79016490168
738332.44999238033778965473,3.88968576108076,2.8064821314127,336.728619240903
738332.44999247079249471426,3.88968576108076,2.8064821314127,336.740928373058
738332.44999256124719977379,3.87737662892544,2.8064821314127,336.765546637369
738332.44999265170190483332,3.87737662892544,2.8064821314127,336.81478316599
738332.44999274215660989285,3.81583096814885,2.75724560279143,336.827092298145
738332.44999283249489963055,3.80352183599353,2.74493647063611,336.753237505214
738332.44999292294960469007,3.80352183599353,2.72031820632547,336.777855769524
738332.44999301340430974960,3.80352183599353,2.74493647063611,336.802474033835
738332.44999310385901480913,3.80352183599353,2.73262733848079,336.827092298145
738332.44999319431371986866,3.80352183599353,2.74493647063611,336.777855769524
738332.44999328465200960636,3.81583096814885,2.74493647063611,336.79016490168
738332.44999337510671466589,3.82814010030417,2.75724560279143,336.79016490168
738332.44999346556141972542,3.81583096814885,2.75724560279143,336.802474033835
738332.44999355601612478495,3.76659443952757,2.70800907417015,336.79016490168
738332.44999364647082984447,3.79121270383821,2.74493647063611,336.63014618366
738332.44999373692553490400,3.80352183599353,2.73262733848079,336.617837051505
738332.44999382726382464170,3.80352183599353,2.74493647063611,336.728619240903
738332.44999391771852970123,3.80352183599353,2.74493647063611,336.716310108748
738332.44999400817323476076,3.82814010030417,2.76955473494675,336.740928373058
738332.44999409862793982029,3.82814010030417,2.78186386710206,336.728619240903
738332.44999418908264487982,3.82814010030417,2.78186386710206,336.777855769524
738332.44999427942093461752,3.81583096814885,2.76955473494675,336.765546637369
738332.44999436987563967705,3.82814010030417,2.8064821314127,336.753237505214
738332.44999446033034473658,3.81583096814885,2.78186386710206,336.753237505214
738332.44999455078504979610,3.82814010030417,2.78186386710206,336.79016490168
738332.44999464123975485563,3.84044923245949,2.78186386710206,336.777855769524
738332.44999473169445991516,3.81583096814885,2.76955473494675,336.81478316599
738332.44999482203274965286,3.79121270383821,2.75724560279143,336.740928373058
738332.44999491248745471239,3.81583096814885,2.76955473494675,336.79016490168
738332.44999500294215977192,3.81583096814885,2.78186386710206,336.79016490168
738332.44999509339686483145,3.81583096814885,2.78186386710206,336.81478316599
738332.44999518385156989098,3.80352183599353,2.75724560279143,336.839401430301
738332.44999527418985962868,3.81583096814885,2.78186386710206,336.79016490168
738332.44999536464456468821,3.81583096814885,2.78186386710206,336.827092298145
738332.44999545509926974773,3.79121270383821,2.75724560279143,336.827092298145
738332.44999554555397480726,3.79121270383821,2.75724560279143,336.827092298145
738332.44999563600867986679,3.81583096814885,2.79417299925738,336.777855769524
738332.44999572646338492632,3.79121270383821,2.75724560279143,336.81478316599
738332.44999581680167466402,3.79121270383821,2.74493647063611,336.851710562456
738332.44999590725637972355,3.79121270383821,2.76955473494675,336.827092298145
738332.44999599771108478308,3.77890357168289,2.75724560279143,336.777855769524
738332.44999608816578984261,3.79121270383821,2.78186386710206,336.802474033835
738332.44999617862049490213,3.76659443952757,2.75724560279143,336.716310108748
738332.44999626895878463984,3.80352183599353,2.78186386710206,336.753237505214
738332.44999635941348969936,3.77890357168289,2.75724560279143,336.753237505214
738332.44999644986819475889,3.76659443952757,2.75724560279143,336.753237505214
738332.44999654032289981842,3.79121270383821,2.76955473494675,336.716310108748
738332.44999663077760487795,3.76659443952757,2.74493647063611,336.740928373058
738332.44999672123230993748,3.76659443952757,2.75724560279143,336.753237505214
738332.44999681157059967518,3.77890357168289,2.75724560279143,336.704000976592
738332.44999690202530473471,3.77890357168289,2.76955473494675,336.827092298145
738332.44999699248000979424,3.76659443952757,2.75724560279143,336.79016490168
738332.44999708293471485376,3.77890357168289,2.75724560279143,336.716310108748
738332.44999717338941991329,3.77890357168289,2.76955473494675,336.654764447971
738332.44999726372770965099,3.79121270383821,2.76955473494675,336.60552791935
738332.44999735418241471052,3.80352183599353,2.76955473494675,336.716310108748
738332.44999744463711977005,3.84044923245949,2.78186386710206,336.704000976592
738332.44999753509182482958,3.85275836461481,2.79417299925738,336.654764447971
738332.44999762554652988911,3.85275836461481,2.79417299925738,336.728619240903
738332.44999771600123494864,3.87737662892544,2.83110039572334,336.753237505214
738332.44999780633952468634,3.86506749677012,2.84340952787866,336.765546637369
738332.44999789679422974586,3.84044923245949,2.83110039572334,336.716310108748
738332.44999798724893480539,3.81583096814885,2.79417299925738,336.728619240903
738332.44999807770363986492,3.77890357168289,2.78186386710206,336.753237505214
738332.44999816815834492445,3.75428530737225,2.75724560279143,336.81478316599
738332.44999825861304998398,3.75428530737225,2.78186386710206,336.79016490168
738332.44999834895133972168,3.7173579109063,2.74493647063611,336.839401430301
738332.44999843940604478121,3.7173579109063,2.74493647063611,336.777855769524
738332.44999852986074984074,3.70504877875098,2.74493647063611,336.802474033835
738332.44999862031545490026,3.70504877875098,2.73262733848079,336.740928373058
738332.44999871077015995979,3.70504877875098,2.74493647063611,336.753237505214
738332.44999880110844969749,3.69273964659566,2.73262733848079,336.79016490168
738332.44999889156315475702,3.70504877875098,2.75724560279143,336.777855769524
738332.44999898201785981655,3.68043051444034,2.75724560279143,336.851710562456
738332.44999907247256487608,3.72966704306162,2.76955473494675,336.839401430301
738332.44999916292726993561,3.92661315754672,2.88033692434461,336.81478316599
738332.44999925338197499514,4.16048666849778,3.0649739066744,336.716310108748
738332.44999934372026473284,4.3697419151382,3.0649739066744,336.494745729952
738332.44999943417496979237,4.03739534694459,2.70800907417015,336.482436597797
738332.44999952462967485189,3.49579353211056,2.22795292011272,336.494745729952
738332.44999961508437991142,3.34808394624673,2.31411684519995,336.765546637369
738332.44999970553908497095,3.40962960702333,2.53568122399569,336.937874487543
738332.44999979587737470865,3.49579353211056,2.65877254554888,337.024038412631
738332.44999988633207976818,3.56964832504247,2.74493647063611,337.024038412631
738332.44999997678678482771,3.6558122501297,2.78186386710206,337.048656676941
738332.45000006724148988724,3.72966704306162,2.83110039572334,336.962492751854
738332.45000015769619494677,3.7173579109063,2.76955473494675,336.81478316599
738332.45000024815090000629,3.7173579109063,2.76955473494675,336.827092298145
738332.45000033848918974400,3.72966704306162,2.78186386710206,336.851710562456
738332.45000042894389480352,3.75428530737225,2.78186386710206,336.851710562456
738332.45000051939859986305,3.74197617521694,2.79417299925738,336.777855769524
738332.45000060985330492258,3.76659443952757,2.8064821314127,336.79016490168
738332.45000070030800998211,3.77890357168289,2.8064821314127,336.765546637369
738332.45000079064629971981,3.77890357168289,2.81879126356802,336.617837051505
738332.45000088110100477934,3.79121270383821,2.84340952787866,336.802474033835
738332.45000097155570983887,3.80352183599353,2.81879126356802,336.802474033835
738332.45000106201041489840,3.82814010030417,2.83110039572334,336.765546637369
738332.45000115246511995792,3.82814010030417,2.83110039572334,336.667073580126
738332.45000124291982501745,3.86506749677012,2.8680277921893,336.667073580126
738332.45000133325811475515,3.87737662892544,2.8680277921893,336.679382712282
738332.45000142371281981468,3.90199489323608,2.89264605649993,336.704000976592
738332.45000151416752487421,3.92661315754672,2.90495518865525,336.691691844437
738332.45000160462222993374,3.95123142185736,2.92957345296589,336.679382712282
738332.45000169507693499327,3.97584968616799,2.94188258512121,336.704000976592
738332.45000178541522473097,4.01277708263395,2.94188258512121,336.728619240903
738332.45000187586992979050,4.02508621478927,2.95419171727653,336.716310108748
738332.45000196632463485003,4.03739534694459,2.95419171727653,336.679382712282
738332.45000205677933990955,4.02508621478927,2.94188258512121,336.704000976592
738332.45000214723404496908,4.02508621478927,2.94188258512121,336.679382712282
738332.45000223768875002861,4.01277708263395,2.92957345296589,336.753237505214
738332.45000232802703976631,3.97584968616799,2.90495518865525,336.777855769524
738332.45000241848174482584,3.92661315754672,2.8680277921893,336.704000976592
738332.45000250893644988537,3.90199489323608,2.85571866003398,336.691691844437
738332.45000259939115494490,3.82814010030417,2.8064821314127,336.704000976592
738332.45000268984586000443,3.77890357168289,2.76955473494675,336.740928373058
738332.45000278018414974213,3.76659443952757,2.78186386710206,336.777855769524
738332.45000287063885480165,3.75428530737225,2.76955473494675,336.827092298145
738332.45000296109355986118,3.72966704306162,2.75724560279143,336.777855769524
738332.45000305154826492071,3.7173579109063,2.74493647063611,336.765546637369
738332.45000314200296998024,3.70504877875098,2.73262733848079,336.839401430301
738332.45000323245767503977,3.69273964659566,2.74493647063611,336.777855769524
738332.45000332279596477747,3.68043051444034,2.72031820632547,336.728619240903
738332.45000341325066983700,3.7173579109063,2.75724560279143,336.765546637369
738332.45000350370537489653,3.69273964659566,2.73262733848079,336.716310108748
738332.45000359416007995605,3.68043051444034,2.69569994201483,336.765546637369
738332.45000368461478501558,3.68043051444034,2.69569994201483,336.851710562456
738332.45000377495307475328,3.69273964659566,2.72031820632547,336.802474033835
738332.45000386540777981281,3.69273964659566,2.73262733848079,336.753237505214
738332.45000395586248487234,3.68043051444034,2.72031820632547,336.839401430301
738332.45000404631718993187,3.69273964659566,2.73262733848079,336.827092298145
738332.45000413677189499140,3.68043051444034,2.74493647063611,336.802474033835
738332.45000422722660005093,3.68043051444034,2.73262733848079,336.716310108748
738332.45000431756488978863,3.72966704306162,2.78186386710206,336.667073580126
738332.45000440801959484816,3.70504877875098,2.75724560279143,336.79016490168
738332.45000449847429990768,3.66812138228502,2.72031820632547,336.740928373058
738332.45000458892900496721,3.69273964659566,2.74493647063611,336.802474033835
738332.45000467938371002674,3.72966704306162,2.78186386710206,336.81478316599
738332.45000476983841508627,3.6558122501297,2.70800907417015,336.716310108748
738332.45000486017670482397,3.6558122501297,2.73262733848079,336.679382712282
738332.45000495063140988350,3.68043051444034,2.74493647063611,336.704000976592
738332.45000504108611494303,3.68043051444034,2.73262733848079,336.716310108748
738332.45000513154082000256,3.68043051444034,2.74493647063611,336.740928373058
738332.45000522199552506208,3.6558122501297,2.72031820632547,336.740928373058
738332.45000531233381479979,3.68043051444034,2.75724560279143,336.704000976592
738332.45000540278851985931,3.66812138228502,2.72031820632547,336.704000976592
738332.45000549324322491884,3.66812138228502,2.74493647063611,336.777855769524
738332.45000558369792997837,3.64350311797438,2.72031820632547,336.728619240903
738332.45000567415263503790,3.6558122501297,2.70800907417015,336.691691844437
738332.45000576460734009743,3.68043051444034,2.76955473494675,336.716310108748
738332.45000585494562983513,3.68043051444034,2.75724560279143,336.691691844437
738332.45000594540033489466,3.6558122501297,2.73262733848079,336.704000976592
738332.45000603585503995419,3.6558122501297,2.73262733848079,336.728619240903
738332.45000612630974501371,3.69273964659566,2.76955473494675,336.765546637369
738332.45000621676445007324,3.68043051444034,2.75724560279143,336.753237505214
738332.45000630710273981094,3.66812138228502,2.74493647063611,336.765546637369
738332.45000639755744487047,3.68043051444034,2.75724560279143,336.740928373058
738332.45000648801214993000,3.69273964659566,2.76955473494675,336.765546637369
738332.45000657846685498953,3.66812138228502,2.73262733848079,336.827092298145
738332.45000666892156004906,3.66812138228502,2.74493647063611,336.704000976592
738332.45000675937626510859,3.66812138228502,2.75724560279143,336.740928373058
738332.45000684971455484629,3.68043051444034,2.75724560279143,336.765546637369
738332.45000694016925990582,3.7173579109063,2.8064821314127,336.777855769524
738332.45000703062396496534,3.6558122501297,2.73262733848079,336.728619240903
738332.45000712107867002487,3.66812138228502,2.73262733848079,336.740928373058
738332.45000721153337508440,3.63119398581907,2.70800907417015,336.753237505214
738332.45000730187166482210,3.61888485366375,2.69569994201483,336.765546637369
738332.45000739232636988163,3.6558122501297,2.73262733848079,336.802474033835
738332.45000748278107494116,3.68043051444034,2.74493647063611,336.765546637369
738332.45000757323578000069,3.68043051444034,2.74493647063611,336.753237505214
738332.45000766369048506021,3.69273964659566,2.74493647063611,336.802474033835
738332.45000775414519011974,3.69273964659566,2.75724560279143,336.704000976592
738332.45000784448347985744,3.74197617521694,2.78186386710206,336.580909655039
738332.45000793493818491697,3.76659443952757,2.78186386710206,336.728619240903
738332.45000802539288997650,3.75428530737225,2.79417299925738,336.765546637369
738332.45000811584759503603,3.75428530737225,2.79417299925738,336.740928373058
738332.45000820630230009556,3.74197617521694,2.8064821314127,336.802474033835
738332.45000829664058983326,3.72966704306162,2.79417299925738,336.777855769524
738332.45000838709529489279,3.7173579109063,2.79417299925738,336.79016490168
738332.45000847754999995232,3.6558122501297,2.73262733848079,336.851710562456
738332.45000856800470501184,3.63119398581907,2.72031820632547,336.839401430301
738332.45000865845941007137,3.61888485366375,2.72031820632547,336.728619240903
738332.45000874891411513090,3.61888485366375,2.72031820632547,336.728619240903
738332.45000883925240486860,3.61888485366375,2.70800907417015,336.716310108748
738332.45000892970710992813,3.61888485366375,2.72031820632547,336.728619240903
738332.45000902016181498766,3.60657572150843,2.70800907417015,336.753237505214
738332.45000911061652004719,3.60657572150843,2.70800907417015,336.827092298145
738332.45000920107122510672,3.60657572150843,2.72031820632547,336.851710562456
738332.45000929140951484442,3.60657572150843,2.73262733848079,336.851710562456
738332.45000938186421990395,3.74197617521694,2.79417299925738,336.864019694611
738332.45000947231892496347,3.98815881832331,3.01573737805312,336.851710562456
738332.45000956277363002300,4.1112501398765,3.08959217098504,336.765546637369
738332.45000965322833508253,4.28357799005097,3.0649739066744,336.383963540554
738332.45000974368304014206,3.96354055401268,2.70800907417015,336.334727011933
738332.45000983402132987976,3.43424787133396,2.20333465580208,336.470127465641
738332.45000992447603493929,3.28653828547014,2.31411684519995,336.642455315816
738332.45001001493073999882,3.33577481409141,2.52337209184037,336.79016490168
738332.45001010538544505835,3.42193873917865,2.64646341339356,336.962492751854
738332.45001019584015011787,3.50810266426588,2.72031820632547,336.99942014832
738332.45001028617843985558,3.63119398581907,2.81879126356802,336.900947091077
738332.45001037663314491510,3.6558122501297,2.8064821314127,336.864019694611
738332.45001046708784997463,3.68043051444034,2.79417299925738,336.777855769524
738332.45001055754255503416,3.69273964659566,2.79417299925738,336.777855769524
738332.45001064799726009369,3.7173579109063,2.83110039572334,336.79016490168
738332.45001073845196515322,3.7173579109063,2.8064821314127,336.716310108748
738332.45001082879025489092,3.72966704306162,2.8064821314127,336.753237505214
738332.45001091924495995045,3.74197617521694,2.8064821314127,336.728619240903
738332.45001100969966500998,3.74197617521694,2.8064821314127,336.753237505214
738332.45001110015437006950,3.75428530737225,2.81879126356802,336.691691844437
738332.45001119060907512903,3.75428530737225,2.83110039572334,336.753237505214
738332.45001128106378018856,3.77890357168289,2.8680277921893,336.519363994263
738332.45001137140206992626,3.76659443952757,2.84340952787866,336.519363994263
738332.45001146185677498579,3.76659443952757,2.83110039572334,336.704000976592
738332.45001155231148004532,3.81583096814885,2.88033692434461,336.740928373058
738332.45001164276618510485,3.84044923245949,2.90495518865525,336.728619240903
738332.45001173322089016438,3.82814010030417,2.8680277921893,336.691691844437
738332.45001182355917990208,3.87737662892544,2.90495518865525,336.716310108748
738332.45001191401388496161,3.90199489323608,2.91726432081057,336.716310108748
738332.45001200446859002113,3.95123142185736,2.94188258512121,336.765546637369
738332.45001209492329508066,3.97584968616799,2.96650084943185,336.728619240903
738332.45001218537800014019,3.98815881832331,2.96650084943185,336.728619240903
738332.45001227583270519972,3.98815881832331,2.96650084943185,336.704000976592
738332.45001236617099493742,3.98815881832331,2.95419171727653,336.716310108748
738332.45001245662569999695,3.98815881832331,2.94188258512121,336.716310108748
738332.45001254708040505648,3.93892228970204,2.88033692434461,336.704000976592
738332.45001263753511011600,3.9143040253914,2.88033692434461,336.716310108748
738332.45001272798981517553,3.86506749677012,2.84340952787866,336.753237505214
738332.45001281832810491323,3.80352183599353,2.83110039572334,336.802474033835
738332.45001290878280997276,3.79121270383821,2.79417299925738,336.716310108748
738332.45001299923751503229,3.75428530737225,2.78186386710206,336.777855769524
738332.45001308969222009182,3.70504877875098,2.76955473494675,336.79016490168
738332.45001318014692515135,3.7173579109063,2.78186386710206,336.827092298145
738332.45001327060163021088,3.72966704306162,2.8064821314127,336.740928373058
738332.45001336093991994858,3.68043051444034,2.75724560279143,336.79016490168
738332.45001345139462500811,3.68043051444034,2.74493647063611,336.81478316599
738332.45001354184933006763,3.66812138228502,2.72031820632547,336.704000976592
738332.45001363230403512716,3.6558122501297,2.73262733848079,336.740928373058
738332.45001372275874018669,3.69273964659566,2.75724560279143,336.667073580126
738332.45001381309702992439,3.6558122501297,2.72031820632547,336.654764447971
738332.45001390355173498392,3.66812138228502,2.73262733848079,336.667073580126
738332.45001399400644004345,3.66812138228502,2.73262733848079,336.704000976592
738332.45001408446114510298,3.6558122501297,2.73262733848079,336.642455315816
738332.45001417491585016251,3.66812138228502,2.74493647063611,336.642455315816
738332.45001426537055522203,3.68043051444034,2.75724560279143,336.691691844437
738332.45001435570884495974,3.72966704306162,2.79417299925738,336.704000976592
738332.45001444616355001926,3.68043051444034,2.75724560279143,336.691691844437
738332.45001453661825507879,3.69273964659566,2.75724560279143,336.740928373058
738332.45001462707296013832,3.69273964659566,2.78186386710206,336.753237505214
738332.45001471752766519785,3.69273964659566,2.76955473494675,336.753237505214
738332.45001480786595493555,3.69273964659566,2.76955473494675,336.556291390728
738332.45001489832065999508,3.70504877875098,2.76955473494675,336.642455315816
738332.45001498877536505461,3.70504877875098,2.78186386710206,336.740928373058
738332.45001507923007011414,3.72966704306162,2.8064821314127,336.740928373058
738332.45001516968477517366,3.72966704306162,2.8064821314127,336.802474033835
738332.45001526013948023319,3.7173579109063,2.79417299925738,336.79016490168
738332.45001535047776997089,3.66812138228502,2.75724560279143,336.716310108748
738332.45001544093247503042,3.68043051444034,2.75724560279143,336.79016490168
738332.45001553138718008995,3.70504877875098,2.78186386710206,336.777855769524
738332.45001562184188514948,3.70504877875098,2.76955473494675,336.691691844437
738332.45001571229659020901,3.69273964659566,2.74493647063611,336.704000976592
738332.45001580263487994671,3.7173579109063,2.75724560279143,336.753237505214
738332.45001589308958500624,3.69273964659566,2.78186386710206,336.740928373058
738332.45001598354429006577,3.70504877875098,2.79417299925738,336.740928373058
738332.45001607399899512529,3.7173579109063,2.79417299925738,336.716310108748
