time_dn,ecg_projection_ll_ra_mV,ecg_projection_la_ra_mV,ecg_projection_vx_rl_mV
738332.46362606040202081203,5.35447248756371,2.99111911374248,336.470127465641
738332.46362615085672587156,5.35447248756371,2.97880998158717,336.494745729952
738332.46362624131143093109,5.30523595894243,2.94188258512121,336.482436597797
738332.46362633176613599062,5.32985422325307,2.96650084943185,336.457818333486
738332.46362642222084105015,5.34216335540839,2.96650084943185,336.445509201331
738332.46362651255913078785,5.29292682678711,2.90495518865525,336.383963540554
738332.46362660301383584738,5.28061769463179,2.8680277921893,336.396272672709
738332.46362669346854090691,5.31754509109775,2.90495518865525,336.408581804865
738332.46362678392324596643,5.34216335540839,2.91726432081057,336.457818333486
738332.46362687437795102596,5.34216335540839,2.94188258512121,336.457818333486
738332.46362696471624076366,5.32985422325307,2.96650084943185,336.383963540554
738332.46362705517094582319,5.32985422325307,2.97880998158717,336.347036144088
738332.46362714562565088272,5.28061769463179,2.91726432081057,336.371654408399
738332.46362723608035594225,5.25599943032116,2.90495518865525,336.396272672709
738332.46362732653506100178,5.24369029816584,2.89264605649993,336.445509201331
738332.46362741687335073948,5.18214463738924,2.85571866003398,336.42089093702
738332.46362750732805579901,5.15752637307861,2.84340952787866,336.396272672709
738332.46362759778276085854,5.15752637307861,2.84340952787866,336.42089093702
738332.46362768823746591806,5.16983550523392,2.85571866003398,336.482436597797
738332.46362777869217097759,5.16983550523392,2.85571866003398,336.457818333486
738332.46362786903046071529,5.15752637307861,2.84340952787866,336.482436597797
738332.46362795948516577482,5.18214463738924,2.85571866003398,336.445509201331
738332.46362804993987083435,5.19445376954456,2.89264605649993,336.482436597797
738332.46362814039457589388,5.15752637307861,2.89264605649993,336.519363994263
738332.46362823084928095341,5.24369029816584,2.90495518865525,336.457818333486
738332.46362832118757069111,5.4775638091169,3.07728303882972,336.396272672709
738332.46362841164227575064,5.71143732006795,3.18806522822759,336.285490483311
738332.46362850209698081017,5.79760124515519,3.12651956745099,336.039307840205
738332.46362859255168586969,5.35447248756371,2.73262733848079,336.076235236671
738332.46362868300639092922,4.87441633350627,2.37566250597654,336.21163569038
738332.46362877346109598875,4.83748893704032,2.54799035615101,336.42089093702
738332.46362886379938572645,4.93596199428287,2.72031820632547,336.531673126418
738332.46362895425409078598,4.9605802585935,2.76955473494675,336.679382712282
738332.46362904470879584551,5.08367158014669,2.88033692434461,336.494745729952
738332.46362913516350090504,5.10828984445733,2.88033692434461,336.507054862107
738332.46362922561820596457,5.18214463738924,2.91726432081057,336.543982258573
738332.46362931595649570227,5.19445376954456,2.88033692434461,336.531673126418
738332.46362940641120076180,5.20676290169988,2.89264605649993,336.482436597797
738332.46362949686590582132,5.23138116601052,2.91726432081057,336.543982258573
738332.46362958732061088085,5.23138116601052,2.91726432081057,336.507054862107
738332.46362967777531594038,5.24369029816584,2.92957345296589,336.507054862107
738332.46362976811360567808,5.25599943032116,2.92957345296589,336.494745729952
738332.46362985856831073761,5.25599943032116,2.92957345296589,336.494745729952
738332.46362994902301579714,5.26830856247648,2.94188258512121,336.470127465641
738332.46363003947772085667,5.28061769463179,2.95419171727653,336.519363994263
738332.46363012993242591619,5.29292682678711,2.95419171727653,336.470127465641
738332.46363022027071565390,5.32985422325307,2.99111911374248,336.445509201331
738332.46363031072542071342,5.34216335540839,2.99111911374248,336.494745729952
738332.46363040118012577295,5.32985422325307,2.97880998158717,336.507054862107
738332.46363049163483083248,5.34216335540839,3.0034282458978,336.482436597797
738332.46363058208953589201,5.37909075187434,3.04035564236376,336.494745729952
738332.46363067242782562971,5.4160181483403,3.05266477451908,336.371654408399
738332.46363076288253068924,5.44063641265094,3.0649739066744,336.383963540554
738332.46363085333723574877,5.45294554480626,3.0649739066744,336.42089093702
738332.46363094379194080830,5.52680033773817,3.15113783176163,336.359345276243
738332.46363103424664586782,5.50218207342753,3.11421043529567,336.396272672709
738332.46363112458493560553,5.45294554480626,3.0649739066744,336.42089093702
738332.46363121503964066505,5.42832728049562,3.02804651020844,336.42089093702
738332.46363130549434572458,5.4160181483403,3.01573737805312,336.445509201331
738332.46363139594905078411,5.40370901618498,2.99111911374248,336.445509201331
738332.46363148640375584364,5.36678161971903,2.97880998158717,336.433200069175
738332.46363157685846090317,5.34216335540839,2.96650084943185,336.396272672709
738332.46363166719675064087,5.30523595894243,2.92957345296589,336.396272672709
738332.46363175765145570040,5.29292682678711,2.92957345296589,336.42089093702
738332.46363184810616075993,5.24369029816584,2.89264605649993,336.470127465641
738332.46363193856086581945,5.24369029816584,2.88033692434461,336.470127465641
738332.46363202901557087898,5.20676290169988,2.8680277921893,336.494745729952
738332.46363211935386061668,5.24369029816584,2.90495518865525,336.371654408399
738332.46363220980856567621,5.16983550523392,2.83110039572334,336.457818333486
738332.46363230026327073574,5.19445376954456,2.85571866003398,336.433200069175
738332.46363239071797579527,5.16983550523392,2.83110039572334,336.494745729952
738332.46363248117268085480,5.18214463738924,2.84340952787866,336.482436597797
738332.46363257151097059250,5.18214463738924,2.84340952787866,336.21163569038
738332.46363266196567565203,5.20676290169988,2.85571866003398,336.383963540554
738332.46363275242038071156,5.16983550523392,2.85571866003398,336.433200069175
738332.46363284287508577108,5.15752637307861,2.84340952787866,336.445509201331
738332.46363293332979083061,5.23138116601052,2.88033692434461,336.470127465641
738332.46363302366808056831,5.18214463738924,2.84340952787866,336.433200069175
738332.46363311412278562784,5.19445376954456,2.84340952787866,336.457818333486
738332.46363320457749068737,5.19445376954456,2.8680277921893,336.433200069175
738332.46363329503219574690,5.2190720338552,2.8680277921893,336.482436597797
738332.46363338548690080643,5.2190720338552,2.89264605649993,336.482436597797
738332.46363347582519054413,5.2190720338552,2.89264605649993,336.433200069175
738332.46363356627989560366,5.2190720338552,2.88033692434461,336.42089093702
738332.46363365673460066319,5.2190720338552,2.89264605649993,336.383963540554
738332.46363374718930572271,5.20676290169988,2.88033692434461,336.396272672709
738332.46363383764401078224,5.2190720338552,2.90495518865525,336.359345276243
738332.46363392798230051994,5.2190720338552,2.89264605649993,336.396272672709
738332.46363401843700557947,5.20676290169988,2.89264605649993,336.445509201331
738332.46363410889171063900,5.18214463738924,2.85571866003398,336.42089093702
738332.46363419934641569853,5.20676290169988,2.88033692434461,336.482436597797
738332.46363428980112075806,5.20676290169988,2.8680277921893,336.507054862107
738332.46363438013941049576,5.18214463738924,2.8680277921893,336.494745729952
738332.46363447059411555529,5.20676290169988,2.88033692434461,336.457818333486
738332.46363456104882061481,5.2190720338552,2.88033692434461,336.482436597797
738332.46363465150352567434,5.25599943032116,2.89264605649993,336.482436597797
738332.46363474195823073387,5.24369029816584,2.8680277921893,336.445509201331
738332.46363483241293579340,5.25599943032116,2.8680277921893,336.408581804865
738332.46363492275122553110,5.30523595894243,2.90495518865525,336.445509201331
738332.46363501320593059063,5.30523595894243,2.91726432081057,336.445509201331
738332.46363510366063565016,5.29292682678711,2.92957345296589,336.433200069175
738332.46363519411534070969,5.30523595894243,2.95419171727653,336.445509201331
738332.46363528457004576921,5.28061769463179,2.92957345296589,336.494745729952
738332.46363537490833550692,5.23138116601052,2.89264605649993,336.494745729952
738332.46363546536304056644,5.19445376954456,2.8680277921893,336.457818333486
738332.46363555581774562597,5.19445376954456,2.89264605649993,336.507054862107
738332.46363564627245068550,5.14521724092329,2.84340952787866,336.531673126418
738332.46363573672715574503,5.15752637307861,2.85571866003398,336.482436597797
738332.46363582706544548273,5.15752637307861,2.84340952787866,336.494745729952
738332.46363591752015054226,5.14521724092329,2.83110039572334,336.396272672709
738332.46363600797485560179,5.14521724092329,2.84340952787866,336.408581804865
738332.46363609842956066132,5.15752637307861,2.84340952787866,336.248563086845
738332.46363618888426572084,5.14521724092329,2.85571866003398,336.371654408399
738332.46363627922255545855,5.14521724092329,2.8680277921893,336.519363994263
738332.46363636967726051807,5.20676290169988,2.8680277921893,336.494745729952
738332.46363646013196557760,5.44063641265094,3.07728303882972,336.470127465641
738332.46363655058667063713,5.56372773420413,3.18806522822759,336.433200069175
738332.46363664104137569666,5.78529211299987,3.24961088900418,336.21163569038
738332.46363673137966543436,5.58834599851477,3.0034282458978,336.063926104516
738332.46363682183437049389,5.07136244799137,2.48644469537441,336.174708293914
738332.46363691228907555342,4.84979806919563,2.4125899024425,336.334727011933
738332.46363700274378061295,4.86210720135095,2.62184514908292,336.60552791935
738332.46363709319848567247,4.94827112643818,2.75724560279143,336.691691844437
738332.46363718353677541018,5.00981678721478,2.84340952787866,336.704000976592
738332.46363727399148046970,5.10828984445733,2.90495518865525,336.704000976592
738332.46363736444618552923,5.16983550523392,2.91726432081057,336.60552791935
738332.46363745490089058876,5.20676290169988,2.90495518865525,336.593218787194
738332.46363754535559564829,5.2190720338552,2.90495518865525,336.543982258573
738332.46363763581030070782,5.23138116601052,2.91726432081057,336.445509201331
738332.46363772614859044552,5.23138116601052,2.91726432081057,336.507054862107
738332.46363781660329550505,5.23138116601052,2.89264605649993,336.482436597797
738332.46363790705800056458,5.29292682678711,2.96650084943185,336.507054862107
738332.46363799751270562410,5.28061769463179,2.94188258512121,336.531673126418
738332.46363808796741068363,5.25599943032116,2.90495518865525,336.457818333486
738332.46363817830570042133,5.28061769463179,2.94188258512121,336.519363994263
738332.46363826876040548086,5.30523595894243,2.96650084943185,336.507054862107
738332.46363835921511054039,5.31754509109775,2.95419171727653,336.507054862107
738332.46363844966981559992,5.34216335540839,2.97880998158717,336.470127465641
738332.46363854012452065945,5.35447248756371,3.0034282458978,336.507054862107
738332.46363863046281039715,5.36678161971903,3.0034282458978,336.519363994263
738332.46363872091751545668,5.39139988402966,3.02804651020844,336.457818333486
738332.46363881137222051620,5.42832728049562,3.05266477451908,336.494745729952
738332.46363890182692557573,5.44063641265094,3.0649739066744,336.494745729952
738332.46363899228163063526,5.45294554480626,3.05266477451908,336.470127465641
738332.46363908261992037296,5.48987294127221,3.08959217098504,336.433200069175
738332.46363917307462543249,5.48987294127221,3.0649739066744,336.383963540554
738332.46363926352933049202,5.4775638091169,3.05266477451908,336.359345276243
738332.46363935398403555155,5.45294554480626,3.02804651020844,336.371654408399
738332.46363944443874061108,5.46525467696158,3.02804651020844,336.383963540554
738332.46363953477703034878,5.39139988402966,2.96650084943185,336.371654408399
738332.46363962523173540831,5.36678161971903,2.94188258512121,336.23625395469
738332.46363971568644046783,5.36678161971903,2.95419171727653,336.260872219001
738332.46363980614114552736,5.32985422325307,2.91726432081057,336.371654408399
738332.46363989659585058689,5.31754509109775,2.90495518865525,336.433200069175
738332.46363998693414032459,5.29292682678711,2.89264605649993,336.433200069175
738332.46364007738884538412,5.26830856247648,2.89264605649993,336.433200069175
738332.46364016784355044365,5.24369029816584,2.8680277921893,336.433200069175
738332.46364025829825550318,5.24369029816584,2.85571866003398,336.433200069175
738332.46364034875296056271,5.24369029816584,2.8680277921893,336.42089093702
738332.46364043920766562223,5.23138116601052,2.85571866003398,336.457818333486
738332.46364052954595535994,5.23138116601052,2.8680277921893,336.482436597797
738332.46364062000066041946,5.25599943032116,2.88033692434461,336.507054862107
738332.46364071045536547899,5.24369029816584,2.8680277921893,336.433200069175
738332.46364080091007053852,5.26830856247648,2.89264605649993,336.445509201331
738332.46364089136477559805,5.26830856247648,2.89264605649993,336.433200069175
738332.46364098170306533575,5.31754509109775,2.94188258512121,336.445509201331
738332.46364107215777039528,5.30523595894243,2.92957345296589,336.445509201331
738332.46364116261247545481,5.28061769463179,2.90495518865525,336.457818333486
738332.46364125306718051434,5.29292682678711,2.91726432081057,336.42089093702
738332.46364134352188557386,5.32985422325307,2.95419171727653,336.433200069175
738332.46364143386017531157,5.28061769463179,2.91726432081057,336.470127465641
738332.46364152431488037109,5.30523595894243,2.94188258512121,336.494745729952
738332.46364161476958543062,5.30523595894243,2.94188258512121,336.494745729952
738332.46364170522429049015,5.30523595894243,2.92957345296589,336.470127465641
738332.46364179567899554968,5.31754509109775,2.94188258512121,336.482436597797
738332.46364188601728528738,5.29292682678711,2.91726432081057,336.494745729952
738332.46364197647199034691,5.29292682678711,2.94188258512121,336.408581804865
738332.46364206692669540644,5.29292682678711,2.95419171727653,336.470127465641
738332.46364215738140046597,5.28061769463179,2.94188258512121,336.507054862107
738332.46364224783610552549,5.25599943032116,2.90495518865525,336.519363994263
738332.46364233817439526320,5.28061769463179,2.92957345296589,336.457818333486
738332.46364242862910032272,5.26830856247648,2.90495518865525,336.531673126418
738332.46364251908380538225,5.26830856247648,2.90495518865525,336.531673126418
738332.46364260953851044178,5.26830856247648,2.90495518865525,336.531673126418
738332.46364269999321550131,5.24369029816584,2.88033692434461,336.457818333486
738332.46364279033150523901,5.25599943032116,2.89264605649993,336.507054862107
738332.46364288078621029854,5.23138116601052,2.8680277921893,336.507054862107
738332.46364297124091535807,5.23138116601052,2.85571866003398,336.433200069175
738332.46364306169562041759,5.25599943032116,2.85571866003398,336.470127465641
738332.46364315215032547712,5.26830856247648,2.88033692434461,336.371654408399
738332.46364324260503053665,5.29292682678711,2.88033692434461,336.371654408399
738332.46364333294332027435,5.32985422325307,2.89264605649993,336.470127465641
738332.46364342339802533388,5.31754509109775,2.90495518865525,336.482436597797
738332.46364351385273039341,5.32985422325307,2.95419171727653,336.507054862107
738332.46364360430743545294,5.31754509109775,2.95419171727653,336.42089093702
738332.46364369476214051247,5.31754509109775,2.94188258512121,336.433200069175
738332.46364378510043025017,5.28061769463179,2.91726432081057,336.42089093702
738332.46364387555513530970,5.20676290169988,2.81879126356802,336.433200069175
738332.46364396600984036922,5.19445376954456,2.8064821314127,336.433200069175
738332.46364405646454542875,5.18214463738924,2.79417299925738,336.371654408399
738332.46364414691925048828,5.18214463738924,2.81879126356802,336.433200069175
738332.46364423725754022598,5.19445376954456,2.8680277921893,336.519363994263
738332.46364432771224528551,5.16983550523392,2.85571866003398,336.494745729952
738332.46364441816695034504,5.15752637307861,2.84340952787866,336.519363994263
738332.46364450862165540457,5.16983550523392,2.83110039572334,336.531673126418
738332.46364459907636046410,5.18214463738924,2.85571866003398,336.470127465641
738332.46364468941465020180,5.15752637307861,2.84340952787866,336.482436597797
738332.46364477986935526133,5.14521724092329,2.85571866003398,336.494745729952
738332.46364487032406032085,5.26830856247648,2.85571866003398,336.433200069175
738332.46364496077876538038,5.48987294127221,3.08959217098504,336.482436597797
738332.46364505123347043991,5.72374645222327,3.20037436038291,336.273181351156
738332.46364514157176017761,5.69912818791264,3.05266477451908,336.100853500982
738332.46364523202646523714,5.23138116601052,2.56029948830632,336.125471765292
738332.46364532248117029667,4.83748893704032,2.25257118442335,336.223944822535
738332.46364541293587535620,4.84979806919563,2.53568122399569,336.494745729952
738332.46364550339058041573,4.84979806919563,2.63415428123824,336.617837051505
738332.46364559372887015343,5.0221259193701,2.84340952787866,336.704000976592
738332.46364568418357521296,5.07136244799137,2.89264605649993,336.728619240903
738332.46364577463828027248,5.14521724092329,2.92957345296589,336.740928373058
738332.46364586509298533201,5.18214463738924,2.94188258512121,336.679382712282
738332.46364595554769039154,5.20676290169988,2.92957345296589,336.642455315816
738332.46364604600239545107,5.19445376954456,2.90495518865525,336.60552791935
738332.46364613634068518877,5.2190720338552,2.8680277921893,336.556291390728
738332.46364622679539024830,5.23138116601052,2.90495518865525,336.519363994263
738332.46364631725009530783,5.20676290169988,2.89264605649993,336.494745729952
738332.46364640770480036736,5.24369029816584,2.91726432081057,336.519363994263
738332.46364649815950542688,5.25599943032116,2.92957345296589,336.556291390728
738332.46364658849779516459,5.36678161971903,2.99111911374248,336.568600522884
738332.46364667895250022411,5.26830856247648,2.95419171727653,336.334727011933
738332.46364676940720528364,5.26830856247648,2.95419171727653,336.42089093702
738332.46364685986191034317,5.26830856247648,2.90495518865525,336.519363994263
738332.46364695031661540270,5.39139988402966,3.05266477451908,336.482436597797
738332.46364704065490514040,5.29292682678711,2.95419171727653,336.507054862107
738332.46364713110961019993,5.31754509109775,2.97880998158717,336.543982258573
738332.46364722156431525946,5.36678161971903,3.0034282458978,336.531673126418
738332.46364731201902031898,5.44063641265094,3.0649739066744,336.470127465641
738332.46364740247372537851,5.50218207342753,3.10190130314035,336.568600522884
738332.46364749281201511621,5.46525467696158,3.04035564236376,336.531673126418
738332.46364758326672017574,5.45294554480626,3.05266477451908,336.494745729952
738332.46364767372142523527,5.44063641265094,3.05266477451908,336.433200069175
738332.46364776417613029480,5.50218207342753,3.0649739066744,336.470127465641
738332.46364785463083535433,5.52680033773817,3.08959217098504,336.457818333486
738332.46364794496912509203,5.28061769463179,2.8680277921893,336.408581804865
738332.46364803542383015156,5.31754509109775,2.90495518865525,336.519363994263
738332.46364812587853521109,5.29292682678711,2.88033692434461,336.494745729952
738332.46364821633324027061,5.29292682678711,2.89264605649993,336.408581804865
738332.46364830678794533014,5.28061769463179,2.88033692434461,336.470127465641
738332.46364839712623506784,5.32985422325307,2.92957345296589,336.470127465641
738332.46364848758094012737,5.16983550523392,2.79417299925738,336.457818333486
738332.46364857803564518690,5.26830856247648,2.8680277921893,336.494745729952
738332.46364866849035024643,5.28061769463179,2.89264605649993,336.531673126418
738332.46364875894505530596,5.15752637307861,2.78186386710206,336.470127465641
738332.46364884939976036549,5.14521724092329,2.76955473494675,336.445509201331
738332.46364893973805010319,5.07136244799137,2.70800907417015,336.408581804865
738332.46364903019275516272,5.12059897661265,2.75724560279143,336.42089093702
738332.46364912064746022224,5.14521724092329,2.79417299925738,336.470127465641
738332.46364921110216528177,5.15752637307861,2.8064821314127,336.482436597797
738332.46364930155687034130,5.2190720338552,2.8680277921893,336.457818333486
738332.46364939189516007900,5.14521724092329,2.8064821314127,336.543982258573
738332.46364948234986513853,5.10828984445733,2.76955473494675,336.543982258573
738332.46364957280457019806,5.16983550523392,2.81879126356802,336.531673126418
738332.46364966325927525759,5.15752637307861,2.8064821314127,336.482436597797
738332.46364975371398031712,5.12059897661265,2.74493647063611,336.543982258573
738332.46364984405227005482,5.23138116601052,2.85571866003398,336.519363994263
738332.46364993450697511435,5.15752637307861,2.85571866003398,336.445509201331
738332.46365002496168017387,5.09598071230201,2.78186386710206,336.543982258573
738332.46365011541638523340,5.09598071230201,2.79417299925738,336.433200069175
738332.46365020587109029293,5.19445376954456,2.8680277921893,336.445509201331
738332.46365029620938003063,5.13290810876797,2.8064821314127,336.396272672709
738332.46365038666408509016,5.13290810876797,2.79417299925738,336.543982258573
738332.46365047711879014969,5.14521724092329,2.81879126356802,336.470127465641
738332.46365056757349520922,5.09598071230201,2.76955473494675,336.507054862107
738332.46365065802820026875,5.09598071230201,2.74493647063611,336.543982258573
738332.46365074836649000645,5.09598071230201,2.75724560279143,336.556291390728
738332.46365083882119506598,5.12059897661265,2.8064821314127,336.543982258573
738332.46365092927590012550,5.08367158014669,2.76955473494675,336.556291390728
738332.46365101973060518503,5.09598071230201,2.78186386710206,336.580909655039
738332.46365111018531024456,5.07136244799137,2.75724560279143,336.568600522884
738332.46365120052359998226,5.13290810876797,2.8064821314127,336.494745729952
738332.46365129097830504179,5.08367158014669,2.74493647063611,336.531673126418
738332.46365138143301010132,5.04674418368074,2.70800907417015,336.543982258573
738332.46365147188771516085,5.04674418368074,2.69569994201483,336.568600522884
738332.46365156234242022038,5.03443505152542,2.69569994201483,336.519363994263
738332.46365165279712527990,5.09598071230201,2.76955473494675,336.507054862107
738332.46365174313541501760,5.13290810876797,2.78186386710206,336.531673126418
738332.46365183359012007713,5.08367158014669,2.74493647063611,336.531673126418
738332.46365192404482513666,5.19445376954456,2.8680277921893,336.543982258573
738332.46365201449953019619,5.08367158014669,2.74493647063611,336.543982258573
738332.46365210495423525572,5.14521724092329,2.75724560279143,336.482436597797
738332.46365219529252499342,5.16983550523392,2.79417299925738,336.457818333486
738332.46365228574723005295,5.15752637307861,2.79417299925738,336.408581804865
738332.46365237620193511248,5.15752637307861,2.8064821314127,336.494745729952
738332.46365246665664017200,5.14521724092329,2.8064821314127,336.445509201331
738332.46365255711134523153,5.08367158014669,2.75724560279143,336.507054862107
738332.46365264744963496923,5.03443505152542,2.70800907417015,336.507054862107
738332.46365273790434002876,5.0221259193701,2.74493647063611,336.457818333486
738332.46365282835904508829,5.04674418368074,2.76955473494675,336.556291390728
738332.46365291881375014782,5.0221259193701,2.73262733848079,336.543982258573
738332.46365300926845520735,4.98519852290414,2.69569994201483,336.556291390728
738332.46365309960674494505,5.04674418368074,2.75724560279143,336.556291390728
738332.46365319006145000458,5.0221259193701,2.72031820632547,336.543982258573
738332.46365328051615506411,4.98519852290414,2.68339080985951,336.531673126418
738332.46365337097086012363,5.07136244799137,2.78186386710206,336.531673126418
738332.46365346142556518316,4.93596199428287,2.69569994201483,336.556291390728
738332.46365355176385492086,5.04674418368074,2.76955473494675,336.556291390728
738332.46365364221855998039,5.15752637307861,2.76955473494675,336.543982258573
738332.46365373267326503992,5.39139988402966,3.04035564236376,336.408581804865
738332.46365382312797009945,5.66220079144668,3.11421043529567,336.187017426069
738332.46365391358267515898,5.4775638091169,2.85571866003398,336.223944822535
738332.46365400392096489668,4.93596199428287,2.3510442416659,336.285490483311
738332.46365409437566995621,4.66516108686585,2.25257118442335,336.457818333486
738332.46365418483037501574,4.71439761548713,2.48644469537441,336.642455315816
738332.46365427528508007526,4.77594327626372,2.6095360169276,336.654764447971
738332.46365436573978513479,4.84979806919563,2.68339080985951,336.79016490168
738332.46365445619449019432,4.97288939074882,2.76955473494675,336.81478316599
738332.46365454653277993202,5.0221259193701,2.79417299925738,336.667073580126
738332.46365463698748499155,5.07136244799137,2.8064821314127,336.60552791935
738332.46365472744219005108,4.99750765505946,2.68339080985951,336.593218787194
738332.46365481789689511061,5.05905331583605,2.74493647063611,336.60552791935
738332.46365490835160017014,5.08367158014669,2.76955473494675,336.580909655039
738332.46365499868988990784,5.10828984445733,2.79417299925738,336.593218787194
738332.46365508914459496737,5.12059897661265,2.8064821314127,336.60552791935
738332.46365517959930002689,5.09598071230201,2.79417299925738,336.642455315816
738332.46365527005400508642,5.12059897661265,2.79417299925738,336.543982258573
738332.46365536050871014595,5.2190720338552,2.89264605649993,336.556291390728
738332.46365545084699988365,5.12059897661265,2.79417299925738,336.556291390728
738332.46365554130170494318,5.10828984445733,2.79417299925738,336.593218787194
738332.46365563175641000271,5.15752637307861,2.8064821314127,336.531673126418
738332.46365572221111506224,5.2190720338552,2.8680277921893,336.654764447971
738332.46365581266582012177,5.20676290169988,2.92957345296589,336.642455315816
738332.46365590300410985947,5.2190720338552,2.89264605649993,336.543982258573
738332.46365599345881491899,5.24369029816584,2.89264605649993,336.580909655039
738332.46365608391351997852,5.28061769463179,2.92957345296589,336.519363994263
738332.46365617436822503805,5.30523595894243,2.92957345296589,336.482436597797
738332.46365626482293009758,5.36678161971903,2.97880998158717,336.482436597797
738332.46365635516121983528,5.31754509109775,2.91726432081057,336.568600522884
738332.46365644561592489481,5.30523595894243,2.89264605649993,336.556291390728
738332.46365653607062995434,5.29292682678711,2.89264605649993,336.580909655039
738332.46365662652533501387,5.32985422325307,2.92957345296589,336.507054862107
738332.46365671698004007339,5.25599943032116,2.84340952787866,336.457818333486
738332.46365680731832981110,5.23138116601052,2.81879126356802,336.457818333486
738332.46365689777303487062,5.20676290169988,2.79417299925738,336.482436597797
738332.46365698822773993015,5.18214463738924,2.79417299925738,336.556291390728
738332.46365707868244498968,5.16983550523392,2.76955473494675,336.519363994263
738332.46365716913715004921,5.12059897661265,2.79417299925738,336.507054862107
738332.46365725959185510874,5.10828984445733,2.76955473494675,336.433200069175
738332.46365734993014484644,5.13290810876797,2.76955473494675,336.42089093702
738332.46365744038484990597,5.12059897661265,2.76955473494675,336.470127465641
738332.46365753083955496550,5.09598071230201,2.75724560279143,336.519363994263
738332.46365762129426002502,5.0221259193701,2.68339080985951,336.482436597797
738332.46365771174896508455,5.05905331583605,2.70800907417015,336.457818333486
738332.46365780208725482225,5.07136244799137,2.70800907417015,336.482436597797
738332.46365789254195988178,5.08367158014669,2.73262733848079,336.507054862107
738332.46365798299666494131,5.08367158014669,2.75724560279143,336.543982258573
738332.46365807345137000084,5.07136244799137,2.78186386710206,336.568600522884
738332.46365816390607506037,5.09598071230201,2.76955473494675,336.494745729952
738332.46365825424436479807,5.09598071230201,2.76955473494675,336.556291390728
738332.46365834469906985760,5.08367158014669,2.75724560279143,336.593218787194
738332.46365843515377491713,5.09598071230201,2.76955473494675,336.507054862107
738332.46365852560847997665,5.12059897661265,2.76955473494675,336.543982258573
738332.46365861606318503618,5.12059897661265,2.76955473494675,336.507054862107
738332.46365870640147477388,5.12059897661265,2.76955473494675,336.482436597797
738332.46365879685617983341,5.12059897661265,2.76955473494675,336.507054862107
738332.46365888731088489294,5.14521724092329,2.85571866003398,336.568600522884
738332.46365897776558995247,5.14521724092329,2.84340952787866,336.60552791935
738332.46365906822029501200,5.12059897661265,2.8064821314127,336.593218787194
738332.46365915855858474970,5.10828984445733,2.79417299925738,336.617837051505
738332.46365924901328980923,5.12059897661265,2.79417299925738,336.60552791935
738332.46365933946799486876,5.12059897661265,2.8064821314127,336.531673126418
738332.46365942992269992828,5.12059897661265,2.78186386710206,336.63014618366
738332.46365952037740498781,5.09598071230201,2.78186386710206,336.60552791935
738332.46365961071569472551,5.09598071230201,2.78186386710206,336.543982258573
738332.46365970117039978504,5.09598071230201,2.76955473494675,336.60552791935
738332.46365979162510484457,5.09598071230201,2.79417299925738,336.642455315816
738332.46365988207980990410,5.10828984445733,2.81879126356802,336.642455315816
738332.46365997253451496363,5.12059897661265,2.78186386710206,336.63014618366
738332.46366006287280470133,5.10828984445733,2.8064821314127,336.667073580126
738332.46366015332750976086,5.10828984445733,2.81879126356802,336.617837051505
738332.46366024378221482038,5.10828984445733,2.79417299925738,336.568600522884
738332.46366033423691987991,5.07136244799137,2.74493647063611,336.642455315816
738332.46366042469162493944,5.13290810876797,2.83110039572334,336.60552791935
738332.46366051514632999897,5.09598071230201,2.78186386710206,336.617837051505
738332.46366060548461973667,5.08367158014669,2.75724560279143,336.580909655039
738332.46366069593932479620,5.08367158014669,2.76955473494675,336.617837051505
738332.46366078639402985573,5.10828984445733,2.79417299925738,336.568600522884
738332.46366087684873491526,5.14521724092329,2.79417299925738,336.42089093702
738332.46366096730343997478,5.15752637307861,2.81879126356802,336.543982258573
738332.46366105764172971249,5.16983550523392,2.84340952787866,336.519363994263
738332.46366114809643477201,5.19445376954456,2.84340952787866,336.507054862107
738332.46366123855113983154,5.20676290169988,2.8680277921893,336.556291390728
738332.46366132900584489107,5.20676290169988,2.8680277921893,336.543982258573
738332.46366141946054995060,5.18214463738924,2.85571866003398,336.580909655039
738332.46366150979883968830,5.19445376954456,2.8680277921893,336.556291390728
738332.46366160025354474783,5.14521724092329,2.83110039572334,336.556291390728
738332.46366169070824980736,5.10828984445733,2.8064821314127,336.531673126418
738332.46366178116295486689,5.08367158014669,2.76955473494675,336.519363994263
738332.46366187161765992641,5.07136244799137,2.79417299925738,336.580909655039
738332.46366196195594966412,5.05905331583605,2.81879126356802,336.580909655039
738332.46366205241065472364,5.07136244799137,2.81879126356802,336.60552791935
738332.46366214286535978317,5.07136244799137,2.79417299925738,336.519363994263
738332.46366223332006484270,5.07136244799137,2.78186386710206,336.543982258573
738332.46366232377476990223,5.07136244799137,2.8064821314127,336.556291390728
738332.46366241411305963993,5.07136244799137,2.79417299925738,336.556291390728
738332.46366250456776469946,5.05905331583605,2.79417299925738,336.531673126418
738332.46366259502246975899,5.12059897661265,2.8064821314127,336.654764447971
738332.46366268547717481852,5.23138116601052,2.90495518865525,336.580909655039
738332.46366277593187987804,5.4775638091169,3.12651956745099,336.543982258573
738332.46366286627016961575,5.69912818791264,3.17575609607227,336.322417879777
738332.46366295672487467527,5.52680033773817,2.94188258512121,336.174708293914
738332.46366304717957973480,5.00981678721478,2.46182643106377,336.260872219001
738332.46366313763428479433,4.7636341441084,2.3510442416659,336.494745729952
738332.46366322808898985386,4.77594327626372,2.56029948830632,336.679382712282
738332.46366331854369491339,4.86210720135095,2.68339080985951,336.765546637369
738332.46366340888198465109,4.93596199428287,2.76955473494675,336.839401430301
738332.46366349933668971062,5.03443505152542,2.85571866003398,336.876328826767
738332.46366358979139477015,5.09598071230201,2.85571866003398,336.79016490168
738332.46366368024609982967,5.13290810876797,2.83110039572334,336.617837051505
738332.46366377070080488920,5.14521724092329,2.89264605649993,336.704000976592
738332.46366386103909462690,5.14521724092329,2.89264605649993,336.716310108748
738332.46366395149379968643,5.16983550523392,2.89264605649993,336.716310108748
738332.46366404194850474596,5.15752637307861,2.8680277921893,336.642455315816
738332.46366413240320980549,5.18214463738924,2.88033692434461,336.63014618366
738332.46366422285791486502,5.19445376954456,2.89264605649993,336.642455315816
738332.46366431319620460272,5.19445376954456,2.89264605649993,336.60552791935
738332.46366440365090966225,5.20676290169988,2.88033692434461,336.408581804865
738332.46366449410561472178,5.2190720338552,2.90495518865525,336.617837051505
738332.46366458456031978130,5.2190720338552,2.91726432081057,336.642455315816
738332.46366467501502484083,5.24369029816584,2.94188258512121,336.60552791935
738332.46366476535331457853,5.28061769463179,2.95419171727653,336.642455315816
738332.46366485580801963806,5.29292682678711,2.96650084943185,336.642455315816
738332.46366494626272469759,5.32985422325307,2.97880998158717,336.617837051505
738332.46366503671742975712,5.35447248756371,3.0034282458978,336.642455315816
738332.46366512717213481665,5.37909075187434,3.0034282458978,336.63014618366
738332.46366521751042455435,5.40370901618498,3.02804651020844,336.507054862107
738332.46366530796512961388,5.4160181483403,3.01573737805312,336.507054862107
738332.46366539841983467340,5.42832728049562,3.02804651020844,336.543982258573
738332.46366548887453973293,5.4160181483403,3.05266477451908,336.568600522884
738332.46366557932924479246,5.40370901618498,3.01573737805312,336.556291390728
738332.46366566966753453016,5.39139988402966,2.97880998158717,336.531673126418
738332.46366576012223958969,5.35447248756371,2.95419171727653,336.531673126418
738332.46366585057694464922,5.31754509109775,2.92957345296589,336.519363994263
738332.46366594103164970875,5.29292682678711,2.90495518865525,336.543982258573
738332.46366603148635476828,5.25599943032116,2.89264605649993,336.531673126418
738332.46366612194105982780,5.26830856247648,2.88033692434461,336.531673126418
738332.46366621227934956551,5.23138116601052,2.8680277921893,336.531673126418
738332.46366630273405462503,5.20676290169988,2.83110039572334,336.519363994263
738332.46366639318875968456,5.19445376954456,2.84340952787866,336.63014618366
738332.46366648364346474409,5.18214463738924,2.85571866003398,336.642455315816
738332.46366657409816980362,5.16983550523392,2.83110039572334,336.580909655039
738332.46366666443645954132,5.18214463738924,2.83110039572334,336.556291390728
738332.46366675489116460085,5.16983550523392,2.81879126356802,336.63014618366
738332.46366684534586966038,5.16983550523392,2.83110039572334,336.543982258573
738332.46366693580057471991,5.15752637307861,2.81879126356802,336.617837051505
738332.46366702625527977943,5.16983550523392,2.8064821314127,336.580909655039
738332.46366711659356951714,5.18214463738924,2.81879126356802,336.60552791935
738332.46366720704827457666,5.18214463738924,2.83110039572334,336.568600522884
738332.46366729750297963619,5.18214463738924,2.8680277921893,336.556291390728
738332.46366738795768469572,5.16983550523392,2.8680277921893,336.667073580126
738332.46366747841238975525,5.18214463738924,2.8680277921893,336.617837051505
738332.46366756875067949295,5.18214463738924,2.8680277921893,336.63014618366
738332.46366765920538455248,5.19445376954456,2.8680277921893,336.617837051505
738332.46366774966008961201,5.20676290169988,2.89264605649993,336.667073580126
738332.46366784011479467154,5.18214463738924,2.8680277921893,336.396272672709
738332.46366793056949973106,5.19445376954456,2.8680277921893,336.383963540554
738332.46366802090778946877,5.20676290169988,2.88033692434461,336.531673126418
738332.46366811136249452829,5.20676290169988,2.88033692434461,336.531673126418
738332.46366820181719958782,5.20676290169988,2.8680277921893,336.531673126418
738332.46366829227190464735,5.19445376954456,2.88033692434461,336.531673126418
738332.46366838272660970688,5.18214463738924,2.84340952787866,336.63014618366
738332.46366847306489944458,5.19445376954456,2.85571866003398,336.593218787194
738332.46366856351960450411,5.19445376954456,2.88033692434461,336.543982258573
738332.46366865397430956364,5.19445376954456,2.8680277921893,336.63014618366
738332.46366874442901462317,5.19445376954456,2.88033692434461,336.642455315816
738332.46366883488371968269,5.19445376954456,2.89264605649993,336.654764447971
738332.46366892533842474222,5.18214463738924,2.88033692434461,336.642455315816
738332.46366901567671447992,5.18214463738924,2.88033692434461,336.63014618366
738332.46366910613141953945,5.18214463738924,2.88033692434461,336.617837051505
738332.46366919658612459898,5.19445376954456,2.88033692434461,336.63014618366
738332.46366928704082965851,5.15752637307861,2.83110039572334,336.642455315816
738332.46366937749553471804,5.16983550523392,2.84340952787866,336.667073580126
738332.46366946783382445574,5.18214463738924,2.85571866003398,336.568600522884
738332.46366955828852951527,5.18214463738924,2.8680277921893,336.617837051505
738332.46366964874323457479,5.16983550523392,2.8680277921893,336.642455315816
738332.46366973919793963432,5.18214463738924,2.85571866003398,336.568600522884
738332.46366982965264469385,5.18214463738924,2.8680277921893,336.617837051505
738332.46366991999093443155,5.18214463738924,2.88033692434461,336.667073580126
738332.46367001044563949108,5.16983550523392,2.8680277921893,336.691691844437
738332.46367010090034455061,5.18214463738924,2.85571866003398,336.556291390728
738332.46367019135504961014,5.2190720338552,2.88033692434461,336.63014618366
738332.46367028180975466967,5.2190720338552,2.8680277921893,336.580909655039
738332.46367037214804440737,5.23138116601052,2.8680277921893,336.531673126418
738332.46367046260274946690,5.26830856247648,2.89264605649993,336.507054862107
738332.46367055305745452642,5.26830856247648,2.90495518865525,336.556291390728
738332.46367064351215958595,5.26830856247648,2.92957345296589,336.60552791935
738332.46367073396686464548,5.28061769463179,2.95419171727653,336.593218787194
738332.46367082430515438318,5.24369029816584,2.92957345296589,336.543982258573
738332.46367091475985944271,5.20676290169988,2.89264605649993,336.556291390728
738332.46367100521456450224,5.19445376954456,2.8680277921893,336.60552791935
738332.46367109566926956177,5.19445376954456,2.88033692434461,336.617837051505
738332.46367118612397462130,5.13290810876797,2.84340952787866,336.642455315816
738332.46367127646226435900,5.14521724092329,2.84340952787866,336.654764447971
738332.46367136691696941853,5.14521724092329,2.8680277921893,336.371654408399
738332.46367145737167447805,5.13290810876797,2.85571866003398,336.494745729952
738332.46367154782637953758,5.13290810876797,2.85571866003398,336.556291390728
738332.46367163828108459711,5.13290810876797,2.84340952787866,336.654764447971
738332.46367172873578965664,5.12059897661265,2.8680277921893,336.60552791935
738332.46367181907407939434,5.14521724092329,2.8680277921893,336.654764447971
738332.46367190952878445387,5.31754509109775,2.95419171727653,336.667073580126
738332.46367199998348951340,5.56372773420413,3.20037436038291,336.63014618366
738332.46367209043819457293,5.76067384868923,3.22499262469354,336.396272672709
738332.46367218089289963245,5.55141860204881,2.94188258512121,336.248563086845
738332.46367227123118937016,5.05905331583605,2.44951729890845,336.383963540554
738332.46367236168589442968,4.83748893704032,2.40028077028718,336.445509201331
738332.46367245214059948921,4.81287067272968,2.62184514908292,336.593218787194
738332.46367254259530454874,4.88672546566159,2.74493647063611,336.728619240903
738332.46367263305000960827,4.97288939074882,2.83110039572334,336.802474033835
738332.46367272338829934597,5.04674418368074,2.89264605649993,336.765546637369
738332.46367281384300440550,5.12059897661265,2.90495518865525,336.79016490168
738332.46367290429770946503,5.16983550523392,2.90495518865525,336.740928373058
738332.46367299475241452456,5.18214463738924,2.90495518865525,336.654764447971
738332.46367308520711958408,5.19445376954456,2.89264605649993,336.667073580126
738332.46367317554540932178,5.19445376954456,2.91726432081057,336.568600522884
738332.46367326600011438131,5.2190720338552,2.92957345296589,336.556291390728
738332.46367335645481944084,5.2190720338552,2.91726432081057,336.593218787194
738332.46367344690952450037,5.2190720338552,2.91726432081057,336.556291390728
738332.46367353736422955990,5.23138116601052,2.94188258512121,336.543982258573
738332.46367362770251929760,5.24369029816584,2.92957345296589,336.556291390728
738332.46367371815722435713,5.26830856247648,2.95419171727653,336.617837051505
738332.46367380861192941666,5.28061769463179,2.97880998158717,336.593218787194
738332.46367389906663447618,5.29292682678711,2.96650084943185,336.568600522884
738332.46367398952133953571,5.30523595894243,2.97880998158717,336.568600522884
738332.46367407985962927341,5.34216335540839,3.0034282458978,336.593218787194
738332.46367417031433433294,5.35447248756371,3.01573737805312,336.63014618366
738332.46367426076903939247,5.37909075187434,3.02804651020844,336.593218787194
738332.46367435122374445200,5.4160181483403,3.04035564236376,336.556291390728
738332.46367444167844951153,5.45294554480626,3.0649739066744,336.556291390728
738332.46367453213315457106,5.46525467696158,3.07728303882972,336.543982258573
738332.46367462247144430876,5.46525467696158,3.07728303882972,336.556291390728
738332.46367471292614936829,5.46525467696158,3.02804651020844,336.531673126418
738332.46367480338085442781,5.45294554480626,3.04035564236376,336.568600522884
738332.46367489383555948734,5.4160181483403,3.01573737805312,336.383963540554
738332.46367498429026454687,5.39139988402966,2.97880998158717,336.408581804865
738332.46367507462855428457,5.36678161971903,2.95419171727653,336.494745729952
738332.46367516508325934410,5.35447248756371,2.94188258512121,336.507054862107
738332.46367525553796440363,5.30523595894243,2.89264605649993,336.519363994263
738332.46367534599266946316,5.28061769463179,2.89264605649993,336.593218787194
738332.46367543644737452269,5.28061769463179,2.90495518865525,336.617837051505
738332.46367552678566426039,5.24369029816584,2.84340952787866,336.494745729952
738332.46367561724036931992,5.2190720338552,2.85571866003398,336.556291390728
738332.46367570769507437944,5.20676290169988,2.8680277921893,336.617837051505
738332.46367579814977943897,5.20676290169988,2.8680277921893,336.494745729952
738332.46367588860448449850,5.20676290169988,2.8680277921893,336.556291390728
738332.46367597894277423620,5.18214463738924,2.84340952787866,336.60552791935
738332.46367606939747929573,5.16983550523392,2.83110039572334,336.593218787194
738332.46367615985218435526,5.18214463738924,2.83110039572334,336.617837051505
738332.46367625030688941479,5.19445376954456,2.8064821314127,336.593218787194
738332.46367634076159447432,5.19445376954456,2.83110039572334,336.63014618366
738332.46367643109988421202,5.20676290169988,2.84340952787866,336.593218787194
738332.46367652155458927155,5.19445376954456,2.8680277921893,336.593218787194
738332.46367661200929433107,5.2190720338552,2.88033692434461,336.593218787194
738332.46367670246399939060,5.20676290169988,2.88033692434461,336.63014618366
738332.46367679291870445013,5.23138116601052,2.88033692434461,336.60552791935
738332.46367688325699418783,5.24369029816584,2.91726432081057,336.568600522884
738332.46367697371169924736,5.2190720338552,2.88033692434461,336.593218787194
738332.46367706416640430689,5.23138116601052,2.90495518865525,336.617837051505
738332.46367715462110936642,5.23138116601052,2.89264605649993,336.60552791935
738332.46367724507581442595,5.25599943032116,2.91726432081057,336.531673126418
738332.46367733553051948547,5.24369029816584,2.91726432081057,336.507054862107
738332.46367742586880922318,5.23138116601052,2.90495518865525,336.519363994263
738332.46367751632351428270,5.23138116601052,2.90495518865525,336.531673126418
738332.46367760677821934223,5.23138116601052,2.89264605649993,336.556291390728
738332.46367769723292440176,5.2190720338552,2.89264605649993,336.507054862107
738332.46367778768762946129,5.2190720338552,2.89264605649993,336.593218787194
738332.46367787802591919899,5.2190720338552,2.89264605649993,336.593218787194
738332.46367796848062425852,5.20676290169988,2.8680277921893,336.556291390728
738332.46367805893532931805,5.2190720338552,2.88033692434461,336.556291390728
738332.46367814939003437757,5.20676290169988,2.88033692434461,336.519363994263
738332.46367823984473943710,5.18214463738924,2.89264605649993,336.519363994263
738332.46367833018302917480,5.19445376954456,2.88033692434461,336.519363994263
738332.46367842063773423433,5.20676290169988,2.89264605649993,336.334727011933
738332.46367851109243929386,5.19445376954456,2.8680277921893,336.433200069175
738332.46367860154714435339,5.18214463738924,2.8680277921893,336.593218787194
738332.46367869200184941292,5.18214463738924,2.85571866003398,336.60552791935
738332.46367878234013915062,5.18214463738924,2.8680277921893,336.556291390728
738332.46367887279484421015,5.19445376954456,2.89264605649993,336.531673126418
738332.46367896324954926968,5.19445376954456,2.89264605649993,336.543982258573
738332.46367905370425432920,5.20676290169988,2.88033692434461,336.568600522884
738332.46367914415895938873,5.19445376954456,2.8680277921893,336.543982258573
738332.46367923449724912643,5.18214463738924,2.8680277921893,336.580909655039
738332.46367932495195418596,5.20676290169988,2.89264605649993,336.556291390728
738332.46367941540665924549,5.2190720338552,2.85571866003398,336.531673126418
738332.46367950586136430502,5.24369029816584,2.88033692434461,336.507054862107
738332.46367959631606936455,5.26830856247648,2.89264605649993,336.543982258573
738332.46367968665435910225,5.28061769463179,2.92957345296589,336.531673126418
738332.46367977710906416178,5.28061769463179,2.94188258512121,336.519363994263
738332.46367986756376922131,5.29292682678711,2.95419171727653,336.494745729952
738332.46367995801847428083,5.28061769463179,2.96650084943185,336.531673126418
738332.46368004847317934036,5.24369029816584,2.91726432081057,336.556291390728
738332.46368013892788439989,5.23138116601052,2.90495518865525,336.63014618366
738332.46368022926617413759,5.19445376954456,2.8680277921893,336.531673126418
738332.46368031972087919712,5.18214463738924,2.90495518865525,336.60552791935
738332.46368041017558425665,5.18214463738924,2.90495518865525,336.63014618366
738332.46368050063028931618,5.14521724092329,2.85571866003398,336.63014618366
738332.46368059108499437571,5.15752637307861,2.8680277921893,336.60552791935
738332.46368068142328411341,5.15752637307861,2.89264605649993,336.617837051505
738332.46368077187798917294,5.14521724092329,2.88033692434461,336.667073580126
738332.46368086233269423246,5.14521724092329,2.8680277921893,336.63014618366
738332.46368095278739929199,5.14521724092329,2.88033692434461,336.617837051505
738332.46368104324210435152,5.14521724092329,2.89264605649993,336.654764447971
738332.46368113358039408922,5.20676290169988,2.92957345296589,336.679382712282
738332.46368122403509914875,5.4160181483403,3.04035564236376,336.654764447971
738332.46368131448980420828,5.674509923602,3.21268349253822,336.470127465641
738332.46368140494450926781,5.77298298084455,3.22499262469354,336.310108747622
738332.46368149539921432734,5.37909075187434,2.84340952787866,336.297799615467
738332.46368158573750406504,4.89903459781691,2.38797163813186,336.334727011933
738332.46368167619220912457,4.80056154057436,2.49875382752973,336.494745729952
738332.46368176664691418409,4.83748893704032,2.68339080985951,336.63014618366
738332.46368185710161924362,4.93596199428287,2.79417299925738,336.753237505214
738332.46368194755632430315,5.0221259193701,2.88033692434461,336.642455315816
738332.46368203789461404085,5.09598071230201,2.92957345296589,336.63014618366
738332.46368212834931910038,5.14521724092329,2.91726432081057,336.667073580126
738332.46368221880402415991,5.18214463738924,2.92957345296589,336.60552791935
738332.46368230925872921944,5.19445376954456,2.91726432081057,336.568600522884
738332.46368239971343427896,5.20676290169988,2.91726432081057,336.568600522884
738332.46368249005172401667,5.2190720338552,2.92957345296589,336.580909655039
738332.46368258050642907619,5.23138116601052,2.92957345296589,336.642455315816
738332.46368267096113413572,5.24369029816584,2.92957345296589,336.568600522884
738332.46368276141583919525,5.25599943032116,2.95419171727653,336.556291390728
738332.46368285187054425478,5.25599943032116,2.95419171727653,336.543982258573
738332.46368294220883399248,5.25599943032116,2.94188258512121,336.568600522884
738332.46368303266353905201,5.25599943032116,2.96650084943185,336.568600522884
738332.46368312311824411154,5.26830856247648,2.96650084943185,336.593218787194
738332.46368321357294917107,5.29292682678711,3.0034282458978,336.617837051505
738332.46368330402765423059,5.31754509109775,2.99111911374248,336.60552791935
738332.46368339448235929012,5.32985422325307,3.01573737805312,336.568600522884
738332.46368348482064902782,5.36678161971903,3.0649739066744,336.580909655039
738332.46368357527535408735,5.37909075187434,3.05266477451908,336.507054862107
738332.46368366573005914688,5.4160181483403,3.0649739066744,336.470127465641
738332.46368375618476420641,5.42832728049562,3.07728303882972,336.482436597797
738332.46368384663946926594,5.45294554480626,3.08959217098504,336.482436597797
738332.46368393697775900364,5.45294554480626,3.0649739066744,336.507054862107
738332.46368402743246406317,5.44063641265094,3.04035564236376,336.482436597797
738332.46368411788716912270,5.44063641265094,3.0649739066744,336.482436597797
738332.46368420834187418222,5.39139988402966,3.01573737805312,336.507054862107
738332.46368429879657924175,5.36678161971903,2.99111911374248,336.531673126418
738332.46368438913486897945,5.34216335540839,2.96650084943185,336.568600522884
738332.46368447958957403898,5.29292682678711,2.94188258512121,336.63014618366
738332.46368457004427909851,5.29292682678711,2.92957345296589,336.531673126418
738332.46368466049898415804,5.28061769463179,2.91726432081057,336.60552791935
738332.46368475095368921757,5.24369029816584,2.90495518865525,336.593218787194
738332.46368484129197895527,5.2190720338552,2.89264605649993,336.531673126418
738332.46368493174668401480,5.2190720338552,2.89264605649993,336.60552791935
738332.46368502220138907433,5.20676290169988,2.90495518865525,336.654764447971
738332.46368511265609413385,5.16983550523392,2.84340952787866,336.556291390728
738332.46368520311079919338,5.19445376954456,2.8680277921893,336.60552791935
738332.46368529344908893108,5.15752637307861,2.8680277921893,336.654764447971
738332.46368538390379399061,5.16983550523392,2.88033692434461,336.593218787194
738332.46368547435849905014,5.15752637307861,2.84340952787866,336.445509201331
738332.46368556481320410967,5.19445376954456,2.88033692434461,336.519363994263
738332.46368565526790916920,5.15752637307861,2.85571866003398,336.617837051505
738332.46368574560619890690,5.16983550523392,2.8680277921893,336.543982258573
738332.46368583606090396643,5.18214463738924,2.88033692434461,336.519363994263
738332.46368592651560902596,5.19445376954456,2.8680277921893,336.63014618366
738332.46368601697031408548,5.20676290169988,2.8680277921893,336.617837051505
738332.46368610742501914501,5.19445376954456,2.89264605649993,336.617837051505
738332.46368619787972420454,5.19445376954456,2.91726432081057,336.617837051505
738332.46368628821801394224,5.20676290169988,2.94188258512121,336.642455315816
738332.46368637867271900177,5.19445376954456,2.94188258512121,336.617837051505
738332.46368646912742406130,5.19445376954456,2.91726432081057,336.642455315816
738332.46368655958212912083,5.20676290169988,2.92957345296589,336.556291390728
738332.46368665003683418036,5.19445376954456,2.90495518865525,336.60552791935
738332.46368674037512391806,5.20676290169988,2.90495518865525,336.580909655039
738332.46368683082982897758,5.19445376954456,2.92957345296589,336.494745729952
738332.46368692128453403711,5.20676290169988,2.91726432081057,336.519363994263
738332.46368701173923909664,5.20676290169988,2.90495518865525,336.543982258573
738332.46368710219394415617,5.20676290169988,2.90495518865525,336.568600522884
738332.46368719253223389387,5.19445376954456,2.91726432081057,336.556291390728
738332.46368728298693895340,5.18214463738924,2.89264605649993,336.519363994263
738332.46368737344164401293,5.19445376954456,2.90495518865525,336.519363994263
738332.46368746389634907246,5.19445376954456,2.88033692434461,336.580909655039
738332.46368755435105413198,5.18214463738924,2.8680277921893,336.556291390728
738332.46368764468934386969,5.18214463738924,2.92957345296589,336.543982258573
738332.46368773514404892921,5.19445376954456,2.92957345296589,336.593218787194
738332.46368782559875398874,5.15752637307861,2.89264605649993,336.568600522884
738332.46368791605345904827,5.16983550523392,2.89264605649993,336.568600522884
738332.46368800650816410780,5.16983550523392,2.88033692434461,336.60552791935
738332.46368809684645384550,5.18214463738924,2.90495518865525,336.593218787194
738332.46368818730115890503,5.16983550523392,2.88033692434461,336.556291390728
738332.46368827775586396456,5.16983550523392,2.88033692434461,336.593218787194
738332.46368836821056902409,5.16983550523392,2.89264605649993,336.543982258573
738332.46368845866527408361,5.15752637307861,2.89264605649993,336.556291390728
738332.46368854900356382132,5.16983550523392,2.88033692434461,336.519363994263
738332.46368863945826888084,5.16983550523392,2.89264605649993,336.531673126418
738332.46368872991297394037,5.15752637307861,2.90495518865525,336.580909655039
738332.46368882036767899990,5.15752637307861,2.89264605649993,336.593218787194
738332.46368891082238405943,5.16983550523392,2.91726432081057,336.580909655039
738332.46368900127708911896,5.19445376954456,2.91726432081057,336.470127465641
738332.46368909161537885666,5.20676290169988,2.89264605649993,336.433200069175
738332.46368918207008391619,5.2190720338552,2.90495518865525,336.60552791935
738332.46368927252478897572,5.25599943032116,2.91726432081057,336.543982258573
738332.46368936297949403524,5.28061769463179,2.92957345296589,336.470127465641
738332.46368945343419909477,5.26830856247648,2.94188258512121,336.580909655039
738332.46368954377248883247,5.26830856247648,2.96650084943185,336.556291390728
738332.46368963422719389200,5.25599943032116,2.94188258512121,336.543982258573
738332.46368972468189895153,5.23138116601052,2.92957345296589,336.63014618366
738332.46368981513660401106,5.16983550523392,2.89264605649993,336.617837051505
738332.46368990559130907059,5.14521724092329,2.90495518865525,336.556291390728
738332.46368999592959880829,5.13290810876797,2.88033692434461,336.654764447971
738332.46369008638430386782,5.13290810876797,2.88033692434461,336.63014618366
738332.46369017683900892735,5.13290810876797,2.88033692434461,336.543982258573
738332.46369026729371398687,5.12059897661265,2.88033692434461,336.568600522884
738332.46369035774841904640,5.12059897661265,2.88033692434461,336.593218787194
738332.46369044808670878410,5.12059897661265,2.85571866003398,336.580909655039
738332.46369053854141384363,5.13290810876797,2.88033692434461,336.580909655039
738332.46369062899611890316,5.12059897661265,2.90495518865525,336.593218787194
738332.46369071945082396269,5.13290810876797,2.90495518865525,336.593218787194
738332.46369080990552902222,5.26830856247648,2.96650084943185,336.63014618366
738332.46369090024381875992,5.51449120558285,3.20037436038291,336.531673126418
738332.46369099069852381945,5.74836471653391,3.27422915331482,336.310108747622
738332.46369108115322887897,5.58834599851477,3.05266477451908,336.100853500982
738332.46369117160793393850,5.08367158014669,2.56029948830632,336.23625395469
738332.46369126206263899803,4.81287067272968,2.38797163813186,336.383963540554
738332.46369135240092873573,4.83748893704032,2.62184514908292,336.568600522884
738332.46369144285563379526,4.89903459781691,2.75724560279143,336.728619240903
738332.46369153331033885479,4.9605802585935,2.89264605649993,336.728619240903
738332.46369162376504391432,5.07136244799137,2.92957345296589,336.777855769524
738332.46369171421974897385,5.13290810876797,2.92957345296589,336.740928373058
738332.46369180467445403337,5.16983550523392,2.92957345296589,336.642455315816
738332.46369189501274377108,5.18214463738924,2.92957345296589,336.593218787194
738332.46369198546744883060,5.18214463738924,2.92957345296589,336.654764447971
738332.46369207592215389013,5.18214463738924,2.94188258512121,336.543982258573
738332.46369216637685894966,5.19445376954456,2.91726432081057,336.531673126418
738332.46369225683156400919,5.20676290169988,2.95419171727653,336.556291390728
738332.46369234716985374689,5.2190720338552,2.95419171727653,336.593218787194
738332.46369243762455880642,5.23138116601052,2.95419171727653,336.617837051505
738332.46369252807926386595,5.24369029816584,2.95419171727653,336.543982258573
738332.46369261853396892548,5.25599943032116,2.96650084943185,336.396272672709
738332.46369270898867398500,5.26830856247648,2.97880998158717,336.519363994263
738332.46369279932696372271,5.28061769463179,3.0034282458978,336.531673126418
738332.46369288978166878223,5.30523595894243,3.0034282458978,336.543982258573
738332.46369298023637384176,5.32985422325307,3.01573737805312,336.60552791935
738332.46369307069107890129,5.35447248756371,3.01573737805312,336.568600522884
738332.46369316114578396082,5.36678161971903,3.05266477451908,336.617837051505
738332.46369325148407369852,5.39139988402966,3.07728303882972,336.494745729952
738332.46369334193877875805,5.42832728049562,3.07728303882972,336.580909655039
738332.46369343239348381758,5.44063641265094,3.07728303882972,336.593218787194
738332.46369352284818887711,5.45294554480626,3.0649739066744,336.543982258573
738332.46369361330289393663,5.44063641265094,3.0649739066744,336.531673126418
738332.46369370364118367434,5.42832728049562,3.01573737805312,336.593218787194
738332.46369379409588873386,5.4160181483403,3.0034282458978,336.556291390728
738332.46369388455059379339,5.39139988402966,3.05266477451908,336.543982258573
738332.46369397500529885292,5.35447248756371,3.01573737805312,336.556291390728
738332.46369406546000391245,5.32985422325307,2.97880998158717,336.617837051505
738332.46369415579829365015,5.31754509109775,3.01573737805312,336.580909655039
738332.46369424625299870968,5.29292682678711,2.96650084943185,336.556291390728
738332.46369433670770376921,5.25599943032116,2.92957345296589,336.60552791935
738332.46369442716240882874,5.23138116601052,2.88033692434461,336.568600522884
738332.46369451761711388826,5.2190720338552,2.84340952787866,336.494745729952
738332.46369460807181894779,5.2190720338552,2.8680277921893,336.593218787194
738332.46369469841010868549,5.20676290169988,2.85571866003398,336.580909655039
738332.46369478886481374502,5.16983550523392,2.90495518865525,336.494745729952
738332.46369487931951880455,5.18214463738924,2.91726432081057,336.593218787194
738332.46369496977422386408,5.18214463738924,2.89264605649993,336.60552791935
738332.46369506022892892361,5.16983550523392,2.8680277921893,336.519363994263
738332.46369515056721866131,5.18214463738924,2.88033692434461,336.531673126418
738332.46369524102192372084,5.16983550523392,2.85571866003398,336.568600522884
738332.46369533147662878036,5.19445376954456,2.8680277921893,336.531673126418
738332.46369542193133383989,5.16983550523392,2.85571866003398,336.507054862107
738332.46369551238603889942,5.2190720338552,2.88033692434461,336.507054862107
738332.46369560272432863712,5.19445376954456,2.8680277921893,336.519363994263
738332.46369569317903369665,5.19445376954456,2.88033692434461,336.568600522884
738332.46369578363373875618,5.2190720338552,2.90495518865525,336.580909655039
738332.46369587408844381571,5.2190720338552,2.91726432081057,336.531673126418
738332.46369596454314887524,5.2190720338552,2.91726432081057,336.568600522884
738332.46369605488143861294,5.2190720338552,2.94188258512121,336.494745729952
738332.46369614533614367247,5.2190720338552,2.90495518865525,336.359345276243
738332.46369623579084873199,5.2190720338552,2.91726432081057,336.507054862107
738332.46369632624555379152,5.19445376954456,2.96650084943185,336.543982258573
738332.46369641670025885105,5.20676290169988,2.94188258512121,336.507054862107
738332.46369650703854858875,5.20676290169988,2.92957345296589,336.494745729952
738332.46369659749325364828,5.2190720338552,2.94188258512121,336.507054862107
738332.46369668794795870781,5.20676290169988,2.92957345296589,336.494745729952
738332.46369677840266376734,5.20676290169988,2.89264605649993,336.543982258573
738332.46369686885736882687,5.20676290169988,2.94188258512121,336.60552791935
738332.46369695919565856457,5.20676290169988,2.92957345296589,336.519363994263
738332.46369704965036362410,5.19445376954456,2.91726432081057,336.494745729952
738332.46369714010506868362,5.19445376954456,2.90495518865525,336.543982258573
738332.46369723055977374315,5.19445376954456,2.89264605649993,336.556291390728
738332.46369732101447880268,5.16983550523392,2.92957345296589,336.568600522884
738332.46369741146918386221,5.18214463738924,2.92957345296589,336.580909655039
738332.46369750180747359991,5.18214463738924,2.92957345296589,336.593218787194
738332.46369759226217865944,5.18214463738924,2.90495518865525,336.60552791935
738332.46369768271688371897,5.16983550523392,2.90495518865525,336.543982258573
738332.46369777317158877850,5.15752637307861,2.91726432081057,336.667073580126
738332.46369786362629383802,5.18214463738924,2.91726432081057,336.617837051505
738332.46369795396458357573,5.16983550523392,2.90495518865525,336.519363994263
738332.46369804441928863525,5.15752637307861,2.90495518865525,336.593218787194
738332.46369813487399369478,5.16983550523392,2.90495518865525,336.60552791935
738332.46369822532869875431,5.16983550523392,2.90495518865525,336.556291390728
738332.46369831578340381384,5.16983550523392,2.89264605649993,336.593218787194
738332.46369840612169355154,5.16983550523392,2.89264605649993,336.593218787194
738332.46369849657639861107,5.15752637307861,2.91726432081057,336.580909655039
738332.46369858703110367060,5.15752637307861,2.90495518865525,336.556291390728
738332.46369867748580873013,5.16983550523392,2.89264605649993,336.593218787194
738332.46369876794051378965,5.15752637307861,2.90495518865525,336.617837051505
738332.46369885827880352736,5.19445376954456,2.91726432081057,336.519363994263
738332.46369894873350858688,5.20676290169988,2.92957345296589,336.580909655039
738332.46369903918821364641,5.23138116601052,2.95419171727653,336.543982258573
738332.46369912964291870594,5.24369029816584,2.94188258512121,336.470127465641
738332.46369922009762376547,5.25599943032116,2.95419171727653,336.543982258573
738332.46369931043591350317,5.24369029816584,2.97880998158717,336.531673126418
738332.46369940089061856270,5.24369029816584,2.97880998158717,336.568600522884
738332.46369949134532362223,5.24369029816584,2.99111911374248,336.494745729952
738332.46369958180002868176,5.20676290169988,2.95419171727653,336.482436597797
738332.46369967225473374128,5.18214463738924,2.90495518865525,336.334727011933
738332.46369976259302347898,5.16983550523392,2.90495518865525,336.482436597797
738332.46369985304772853851,5.13290810876797,2.95419171727653,336.519363994263
738332.46369994350243359804,5.13290810876797,2.91726432081057,336.568600522884
738332.46370003395713865757,5.13290810876797,2.90495518865525,336.568600522884
738332.46370012441184371710,5.13290810876797,2.92957345296589,336.556291390728
738332.46370021486654877663,5.13290810876797,2.90495518865525,336.568600522884
738332.46370030520483851433,5.13290810876797,2.89264605649993,336.580909655039
738332.46370039565954357386,5.13290810876797,2.90495518865525,336.642455315816
738332.46370048611424863338,5.12059897661265,2.92957345296589,336.617837051505
738332.46370057656895369291,5.16983550523392,2.92957345296589,336.593218787194
738332.46370066702365875244,5.36678161971903,3.07728303882972,336.593218787194
738332.46370075736194849014,5.60065513067009,3.2619200211595,336.593218787194
738332.46370084781665354967,5.74836471653391,3.27422915331482,336.310108747622
738332.46370093827135860920,5.4160181483403,2.95419171727653,336.248563086845
738332.46370102872606366873,4.93596199428287,2.42489903459782,336.273181351156
738332.46370111918076872826,4.81287067272968,2.48644469537441,336.408581804865
738332.46370120951905846596,4.825179804885,2.62184514908292,336.531673126418
738332.46370129997376352549,4.86210720135095,2.74493647063611,336.642455315816
738332.46370139042846858501,4.93596199428287,2.85571866003398,336.802474033835
738332.46370148088317364454,5.05905331583605,2.92957345296589,336.900947091077
738332.46370157133787870407,5.12059897661265,2.95419171727653,336.691691844437
738332.46370166167616844177,5.14521724092329,2.94188258512121,336.63014618366
738332.46370175213087350130,5.15752637307861,2.91726432081057,336.580909655039
738332.46370184258557856083,5.16983550523392,2.94188258512121,336.556291390728
738332.46370193304028362036,5.19445376954456,2.96650084943185,336.519363994263
738332.46370202349498867989,5.19445376954456,2.95419171727653,336.580909655039
738332.46370211383327841759,5.20676290169988,2.96650084943185,336.593218787194
738332.46370220428798347712,5.20676290169988,2.95419171727653,336.470127465641
738332.46370229474268853664,5.2190720338552,2.99111911374248,336.580909655039
738332.46370238519739359617,5.24369029816584,3.01573737805312,336.60552791935
738332.46370247565209865570,5.25599943032116,3.0034282458978,336.580909655039
738332.46370256599038839340,5.28061769463179,3.01573737805312,336.568600522884
738332.46370265644509345293,5.30523595894243,3.04035564236376,336.63014618366
738332.46370274689979851246,5.31754509109775,3.05266477451908,336.593218787194
738332.46370283735450357199,5.31754509109775,3.0649739066744,336.519363994263
738332.46370292780920863152,5.35447248756371,3.10190130314035,336.617837051505
738332.46370301826391369104,5.36678161971903,3.11421043529567,336.593218787194
738332.46370310860220342875,5.37909075187434,3.11421043529567,336.470127465641
738332.46370319905690848827,5.4160181483403,3.13882869960631,336.347036144088
738332.46370328951161354780,5.44063641265094,3.15113783176163,336.519363994263
738332.46370337996631860733,5.46525467696158,3.15113783176163,336.507054862107
738332.46370347042102366686,5.45294554480626,3.16344696391695,336.507054862107
738332.46370356075931340456,5.44063641265094,3.13882869960631,336.507054862107
738332.46370365121401846409,5.4160181483403,3.11421043529567,336.531673126418
738332.46370374166872352362,5.39139988402966,3.07728303882972,336.531673126418
738332.46370383212342858315,5.35447248756371,3.05266477451908,336.507054862107
738332.46370392257813364267,5.32985422325307,3.02804651020844,336.507054862107
738332.46370401291642338037,5.29292682678711,3.01573737805312,336.556291390728
738332.46370410337112843990,5.28061769463179,2.99111911374248,336.519363994263
738332.46370419382583349943,5.25599943032116,3.02804651020844,336.568600522884
738332.46370428428053855896,5.23138116601052,3.01573737805312,336.568600522884
738332.46370437473524361849,5.19445376954456,2.97880998158717,336.617837051505
738332.46370446507353335619,5.19445376954456,2.97880998158717,336.556291390728
738332.46370455552823841572,5.19445376954456,2.95419171727653,336.580909655039
738332.46370464598294347525,5.18214463738924,2.95419171727653,336.593218787194
738332.46370473643764853477,5.18214463738924,2.94188258512121,336.568600522884
738332.46370482689235359430,5.16983550523392,2.94188258512121,336.42089093702
738332.46370491723064333200,5.18214463738924,2.95419171727653,336.519363994263
738332.46370500768534839153,5.19445376954456,2.97880998158717,336.593218787194
738332.46370509814005345106,5.18214463738924,2.97880998158717,336.642455315816
738332.46370518859475851059,5.18214463738924,2.96650084943185,336.580909655039
738332.46370527904946357012,5.19445376954456,2.99111911374248,336.580909655039
738332.46370536938775330782,5.19445376954456,3.0034282458978,336.543982258573
738332.46370545984245836735,5.20676290169988,3.01573737805312,336.543982258573
738332.46370555029716342688,5.20676290169988,3.02804651020844,336.531673126418
738332.46370564075186848640,5.20676290169988,3.02804651020844,336.494745729952
738332.46370573120657354593,5.20676290169988,3.02804651020844,336.556291390728
738332.46370582166127860546,5.2190720338552,3.05266477451908,336.60552791935
738332.46370591199956834316,5.2190720338552,3.0649739066744,336.63014618366
738332.46370600245427340269,5.20676290169988,3.0649739066744,336.556291390728
738332.46370609290897846222,5.20676290169988,3.05266477451908,336.60552791935
738332.46370618336368352175,5.20676290169988,3.0649739066744,336.667073580126
738332.46370627381838858128,5.20676290169988,3.0649739066744,336.580909655039
738332.46370636415667831898,5.20676290169988,3.07728303882972,336.593218787194
738332.46370645461138337851,5.20676290169988,3.07728303882972,336.63014618366
738332.46370654506608843803,5.20676290169988,3.07728303882972,336.654764447971
738332.46370663552079349756,5.19445376954456,3.07728303882972,336.347036144088
738332.46370672597549855709,5.19445376954456,3.08959217098504,336.42089093702
738332.46370681631378829479,5.18214463738924,3.08959217098504,336.568600522884
738332.46370690676849335432,5.19445376954456,3.08959217098504,336.543982258573
738332.46370699722319841385,5.19445376954456,3.11421043529567,336.593218787194
738332.46370708767790347338,5.18214463738924,3.10190130314035,336.507054862107
738332.46370717813260853291,5.18214463738924,3.10190130314035,336.519363994263
738332.46370726847089827061,5.18214463738924,3.12651956745099,336.494745729952
738332.46370735892560333014,5.18214463738924,3.12651956745099,336.470127465641
738332.46370744938030838966,5.18214463738924,3.13882869960631,336.470127465641
738332.46370753983501344919,5.16983550523392,3.12651956745099,336.482436597797
738332.46370763028971850872,5.18214463738924,3.13882869960631,336.507054862107
738332.46370772062800824642,5.16983550523392,3.13882869960631,336.507054862107
738332.46370781108271330595,5.16983550523392,3.15113783176163,336.543982258573
738332.46370790153741836548,5.14521724092329,3.15113783176163,336.593218787194
738332.46370799199212342501,5.16983550523392,3.17575609607227,336.568600522884
738332.46370808244682848454,5.19445376954456,3.17575609607227,336.519363994263
738332.46370817278511822224,5.2190720338552,3.17575609607227,336.617837051505
738332.46370826323982328176,5.23138116601052,3.17575609607227,336.556291390728
738332.46370835369452834129,5.23138116601052,3.18806522822759,336.482436597797
738332.46370844414923340082,5.25599943032116,3.21268349253822,336.543982258573
738332.46370853460393846035,5.25599943032116,3.22499262469354,336.556291390728
738332.46370862494222819805,5.25599943032116,3.23730175684886,336.531673126418
738332.46370871539693325758,5.25599943032116,3.24961088900418,336.494745729952
738332.46370880585163831711,5.20676290169988,3.21268349253822,336.494745729952
738332.46370889630634337664,5.18214463738924,3.20037436038291,336.519363994263
738332.46370898676104843616,5.16983550523392,3.17575609607227,336.568600522884
738332.46370907721575349569,5.14521724092329,3.16344696391695,336.556291390728
738332.46370916755404323339,5.12059897661265,3.17575609607227,336.593218787194
738332.46370925800874829292,5.12059897661265,3.15113783176163,336.617837051505
738332.46370934846345335245,5.12059897661265,3.16344696391695,336.60552791935
738332.46370943891815841198,5.10828984445733,3.15113783176163,336.642455315816
738332.46370952937286347151,5.10828984445733,3.15113783176163,336.63014618366
738332.46370961971115320921,5.12059897661265,3.15113783176163,336.556291390728
738332.46370971016585826874,5.12059897661265,3.17575609607227,336.63014618366
738332.46370980062056332827,5.13290810876797,3.17575609607227,336.617837051505
738332.46370989107526838779,5.29292682678711,3.28653828547014,336.63014618366
738332.46370998152997344732,5.51449120558285,3.5204117964212,336.593218787194
738332.46371007186826318502,5.73605558437859,3.61888485366375,336.310108747622
738332.46371016232296824455,5.56372773420413,3.40962960702333,335.990071311584
738332.46371025277767330408,5.05905331583605,2.83110039572334,336.125471765292
738332.46371034323237836361,4.825179804885,2.68339080985951,336.347036144088
738332.46371043368708342314,4.825179804885,2.79417299925738,336.433200069175
738332.46371052402537316084,4.84979806919563,2.95419171727653,336.63014618366
738332.46371061448007822037,4.93596199428287,3.10190130314035,336.802474033835
738332.46371070493478327990,5.0221259193701,3.17575609607227,336.851710562456
738332.46371079538948833942,5.09598071230201,3.21268349253822,336.777855769524
738332.46371088584419339895,5.13290810876797,3.21268349253822,336.740928373058
738332.46371097618248313665,5.15752637307861,3.21268349253822,336.667073580126
738332.46371106663718819618,5.16983550523392,3.21268349253822,336.593218787194
738332.46371115709189325571,5.18214463738924,3.22499262469354,336.642455315816
738332.46371124754659831524,5.19445376954456,3.22499262469354,336.63014618366
738332.46371133800130337477,5.18214463738924,3.21268349253822,336.654764447971
738332.46371142833959311247,5.19445376954456,3.23730175684886,336.568600522884
738332.46371151879429817200,5.20676290169988,3.23730175684886,336.617837051505
738332.46371160924900323153,5.23138116601052,3.24961088900418,336.654764447971
738332.46371169970370829105,5.23138116601052,3.24961088900418,336.531673126418
738332.46371179015841335058,5.24369029816584,3.2619200211595,336.580909655039
738332.46371188061311841011,5.25599943032116,3.27422915331482,336.494745729952
738332.46371197095140814781,5.28061769463179,3.28653828547014,336.531673126418
738332.46371206140611320734,5.31754509109775,3.31115654978078,336.556291390728
738332.46371215186081826687,5.32985422325307,3.32346568193609,336.543982258573
738332.46371224231552332640,5.35447248756371,3.34808394624673,336.568600522884
738332.46371233277022838593,5.36678161971903,3.37270221055737,336.556291390728
738332.46371242310851812363,5.40370901618498,3.38501134271269,336.593218787194
738332.46371251356322318316,5.42832728049562,3.38501134271269,336.556291390728
738332.46371260401792824268,5.42832728049562,3.40962960702333,336.531673126418
738332.46371269447263330221,5.42832728049562,3.38501134271269,336.531673126418
738332.46371278492733836174,5.42832728049562,3.37270221055737,336.568600522884
738332.46371287526562809944,5.40370901618498,3.34808394624673,336.556291390728
738332.46371296572033315897,5.39139988402966,3.32346568193609,336.568600522884
738332.46371305617503821850,5.34216335540839,3.28653828547014,336.593218787194
738332.46371314662974327803,5.30523595894243,3.24961088900418,336.580909655039
738332.46371323708444833755,5.28061769463179,3.23730175684886,336.507054862107
738332.46371332742273807526,5.24369029816584,3.21268349253822,336.507054862107
738332.46371341787744313478,5.2190720338552,3.20037436038291,336.507054862107
738332.46371350833214819431,5.20676290169988,3.20037436038291,336.543982258573
738332.46371359878685325384,5.19445376954456,3.18806522822759,336.543982258573
738332.46371368924155831337,5.18214463738924,3.17575609607227,336.556291390728
738332.46371377957984805107,5.18214463738924,3.17575609607227,336.556291390728
738332.46371387003455311060,5.14521724092329,3.13882869960631,336.580909655039
738332.46371396048925817013,5.15752637307861,3.15113783176163,336.593218787194
738332.46371405094396322966,5.14521724092329,3.15113783176163,336.580909655039
738332.46371414139866828918,5.14521724092329,3.13882869960631,336.60552791935
738332.46371423173695802689,5.14521724092329,3.13882869960631,336.63014618366
738332.46371432219166308641,5.15752637307861,3.15113783176163,336.593218787194
738332.46371441264636814594,5.15752637307861,3.15113783176163,336.556291390728
738332.46371450310107320547,5.15752637307861,3.15113783176163,336.580909655039
738332.46371459355577826500,5.15752637307861,3.15113783176163,336.568600522884
738332.46371468401048332453,5.15752637307861,3.16344696391695,336.507054862107
738332.46371477434877306223,5.18214463738924,3.17575609607227,336.617837051505
738332.46371486480347812176,5.18214463738924,3.17575609607227,336.63014618366
738332.46371495525818318129,5.19445376954456,3.18806522822759,336.507054862107
738332.46371504571288824081,5.19445376954456,3.20037436038291,336.60552791935
738332.46371513616759330034,5.20676290169988,3.20037436038291,336.593218787194
738332.46371522650588303804,5.20676290169988,3.20037436038291,336.507054862107
738332.46371531696058809757,5.2190720338552,3.20037436038291,336.482436597797
738332.46371540741529315710,5.19445376954456,3.20037436038291,336.519363994263
738332.46371549786999821663,5.19445376954456,3.18806522822759,336.507054862107
738332.46371558832470327616,5.18214463738924,3.18806522822759,336.457818333486
738332.46371567866299301386,5.18214463738924,3.18806522822759,336.556291390728
738332.46371576911769807339,5.16983550523392,3.17575609607227,336.556291390728
738332.46371585957240313292,5.18214463738924,3.17575609607227,336.507054862107
738332.46371595002710819244,5.16983550523392,3.17575609607227,336.593218787194
738332.46371604048181325197,5.18214463738924,3.18806522822759,336.642455315816
738332.46371613082010298967,5.18214463738924,3.18806522822759,336.63014618366
738332.46371622127480804920,5.15752637307861,3.16344696391695,336.543982258573
738332.46371631172951310873,5.16983550523392,3.17575609607227,336.60552791935
738332.46371640218421816826,5.16983550523392,3.17575609607227,336.593218787194
738332.46371649263892322779,5.15752637307861,3.16344696391695,336.568600522884
738332.46371658297721296549,5.16983550523392,3.16344696391695,336.593218787194
738332.46371667343191802502,5.16983550523392,3.17575609607227,336.617837051505
738332.46371676388662308455,5.15752637307861,3.16344696391695,336.60552791935
738332.46371685434132814407,5.15752637307861,3.16344696391695,336.617837051505
738332.46371694479603320360,5.15752637307861,3.16344696391695,336.617837051505
738332.46371703513432294130,5.16983550523392,3.17575609607227,336.568600522884
738332.46371712558902800083,5.16983550523392,3.17575609607227,336.531673126418
738332.46371721604373306036,5.18214463738924,3.16344696391695,336.359345276243
738332.46371730649843811989,5.19445376954456,3.15113783176163,336.408581804865
738332.46371739695314317942,5.20676290169988,3.16344696391695,336.482436597797
738332.46371748740784823895,5.24369029816584,3.17575609607227,336.457818333486
738332.46371757774613797665,5.26830856247648,3.21268349253822,336.457818333486
738332.46371766820084303617,5.25599943032116,3.21268349253822,336.494745729952
738332.46371775865554809570,5.24369029816584,3.22499262469354,336.507054862107
738332.46371784911025315523,5.24369029816584,3.22499262469354,336.470127465641
738332.46371793956495821476,5.20676290169988,3.20037436038291,336.568600522884
738332.46371802990324795246,5.18214463738924,3.18806522822759,336.519363994263
738332.46371812035795301199,5.15752637307861,3.16344696391695,336.494745729952
738332.46371821081265807152,5.13290810876797,3.13882869960631,336.494745729952
738332.46371830126736313105,5.10828984445733,3.15113783176163,336.543982258573
738332.46371839172206819057,5.12059897661265,3.13882869960631,336.556291390728
738332.46371848206035792828,5.12059897661265,3.13882869960631,336.556291390728
738332.46371857251506298780,5.12059897661265,3.13882869960631,336.568600522884
738332.46371866296976804733,5.12059897661265,3.12651956745099,336.580909655039
738332.46371875342447310686,5.12059897661265,3.12651956745099,336.593218787194
738332.46371884387917816639,5.10828984445733,3.15113783176163,336.519363994263
738332.46371893421746790409,5.13290810876797,3.13882869960631,336.654764447971
738332.46371902467217296362,5.29292682678711,3.24961088900418,336.654764447971
738332.46371911512687802315,5.50218207342753,3.50810266426588,336.580909655039
738332.46371920558158308268,5.71143732006795,3.59426658935311,336.297799615467
738332.46371929603628814220,5.56372773420413,3.39732047486801,336.174708293914
738332.46371938637457787991,5.05905331583605,2.78186386710206,336.223944822535
738332.46371947682928293943,4.825179804885,2.64646341339356,336.359345276243
738332.46371956728398799896,4.84979806919563,2.88033692434461,336.63014618366
738332.46371965773869305849,4.91134372997223,3.01573737805312,336.740928373058
738332.46371974819339811802,4.94827112643818,3.07728303882972,336.81478316599
738332.46371983853168785572,5.03443505152542,3.13882869960631,336.802474033835
738332.46371992898639291525,5.10828984445733,3.18806522822759,336.79016490168
738332.46372001944109797478,5.14521724092329,3.18806522822759,336.691691844437
738332.46372010989580303431,5.16983550523392,3.17575609607227,336.568600522884
738332.46372020035050809383,5.18214463738924,3.18806522822759,336.556291390728
738332.46372029080521315336,5.18214463738924,3.18806522822759,336.556291390728
738332.46372038114350289106,5.19445376954456,3.20037436038291,336.531673126418
738332.46372047159820795059,5.2190720338552,3.20037436038291,336.519363994263
738332.46372056205291301012,5.2190720338552,3.21268349253822,336.507054862107
738332.46372065250761806965,5.24369029816584,3.22499262469354,336.494745729952
738332.46372074296232312918,5.24369029816584,3.23730175684886,336.383963540554
738332.46372083330061286688,5.26830856247648,3.24961088900418,336.445509201331
738332.46372092375531792641,5.25599943032116,3.23730175684886,336.543982258573
738332.46372101421002298594,5.26830856247648,3.24961088900418,336.543982258573
738332.46372110466472804546,5.29292682678711,3.27422915331482,336.519363994263
738332.46372119511943310499,5.31754509109775,3.28653828547014,336.543982258573
738332.46372128545772284269,5.34216335540839,3.29884741762546,336.507054862107
738332.46372137591242790222,5.36678161971903,3.31115654978078,336.507054862107
738332.46372146636713296175,5.40370901618498,3.34808394624673,336.507054862107
738332.46372155682183802128,5.4160181483403,3.34808394624673,336.531673126418
738332.46372164727654308081,5.44063641265094,3.36039307840205,336.556291390728
738332.46372173761483281851,5.44063641265094,3.36039307840205,336.593218787194
738332.46372182806953787804,5.44063641265094,3.34808394624673,336.543982258573
738332.46372191852424293756,5.44063641265094,3.34808394624673,336.470127465641
738332.46372200897894799709,5.40370901618498,3.29884741762546,336.543982258573
738332.46372209943365305662,5.37909075187434,3.2619200211595,336.531673126418
738332.46372218977194279432,5.35447248756371,3.24961088900418,336.457818333486
738332.46372228022664785385,5.32985422325307,3.22499262469354,336.543982258573
738332.46372237068135291338,5.29292682678711,3.18806522822759,336.556291390728
738332.46372246113605797291,5.25599943032116,3.17575609607227,336.531673126418
738332.46372255159076303244,5.23138116601052,3.15113783176163,336.556291390728
738332.46372264192905277014,5.2190720338552,3.15113783176163,336.507054862107
738332.46372273238375782967,5.20676290169988,3.13882869960631,336.580909655039
738332.46372282283846288919,5.19445376954456,3.13882869960631,336.482436597797
738332.46372291329316794872,5.18214463738924,3.12651956745099,336.556291390728
738332.46372300374787300825,5.16983550523392,3.10190130314035,336.568600522884
738332.46372309420257806778,5.15752637307861,3.08959217098504,336.60552791935
738332.46372318454086780548,5.15752637307861,3.08959217098504,336.519363994263
738332.46372327499557286501,5.14521724092329,3.08959217098504,336.568600522884
738332.46372336545027792454,5.14521724092329,3.07728303882972,336.593218787194
738332.46372345590498298407,5.14521724092329,3.08959217098504,336.580909655039
738332.46372354635968804359,5.15752637307861,3.08959217098504,336.568600522884
738332.46372363669797778130,5.18214463738924,3.11421043529567,336.568600522884
738332.46372372715268284082,5.18214463738924,3.11421043529567,336.593218787194
738332.46372381760738790035,5.16983550523392,3.11421043529567,336.593218787194
738332.46372390806209295988,5.18214463738924,3.11421043529567,336.556291390728
738332.46372399851679801941,5.18214463738924,3.13882869960631,336.580909655039
738332.46372408885508775711,5.18214463738924,3.12651956745099,336.593218787194
738332.46372417930979281664,5.18214463738924,3.13882869960631,336.543982258573
738332.46372426976449787617,5.19445376954456,3.13882869960631,336.457818333486
738332.46372436021920293570,5.20676290169988,3.15113783176163,336.482436597797
738332.46372445067390799522,5.19445376954456,3.13882869960631,336.531673126418
738332.46372454101219773293,5.19445376954456,3.13882869960631,336.494745729952
738332.46372463146690279245,5.19445376954456,3.13882869960631,336.531673126418
738332.46372472192160785198,5.19445376954456,3.13882869960631,336.494745729952
738332.46372481237631291151,5.19445376954456,3.13882869960631,336.470127465641
738332.46372490283101797104,5.18214463738924,3.12651956745099,336.482436597797
738332.46372499316930770874,5.16983550523392,3.12651956745099,336.470127465641
738332.46372508362401276827,5.18214463738924,3.12651956745099,336.445509201331
738332.46372517407871782780,5.16983550523392,3.12651956745099,336.494745729952
738332.46372526453342288733,5.18214463738924,3.12651956745099,336.494745729952
738332.46372535498812794685,5.18214463738924,3.12651956745099,336.543982258573
738332.46372544532641768456,5.16983550523392,3.11421043529567,336.507054862107
738332.46372553578112274408,5.18214463738924,3.11421043529567,336.568600522884
738332.46372562623582780361,5.16983550523392,3.10190130314035,336.568600522884
738332.46372571669053286314,5.15752637307861,3.10190130314035,336.494745729952
738332.46372580714523792267,5.16983550523392,3.10190130314035,336.507054862107
738332.46372589759994298220,5.15752637307861,3.10190130314035,336.507054862107
738332.46372598793823271990,5.15752637307861,3.10190130314035,336.519363994263
738332.46372607839293777943,5.14521724092329,3.11421043529567,336.580909655039
738332.46372616884764283895,5.15752637307861,3.10190130314035,336.60552791935
738332.46372625930234789848,5.18214463738924,3.12651956745099,336.60552791935
738332.46372634975705295801,5.16983550523392,3.10190130314035,336.531673126418
738332.46372644009534269571,5.15752637307861,3.10190130314035,336.593218787194
738332.46372653055004775524,5.16983550523392,3.10190130314035,336.593218787194
738332.46372662100475281477,5.15752637307861,3.10190130314035,336.482436597797
738332.46372671145945787430,5.16983550523392,3.11421043529567,336.543982258573
738332.46372680191416293383,5.14521724092329,3.08959217098504,336.60552791935
738332.46372689225245267153,5.16983550523392,3.08959217098504,336.507054862107
738332.46372698270715773106,5.18214463738924,3.11421043529567,336.531673126418
738332.46372707316186279058,5.18214463738924,3.10190130314035,336.556291390728
738332.46372716361656785011,5.20676290169988,3.11421043529567,336.580909655039
738332.46372725407127290964,5.2190720338552,3.12651956745099,336.543982258573
738332.46372734440956264734,5.24369029816584,3.11421043529567,336.507054862107
738332.46372743486426770687,5.25599943032116,3.15113783176163,336.580909655039
738332.46372752531897276640,5.26830856247648,3.17575609607227,336.60552791935
738332.46372761577367782593,5.24369029816584,3.17575609607227,336.494745729952
738332.46372770622838288546,5.26830856247648,3.20037436038291,336.556291390728
738332.46372779656667262316,5.25599943032116,3.20037436038291,336.482436597797
738332.46372788702137768269,5.16983550523392,3.10190130314035,336.445509201331
738332.46372797747608274221,5.15752637307861,3.10190130314035,336.543982258573
738332.46372806793078780174,5.15752637307861,3.11421043529567,336.642455315816
738332.46372815838549286127,5.13290810876797,3.07728303882972,336.617837051505
738332.46372824872378259897,5.14521724092329,3.10190130314035,336.568600522884
738332.46372833917848765850,5.16983550523392,3.13882869960631,336.642455315816
738332.46372842963319271803,5.14521724092329,3.12651956745099,336.593218787194
738332.46372852008789777756,5.13290810876797,3.10190130314035,336.519363994263
738332.46372861054260283709,5.15752637307861,3.13882869960631,336.60552791935
738332.46372870099730789661,5.14521724092329,3.15113783176163,336.568600522884
738332.46372879133559763432,5.14521724092329,3.10190130314035,336.568600522884
738332.46372888179030269384,5.34216335540839,3.29884741762546,336.556291390728
738332.46372897224500775337,5.45294554480626,3.44655700348928,336.531673126418
738332.46372906269971281290,5.64989165929136,3.55733919288715,336.297799615467
738332.46372915315441787243,5.68681905575732,3.53272092857652,336.113162633137
738332.46372924349270761013,5.26830856247648,3.02804651020844,336.187017426069
738332.46372933394741266966,4.81287067272968,2.53568122399569,336.260872219001
738332.46372942440211772919,4.825179804885,2.78186386710206,336.507054862107
738332.46372951485682278872,4.89903459781691,2.94188258512121,336.654764447971
738332.46372960531152784824,5.00981678721478,3.10190130314035,336.765546637369
738332.46372969564981758595,5.04674418368074,3.12651956745099,336.851710562456
738332.46372978610452264547,5.12059897661265,3.16344696391695,336.753237505214
738332.46372987655922770500,5.07136244799137,3.10190130314035,336.691691844437
738332.46372996701393276453,5.13290810876797,3.11421043529567,336.679382712282
738332.46373005746863782406,5.16983550523392,3.13882869960631,336.593218787194
738332.46373014780692756176,5.14521724092329,3.13882869960631,336.519363994263
738332.46373023826163262129,5.24369029816584,3.22499262469354,336.580909655039
738332.46373032871633768082,5.2190720338552,3.20037436038291,336.642455315816
738332.46373041917104274035,5.15752637307861,3.15113783176163,336.642455315816
738332.46373050962574779987,5.14521724092329,3.11421043529567,336.642455315816
738332.46373059996403753757,5.16983550523392,3.13882869960631,336.593218787194
738332.46373069041874259710,5.18214463738924,3.16344696391695,336.494745729952
738332.46373078087344765663,5.2190720338552,3.17575609607227,336.556291390728
738332.46373087132815271616,5.24369029816584,3.21268349253822,336.556291390728
738332.46373096178285777569,5.29292682678711,3.24961088900418,336.568600522884
738332.46373105212114751339,5.2190720338552,3.17575609607227,336.568600522884
738332.46373114257585257292,5.28061769463179,3.2619200211595,336.60552791935
738332.46373123303055763245,5.26830856247648,3.24961088900418,336.543982258573
738332.46373132348526269197,5.34216335540839,3.28653828547014,336.433200069175
738332.46373141393996775150,5.31754509109775,3.2619200211595,336.457818333486
738332.46373150427825748920,5.29292682678711,3.21268349253822,336.580909655039
738332.46373159473296254873,5.35447248756371,3.28653828547014,336.568600522884
738332.46373168518766760826,5.30523595894243,3.22499262469354,336.593218787194
738332.46373177564237266779,5.32985422325307,3.23730175684886,336.617837051505
738332.46373186609707772732,5.35447248756371,3.24961088900418,336.580909655039
738332.46373195655178278685,5.31754509109775,3.20037436038291,336.531673126418
738332.46373204689007252455,5.23138116601052,3.13882869960631,336.507054862107
738332.46373213734477758408,5.16983550523392,3.0649739066744,336.482436597797
738332.46373222779948264360,5.15752637307861,3.07728303882972,336.470127465641
738332.46373231825418770313,5.19445376954456,3.11421043529567,336.470127465641
738332.46373240870889276266,5.12059897661265,3.05266477451908,336.507054862107
738332.46373249904718250036,5.12059897661265,3.0649739066744,336.543982258573
738332.46373258950188755989,5.0221259193701,2.97880998158717,336.556291390728
738332.46373267995659261942,5.05905331583605,3.01573737805312,336.507054862107
738332.46373277041129767895,5.07136244799137,3.02804651020844,336.543982258573
738332.46373286086600273848,5.00981678721478,2.96650084943185,336.519363994263
738332.46373295120429247618,5.08367158014669,3.02804651020844,336.531673126418
738332.46373304165899753571,4.98519852290414,2.94188258512121,336.543982258573
738332.46373313211370259523,5.04674418368074,3.01573737805312,336.593218787194
738332.46373322256840765476,5.0221259193701,2.99111911374248,336.556291390728
738332.46373331302311271429,4.99750765505946,2.94188258512121,336.507054862107
738332.46373340336140245199,4.99750765505946,2.95419171727653,336.568600522884
738332.46373349381610751152,5.04674418368074,3.0034282458978,336.580909655039
738332.46373358427081257105,5.03443505152542,2.99111911374248,336.519363994263
738332.46373367472551763058,5.0221259193701,2.97880998158717,336.531673126418
738332.46373376518022269011,5.07136244799137,3.02804651020844,336.543982258573
738332.46373385551851242781,5.04674418368074,3.01573737805312,336.617837051505
738332.46373394597321748734,5.03443505152542,2.99111911374248,336.617837051505
738332.46373403642792254686,5.05905331583605,3.02804651020844,336.568600522884
738332.46373412688262760639,5.07136244799137,3.04035564236376,336.60552791935
738332.46373421733733266592,5.03443505152542,3.0034282458978,336.568600522884
738332.46373430767562240362,5.03443505152542,3.0034282458978,336.543982258573
738332.46373439813032746315,5.07136244799137,3.04035564236376,336.531673126418
738332.46373448858503252268,5.10828984445733,3.10190130314035,336.531673126418
738332.46373457903973758221,5.00981678721478,2.99111911374248,336.580909655039
738332.46373466949444264174,5.03443505152542,3.01573737805312,336.617837051505
738332.46373475994914770126,4.9605802585935,2.95419171727653,336.580909655039
738332.46373485028743743896,5.05905331583605,3.04035564236376,336.494745729952
738332.46373494074214249849,4.99750765505946,2.97880998158717,336.470127465641
738332.46373503119684755802,5.03443505152542,3.0034282458978,336.593218787194
738332.46373512165155261755,5.00981678721478,2.97880998158717,336.507054862107
738332.46373521210625767708,5.04674418368074,3.01573737805312,336.519363994263
738332.46373530244454741478,4.9605802585935,2.94188258512121,336.543982258573
738332.46373539289925247431,5.00981678721478,2.99111911374248,336.531673126418
738332.46373548335395753384,4.98519852290414,2.95419171727653,336.494745729952
738332.46373557380866259336,4.98519852290414,2.96650084943185,336.519363994263
738332.46373566426336765289,5.0221259193701,3.0034282458978,336.494745729952
738332.46373575460165739059,4.99750765505946,2.97880998158717,336.507054862107
738332.46373584505636245012,4.94827112643818,2.91726432081057,336.482436597797
738332.46373593551106750965,4.9605802585935,2.94188258512121,336.568600522884
738332.46373602596577256918,4.97288939074882,2.95419171727653,336.60552791935
738332.46373611642047762871,5.03443505152542,3.01573737805312,336.593218787194
738332.46373620675876736641,4.9605802585935,2.94188258512121,336.543982258573
738332.46373629721347242594,4.94827112643818,2.92957345296589,336.580909655039
738332.46373638766817748547,4.9605802585935,2.94188258512121,336.593218787194
738332.46373647812288254499,4.9605802585935,2.94188258512121,336.60552791935
738332.46373656857758760452,4.9605802585935,2.94188258512121,336.617837051505
738332.46373665891587734222,4.9605802585935,2.94188258512121,336.60552791935
738332.46373674937058240175,4.9605802585935,2.95419171727653,336.617837051505
738332.46373683982528746128,4.98519852290414,2.97880998158717,336.568600522884
738332.46373693027999252081,4.98519852290414,2.96650084943185,336.593218787194
738332.46373702073469758034,5.00981678721478,2.96650084943185,336.617837051505
738332.46373711107298731804,4.99750765505946,2.95419171727653,336.519363994263
738332.46373720152769237757,5.0221259193701,2.95419171727653,336.556291390728
738332.46373729198239743710,5.07136244799137,2.99111911374248,336.433200069175
738332.46373738243710249662,5.07136244799137,3.01573737805312,336.494745729952
738332.46373747289180755615,5.05905331583605,3.01573737805312,336.494745729952
738332.46373756334651261568,5.07136244799137,3.04035564236376,336.470127465641
738332.46373765368480235338,5.03443505152542,3.01573737805312,336.507054862107
738332.46373774413950741291,5.03443505152542,3.01573737805312,336.580909655039
738332.46373783459421247244,4.99750765505946,2.97880998158717,336.60552791935
738332.46373792504891753197,4.94827112643818,2.94188258512121,336.593218787194
738332.46373801550362259150,4.94827112643818,2.94188258512121,336.593218787194
738332.46373810584191232920,4.9605802585935,2.95419171727653,336.531673126418
738332.46373819629661738873,4.97288939074882,2.96650084943185,336.556291390728
738332.46373828675132244825,4.9605802585935,2.95419171727653,336.519363994263
738332.46373837720602750778,4.9605802585935,2.95419171727653,336.507054862107
738332.46373846766073256731,4.98519852290414,2.96650084943185,336.42089093702
738332.46373855799902230501,4.97288939074882,2.97880998158717,336.531673126418
738332.46373864845372736454,4.97288939074882,2.99111911374248,336.593218787194
738332.46373873890843242407,5.04674418368074,3.0034282458978,336.580909655039
738332.46373882936313748360,5.24369029816584,3.24961088900418,336.580909655039
738332.46373891981784254313,5.45294554480626,3.4588661356446,336.42089093702
738332.46373901015613228083,5.57603686635945,3.49579353211056,336.162399161758
738332.46373910061083734035,5.19445376954456,3.01573737805312,336.125471765292
738332.46373919106554239988,4.80056154057436,2.46182643106377,336.21163569038
738332.46373928152024745941,4.75132501195308,2.62184514908292,336.457818333486
738332.46373937197495251894,4.78825240841904,2.8064821314127,336.63014618366
738332.46373946231324225664,4.83748893704032,2.91726432081057,336.802474033835
738332.46373955276794731617,4.91134372997223,2.99111911374248,336.827092298145
738332.46373964322265237570,4.99750765505946,3.05266477451908,336.765546637369
738332.46373973367735743523,5.0221259193701,3.05266477451908,336.691691844437
738332.46373982413206249475,5.04674418368074,3.05266477451908,336.654764447971
738332.46373991447035223246,5.05905331583605,3.04035564236376,336.63014618366
738332.46374000492505729198,5.05905331583605,3.05266477451908,336.642455315816
738332.46374009537976235151,5.05905331583605,3.05266477451908,336.543982258573
738332.46374018583446741104,5.08367158014669,3.0649739066744,336.642455315816
738332.46374027628917247057,5.09598071230201,3.07728303882972,336.654764447971
738332.46374036674387753010,5.10828984445733,3.07728303882972,336.617837051505
738332.46374045708216726780,5.10828984445733,3.07728303882972,336.580909655039
738332.46374054753687232733,5.12059897661265,3.10190130314035,336.593218787194
738332.46374063799157738686,5.15752637307861,3.11421043529567,336.617837051505
738332.46374072844628244638,5.15752637307861,3.12651956745099,336.593218787194
738332.46374081890098750591,5.18214463738924,3.12651956745099,336.617837051505
738332.46374090923927724361,5.20676290169988,3.15113783176163,336.63014618366
738332.46374099969398230314,5.2190720338552,3.17575609607227,336.531673126418
738332.46374109014868736267,5.25599943032116,3.18806522822759,336.580909655039
738332.46374118060339242220,5.28061769463179,3.21268349253822,336.593218787194
738332.46374127105809748173,5.29292682678711,3.23730175684886,336.556291390728
738332.46374136139638721943,5.32985422325307,3.24961088900418,336.556291390728
738332.46374145185109227896,5.32985422325307,3.24961088900418,336.580909655039
738332.46374154230579733849,5.34216335540839,3.24961088900418,336.556291390728
738332.46374163276050239801,5.32985422325307,3.22499262469354,336.494745729952
738332.46374172321520745754,5.31754509109775,3.21268349253822,336.470127465641
738332.46374181355349719524,5.30523595894243,3.16344696391695,336.482436597797
738332.46374190400820225477,5.29292682678711,3.16344696391695,336.494745729952
738332.46374199446290731430,5.25599943032116,3.12651956745099,336.371654408399
738332.46374208491761237383,5.23138116601052,3.10190130314035,336.457818333486
738332.46374217537231743336,5.19445376954456,3.07728303882972,336.457818333486
738332.46374226571060717106,5.16983550523392,3.0649739066744,336.482436597797
738332.46374235616531223059,5.14521724092329,3.04035564236376,336.519363994263
738332.46374244662001729012,5.13290810876797,3.04035564236376,336.519363994263
738332.46374253707472234964,5.12059897661265,3.02804651020844,336.543982258573
738332.46374262752942740917,5.10828984445733,3.02804651020844,336.507054862107
738332.46374271786771714687,5.09598071230201,3.01573737805312,336.580909655039
738332.46374280832242220640,5.08367158014669,3.0034282458978,336.494745729952
738332.46374289877712726593,5.08367158014669,3.0034282458978,336.556291390728
738332.46374298923183232546,5.08367158014669,2.99111911374248,336.519363994263
738332.46374307968653738499,5.09598071230201,3.01573737805312,336.507054862107
738332.46374317014124244452,5.09598071230201,2.99111911374248,336.494745729952
738332.46374326047953218222,5.09598071230201,3.0034282458978,336.482436597797
738332.46374335093423724174,5.10828984445733,3.02804651020844,336.457818333486
738332.46374344138894230127,5.12059897661265,3.02804651020844,336.519363994263
738332.46374353184364736080,5.10828984445733,3.02804651020844,336.507054862107
738332.46374362229835242033,5.12059897661265,3.04035564236376,336.531673126418
738332.46374371263664215803,5.13290810876797,3.05266477451908,336.556291390728
738332.46374380309134721756,5.13290810876797,3.05266477451908,336.531673126418
738332.46374389354605227709,5.12059897661265,3.05266477451908,336.568600522884
738332.46374398400075733662,5.13290810876797,3.05266477451908,336.568600522884
738332.46374407445546239614,5.12059897661265,3.05266477451908,336.519363994263
738332.46374416479375213385,5.13290810876797,3.0649739066744,336.568600522884
738332.46374425524845719337,5.13290810876797,3.0649739066744,336.568600522884
738332.46374434570316225290,5.12059897661265,3.0649739066744,336.543982258573
738332.46374443615786731243,5.13290810876797,3.0649739066744,336.580909655039
738332.46374452661257237196,5.13290810876797,3.0649739066744,336.60552791935
738332.46374461695086210966,5.13290810876797,3.07728303882972,336.63014618366
738332.46374470740556716919,5.12059897661265,3.05266477451908,336.556291390728
738332.46374479786027222872,5.12059897661265,3.05266477451908,336.593218787194
738332.46374488831497728825,5.13290810876797,3.0649739066744,336.580909655039
738332.46374497876968234777,5.12059897661265,3.05266477451908,336.494745729952
738332.46374506910797208548,5.12059897661265,3.05266477451908,336.617837051505
738332.46374515956267714500,5.12059897661265,3.05266477451908,336.617837051505
738332.46374525001738220453,5.12059897661265,3.05266477451908,336.543982258573
738332.46374534047208726406,5.10828984445733,3.04035564236376,336.568600522884
738332.46374543092679232359,5.12059897661265,3.0649739066744,336.371654408399
738332.46374552126508206129,5.10828984445733,3.04035564236376,336.482436597797
738332.46374561171978712082,5.12059897661265,3.05266477451908,336.457818333486
738332.46374570217449218035,5.13290810876797,3.05266477451908,336.60552791935
738332.46374579262919723988,5.12059897661265,3.0649739066744,336.63014618366
738332.46374588308390229940,5.12059897661265,3.05266477451908,336.543982258573
738332.46374597353860735893,5.10828984445733,3.05266477451908,336.593218787194
738332.46374606387689709663,5.10828984445733,3.05266477451908,336.568600522884
738332.46374615433160215616,5.13290810876797,3.0649739066744,336.543982258573
738332.46374624478630721569,5.13290810876797,3.05266477451908,336.519363994263
738332.46374633524101227522,5.12059897661265,3.05266477451908,336.507054862107
738332.46374642569571733475,5.12059897661265,3.05266477451908,336.556291390728
738332.46374651603400707245,5.13290810876797,3.0649739066744,336.531673126418
738332.46374660648871213198,5.13290810876797,3.05266477451908,336.507054862107
738332.46374669694341719151,5.12059897661265,3.04035564236376,336.507054862107
738332.46374678739812225103,5.13290810876797,3.05266477451908,336.556291390728
738332.46374687785282731056,5.13290810876797,3.05266477451908,336.568600522884
738332.46374696819111704826,5.14521724092329,3.0649739066744,336.556291390728
738332.46374705864582210779,5.13290810876797,3.0649739066744,336.63014618366
738332.46374714910052716732,5.14521724092329,3.0649739066744,336.593218787194
738332.46374723955523222685,5.16983550523392,3.0649739066744,336.494745729952
738332.46374733000993728638,5.20676290169988,3.08959217098504,336.531673126418
738332.46374742034822702408,5.20676290169988,3.07728303882972,336.470127465641
738332.46374751080293208361,5.2190720338552,3.07728303882972,336.445509201331
738332.46374760125763714314,5.23138116601052,3.10190130314035,336.470127465641
738332.46374769171234220266,5.23138116601052,3.12651956745099,336.519363994263
738332.46374778216704726219,5.25599943032116,3.16344696391695,336.507054862107
738332.46374787250533699989,5.19445376954456,3.10190130314035,336.531673126418
738332.46374796296004205942,5.16983550523392,3.08959217098504,336.580909655039
738332.46374805341474711895,5.16983550523392,3.08959217098504,336.507054862107
738332.46374814386945217848,5.13290810876797,3.0649739066744,336.60552791935
738332.46374823432415723801,5.12059897661265,3.05266477451908,336.593218787194
738332.46374832466244697571,5.10828984445733,3.04035564236376,336.519363994263
738332.46374841511715203524,5.13290810876797,3.05266477451908,336.568600522884
738332.46374850557185709476,5.12059897661265,3.04035564236376,336.593218787194
738332.46374859602656215429,5.13290810876797,3.05266477451908,336.60552791935
738332.46374868648126721382,5.12059897661265,3.05266477451908,336.482436597797
738332.46374877693597227335,5.10828984445733,3.0649739066744,336.63014618366
738332.46374886727426201105,5.16983550523392,3.07728303882972,336.654764447971
738332.46374895772896707058,5.34216335540839,3.21268349253822,336.383963540554
738332.46374904818367213011,5.50218207342753,3.42193873917865,336.470127465641
738332.46374913863837718964,5.73605558437859,3.54503006073183,336.310108747622
738332.46374922909308224916,5.56372773420413,3.29884741762546,336.223944822535
738332.46374931943137198687,5.31754509109775,3.0034282458978,336.162399161758
738332.46374940988607704639,4.89903459781691,2.52337209184037,336.334727011933
738332.46374950034078210592,4.88672546566159,2.74493647063611,336.568600522884
738332.46374959079548716545,4.91134372997223,2.90495518865525,336.667073580126
738332.46374968125019222498,4.93596199428287,2.97880998158717,336.81478316599
738332.46374977158848196268,5.0221259193701,3.04035564236376,336.81478316599
738332.46374986204318702221,5.15752637307861,3.13882869960631,336.81478316599
738332.46374995249789208174,5.19445376954456,3.15113783176163,336.667073580126
738332.46375004295259714127,5.13290810876797,3.0649739066744,336.60552791935
738332.46375013340730220079,5.15752637307861,3.0649739066744,336.593218787194
738332.46375022374559193850,5.20676290169988,3.11421043529567,336.507054862107
738332.46375031420029699802,5.28061769463179,3.15113783176163,336.568600522884
738332.46375040465500205755,5.16983550523392,3.05266477451908,336.593218787194
738332.46375049510970711708,5.19445376954456,3.07728303882972,336.470127465641
738332.46375058556441217661,5.24369029816584,3.10190130314035,336.556291390728
738332.46375067590270191431,5.26830856247648,3.13882869960631,336.556291390728
738332.46375076635740697384,5.30523595894243,3.15113783176163,336.519363994263
738332.46375085681211203337,5.32985422325307,3.18806522822759,336.470127465641
738332.46375094726681709290,5.35447248756371,3.21268349253822,336.482436597797
738332.46375103772152215242,5.26830856247648,3.11421043529567,336.470127465641
738332.46375112805981189013,5.31754509109775,3.16344696391695,336.470127465641
738332.46375121851451694965,5.40370901618498,3.23730175684886,336.433200069175
738332.46375130896922200918,5.37909075187434,3.20037436038291,336.42089093702
738332.46375139942392706871,5.34216335540839,3.16344696391695,336.470127465641
738332.46375148987863212824,5.4160181483403,3.22499262469354,336.433200069175
738332.46375158033333718777,5.45294554480626,3.23730175684886,336.408581804865
738332.46375167067162692547,5.46525467696158,3.24961088900418,336.42089093702
738332.46375176112633198500,5.48987294127221,3.27422915331482,336.433200069175
738332.46375185158103704453,5.46525467696158,3.23730175684886,336.507054862107
738332.46375194203574210405,5.4160181483403,3.16344696391695,336.408581804865
738332.46375203249044716358,5.4160181483403,3.16344696391695,336.433200069175
738332.46375212282873690128,5.32985422325307,3.10190130314035,336.445509201331
738332.46375221328344196081,5.31754509109775,3.07728303882972,336.494745729952
738332.46375230373814702034,5.34216335540839,3.11421043529567,336.519363994263
738332.46375239419285207987,5.26830856247648,3.0649739066744,336.470127465641
738332.46375248464755713940,5.19445376954456,2.99111911374248,336.297799615467
738332.46375257498584687710,5.19445376954456,3.0034282458978,336.457818333486
738332.46375266544055193663,5.2190720338552,3.01573737805312,336.543982258573
738332.46375275589525699615,5.18214463738924,2.99111911374248,336.531673126418
738332.46375284634996205568,5.19445376954456,3.02804651020844,336.531673126418
738332.46375293680466711521,5.12059897661265,2.95419171727653,336.531673126418
738332.46375302714295685291,5.14521724092329,2.97880998158717,336.568600522884
738332.46375311759766191244,5.18214463738924,3.0034282458978,336.470127465641
738332.46375320805236697197,5.19445376954456,3.01573737805312,336.482436597797
738332.46375329850707203150,5.10828984445733,2.92957345296589,336.568600522884
738332.46375338896177709103,5.10828984445733,2.94188258512121,336.494745729952
738332.46375347930006682873,5.12059897661265,2.95419171727653,336.507054862107
738332.46375356975477188826,5.10828984445733,2.92957345296589,336.593218787194
738332.46375366020947694778,5.16983550523392,2.99111911374248,336.568600522884
738332.46375375066418200731,5.20676290169988,3.01573737805312,336.482436597797
738332.46375384111888706684,5.18214463738924,3.01573737805312,336.543982258573
738332.46375393145717680454,5.20676290169988,3.04035564236376,336.568600522884
738332.46375402191188186407,5.10828984445733,2.92957345296589,336.445509201331
738332.46375411236658692360,5.15752637307861,2.97880998158717,336.556291390728
738332.46375420282129198313,5.18214463738924,3.02804651020844,336.568600522884
738332.46375429327599704266,5.16983550523392,3.0034282458978,336.543982258573
738332.46375438373070210218,5.15752637307861,3.0034282458978,336.494745729952
738332.46375447406899183989,5.2190720338552,3.05266477451908,336.543982258573
738332.46375456452369689941,5.23138116601052,3.08959217098504,336.531673126418
738332.46375465497840195894,5.15752637307861,2.99111911374248,336.445509201331
738332.46375474543310701847,5.09598071230201,2.94188258512121,336.482436597797
738332.46375483588781207800,5.10828984445733,2.95419171727653,336.482436597797
738332.46375492622610181570,5.13290810876797,2.96650084943185,336.494745729952
738332.46375501668080687523,5.14521724092329,2.97880998158717,336.470127465641
738332.46375510713551193476,5.16983550523392,3.0034282458978,336.531673126418
738332.46375519759021699429,5.12059897661265,2.96650084943185,336.507054862107
738332.46375528804492205381,5.14521724092329,2.99111911374248,336.494745729952
738332.46375537838321179152,5.14521724092329,2.97880998158717,336.470127465641
738332.46375546883791685104,5.24369029816584,3.08959217098504,336.494745729952
738332.46375555929262191057,5.10828984445733,2.94188258512121,336.470127465641
738332.46375564974732697010,5.14521724092329,2.99111911374248,336.494745729952
738332.46375574020203202963,5.05905331583605,2.91726432081057,336.482436597797
738332.46375583054032176733,5.15752637307861,3.0034282458978,336.507054862107
738332.46375592099502682686,5.16983550523392,3.02804651020844,336.494745729952
738332.46375601144973188639,5.04674418368074,2.88033692434461,336.383963540554
738332.46375610190443694592,5.09598071230201,2.94188258512121,336.42089093702
738332.46375619235914200544,5.18214463738924,3.04035564236376,336.457818333486
738332.46375628269743174314,5.14521724092329,2.97880998158717,336.494745729952
738332.46375637315213680267,5.18214463738924,3.0034282458978,336.519363994263
738332.46375646360684186220,5.19445376954456,3.0034282458978,336.507054862107
738332.46375655406154692173,5.15752637307861,2.94188258512121,336.445509201331
738332.46375664451625198126,5.24369029816584,3.04035564236376,336.470127465641
738332.46375673485454171896,5.24369029816584,3.04035564236376,336.482436597797
738332.46375682530924677849,5.16983550523392,2.99111911374248,336.482436597797
738332.46375691576395183802,5.18214463738924,3.0034282458978,336.396272672709
738332.46375700621865689754,5.18214463738924,3.01573737805312,336.433200069175
738332.46375709667336195707,5.16983550523392,3.0034282458978,336.42089093702
738332.46375718701165169477,5.19445376954456,3.04035564236376,336.396272672709
738332.46375727746635675430,5.0221259193701,2.89264605649993,336.494745729952
738332.46375736792106181383,5.12059897661265,2.97880998158717,336.568600522884
738332.46375745837576687336,5.03443505152542,2.91726432081057,336.519363994263
738332.46375754883047193289,5.07136244799137,2.95419171727653,336.568600522884
738332.46375763928517699242,5.14521724092329,3.02804651020844,336.617837051505
738332.46375772962346673012,4.99750765505946,2.88033692434461,336.494745729952
738332.46375782007817178965,5.05905331583605,2.94188258512121,336.556291390728
738332.46375791053287684917,5.03443505152542,2.94188258512121,336.593218787194
738332.46375800098758190870,5.0221259193701,2.91726432081057,336.580909655039
738332.46375809144228696823,5.30523595894243,3.08959217098504,336.457818333486
738332.46375818178057670593,5.48987294127221,3.23730175684886,336.531673126418
738332.46375827223528176546,5.68681905575732,3.28653828547014,336.334727011933
738332.46375836268998682499,5.48987294127221,2.96650084943185,336.137780897448
738332.46375845314469188452,4.92365286212755,2.46182643106377,336.23625395469
738332.46375854359939694405,4.71439761548713,2.33873510951058,336.285490483311
738332.46375863393768668175,4.59130629393394,2.51106295968505,336.531673126418
738332.46375872439239174128,4.67747021902117,2.73262733848079,336.642455315816
738332.46375881484709680080,4.89903459781691,2.94188258512121,336.679382712282
738332.46375890530180186033,4.93596199428287,2.97880998158717,336.716310108748
738332.46375899575650691986,4.87441633350627,2.89264605649993,336.753237505214
738332.46375908609479665756,5.04674418368074,3.0034282458978,336.667073580126
738332.46375917654950171709,5.00981678721478,2.94188258512121,336.63014618366
738332.46375926700420677662,5.05905331583605,2.95419171727653,336.580909655039
738332.46375935745891183615,5.09598071230201,2.97880998158717,336.507054862107
738332.46375944791361689568,5.16983550523392,3.05266477451908,336.531673126418
738332.46375953825190663338,5.07136244799137,2.94188258512121,336.371654408399
738332.46375962870661169291,5.12059897661265,2.97880998158717,336.396272672709
738332.46375971916131675243,5.14521724092329,3.0034282458978,336.507054862107
738332.46375980961602181196,5.2190720338552,3.07728303882972,336.507054862107
738332.46375990007072687149,5.14521724092329,3.01573737805312,336.445509201331
738332.46375999040901660919,5.16983550523392,3.02804651020844,336.507054862107
738332.46376008086372166872,5.14521724092329,2.99111911374248,336.507054862107
738332.46376017131842672825,5.16983550523392,3.01573737805312,336.543982258573
738332.46376026177313178778,5.2190720338552,3.05266477451908,336.494745729952
738332.46376035222783684731,5.24369029816584,3.07728303882972,336.494745729952
738332.46376044268254190683,5.25599943032116,3.08959217098504,336.433200069175
738332.46376053302083164454,5.31754509109775,3.13882869960631,336.507054862107
738332.46376062347553670406,5.32985422325307,3.13882869960631,336.445509201331
738332.46376071393024176359,5.39139988402966,3.18806522822759,336.482436597797
738332.46376080438494682312,5.35447248756371,3.15113783176163,336.445509201331
738332.46376089483965188265,5.37909075187434,3.16344696391695,336.408581804865
738332.46376098517794162035,5.37909075187434,3.15113783176163,336.42089093702
738332.46376107563264667988,5.34216335540839,3.11421043529567,336.457818333486
738332.46376116608735173941,5.30523595894243,3.08959217098504,336.519363994263
738332.46376125654205679893,5.30523595894243,3.07728303882972,336.457818333486
738332.46376134699676185846,5.29292682678711,3.0649739066744,336.457818333486
738332.46376143733505159616,5.24369029816584,3.02804651020844,336.507054862107
738332.46376152778975665569,5.15752637307861,2.95419171727653,336.519363994263
738332.46376161824446171522,5.16983550523392,2.97880998158717,336.445509201331
738332.46376170869916677475,5.09598071230201,2.91726432081057,336.519363994263
738332.46376179915387183428,5.08367158014669,2.91726432081057,336.531673126418
738332.46376188949216157198,5.07136244799137,2.90495518865525,336.457818333486
738332.46376197994686663151,5.05905331583605,2.89264605649993,336.42089093702
738332.46376207040157169104,5.05905331583605,2.89264605649993,336.396272672709
738332.46376216085627675056,5.08367158014669,2.91726432081057,336.445509201331
738332.46376225131098181009,5.09598071230201,2.92957345296589,336.42089093702
738332.46376234164927154779,5.10828984445733,2.95419171727653,336.457818333486
738332.46376243210397660732,5.04674418368074,2.88033692434461,336.482436597797
738332.46376252255868166685,4.98519852290414,2.83110039572334,336.457818333486
738332.46376261301338672638,5.00981678721478,2.85571866003398,336.531673126418
738332.46376270346809178591,5.04674418368074,2.89264605649993,336.519363994263
738332.46376279380638152361,5.05905331583605,2.90495518865525,336.531673126418
738332.46376288426108658314,5.05905331583605,2.89264605649993,336.507054862107
738332.46376297471579164267,5.07136244799137,2.91726432081057,336.543982258573
738332.46376306517049670219,5.05905331583605,2.90495518865525,336.445509201331
738332.46376315562520176172,5.09598071230201,2.95419171727653,336.396272672709
738332.46376324607990682125,5.07136244799137,2.89264605649993,336.556291390728
738332.46376333641819655895,5.08367158014669,2.92957345296589,336.531673126418
738332.46376342687290161848,5.09598071230201,2.92957345296589,336.433200069175
738332.46376351732760667801,5.09598071230201,2.94188258512121,336.433200069175
738332.46376360778231173754,5.09598071230201,2.92957345296589,336.482436597797
738332.46376369823701679707,5.08367158014669,2.92957345296589,336.433200069175
