time_dn,ecg_projection_ll_ra_mV,ecg_projection_la_ra_mV,ecg_projection_vx_rl_mV
738388.48784502130001783371,-1.1909085360271,0.840098269600513,-297.302468947417
738388.48784511175472289324,-1.16321298867763,0.821634571367534,-297.311700796533
738388.48784520220942795277,-1.11705374309519,0.895489364299448,-297.32093264565
738388.48784529254771769047,-1.1909085360271,0.784707174901578,-297.284005249184
738388.48784538300242275000,-1.12628559221168,0.821634571367534,-297.302468947417
738388.48784547345712780952,-1.09859004486221,0.830866420484023,-297.274773400067
738388.48784556391183286905,-1.00627155369732,0.904721213415937,-297.274773400067
738388.48784565436653792858,-0.941648609881893,0.913953062532426,-297.265541550951
738388.48784574482124298811,-0.86779381694998,0.987807855464339,-297.284005249184
738388.48784583515953272581,-0.840098269600513,0.960112308114872,-297.228614154485
738388.48784592561423778534,-0.821634571367534,0.97857600634785,-297.284005249184
738388.48784601606894284487,-0.673924985503708,1.04319895016327,-297.237846003601
738388.48784610652364790440,-0.516983550523392,1.1078218939787,-297.200918607135
738388.48784619697835296392,-0.526215399639882,1.06166264839625,-297.191686758019
738388.48784628731664270163,-0.489288003173925,1.1078218939787,-297.191686758019
738388.48784637777134776115,-0.516983550523392,1.08935819574572,-297.173223059786
738388.48784646822605282068,-0.516983550523392,1.07089449751274,-297.200918607135
738388.48784655868075788021,-0.627765739921262,0.997039704580828,-297.210150456252
738388.48784664913546293974,-0.766243476668599,0.913953062532426,-297.265541550951
738388.48784673959016799927,-0.941648609881893,0.858561967833491,-297.339396343883
738388.48784682992845773697,-1.01550340281381,0.821634571367534,-297.339396343883
738388.48784692038316279650,-1.03396710104678,0.840098269600513,-297.376323740348
738388.48784701083786785603,-1.20014038514359,0.793939024018067,-297.376323740348
738388.48784710129257291555,-1.20937223426008,0.821634571367534,-297.394787438581
738388.48784719174727797508,-1.22783593249306,0.784707174901578,-297.357860042116
738388.48784728220198303461,-1.24629963072604,0.784707174901578,-297.404019287698
738388.48784737254027277231,-1.30169072542497,0.729316080202643,-297.413251136814
738388.48784746299497783184,-1.32938627277444,0.729316080202643,-297.404019287698
738388.48784755344968289137,-1.32015442365795,0.738547929319132,-297.431714835047
738388.48784764390438795090,-1.26476332895901,0.766243476668599,-297.394787438581
738388.48784773435909301043,-1.33861812189093,0.710852381969665,-297.394787438581
738388.48784782481379806995,-1.32938627277444,0.738547929319132,-297.394787438581
738388.48784791515208780766,-1.32938627277444,0.738547929319132,-297.237846003601
738388.48784800560679286718,-1.33861812189093,0.766243476668599,-297.348628192999
738388.48784809606149792671,-1.32015442365795,0.75701162755211,-297.385555589465
738388.48784818651620298624,-1.28322702719199,0.747779778435621,-297.385555589465
738388.48784827697090804577,-1.2739951780755,0.784707174901578,-297.404019287698
738388.48784836730919778347,-1.26476332895901,0.803170873134556,-297.357860042116
738388.48784845776390284300,-1.29245887630848,0.803170873134556,-297.404019287698
738388.48784854821860790253,-1.29245887630848,0.75701162755211,-297.413251136814
738388.48784863867331296206,-1.25553147984252,0.784707174901578,-297.440946684164
738388.48784872912801802158,-1.32015442365795,0.738547929319132,-297.404019287698
738388.48784881958272308111,-1.30169072542497,0.775475325785089,-297.404019287698
738388.48784890992101281881,-1.36631366924039,0.710852381969665,-297.422482985931
738388.48784900037571787834,-1.32015442365795,0.75701162755211,-297.413251136814
738388.48784909083042293787,-1.32015442365795,0.75701162755211,-297.45017853328
738388.48784918128512799740,-1.30169072542497,0.747779778435621,-297.385555589465
738388.48784927173983305693,-1.26476332895901,0.830866420484023,-297.348628192999
738388.48784936219453811646,-1.32938627277444,0.766243476668599,-297.32093264565
738388.48784945253282785416,-1.37554551835688,0.710852381969665,-297.357860042116
738388.48784954298753291368,-1.32015442365795,0.766243476668599,-297.357860042116
738388.48784963344223797321,-1.36631366924039,0.720084231086154,-297.376323740348
738388.48784972389694303274,-1.36631366924039,0.747779778435621,-297.385555589465
738388.48784981435164809227,-1.36631366924039,0.75701162755211,-297.385555589465
738388.48784990468993782997,-1.41247291482284,0.692388683736686,-297.367091891232
738388.48784999514464288950,-1.32015442365795,0.793939024018067,-297.348628192999
738388.48785008559934794903,-1.37554551835688,0.738547929319132,-297.394787438581
738388.48785017605405300856,-1.33861812189093,0.766243476668599,-297.431714835047
738388.48785026650875806808,-1.37554551835688,0.729316080202643,-297.376323740348
738388.48785035696346312761,-1.37554551835688,0.747779778435621,-297.376323740348
738388.48785044730175286531,-1.36631366924039,0.75701162755211,-297.385555589465
738388.48785053775645792484,-1.39400921658986,0.766243476668599,-297.367091891232
738388.48785062821116298437,-1.39400921658986,0.738547929319132,-297.431714835047
738388.48785071866586804390,-1.37554551835688,0.747779778435621,-297.385555589465
738388.48785080912057310343,-1.44016846217231,0.710852381969665,-297.404019287698
738388.48785089957527816296,-1.40324106570635,0.738547929319132,-297.404019287698
738388.48785098991356790066,-1.3570818201239,0.775475325785089,-297.413251136814
738388.48785108036827296019,-1.41247291482284,0.683156834620197,-297.376323740348
738388.48785117082297801971,-1.39400921658986,0.738547929319132,-297.422482985931
738388.48785126127768307924,-1.40324106570635,0.75701162755211,-297.431714835047
738388.48785135173238813877,-1.36631366924039,0.775475325785089,-297.459410382397
738388.48785144218709319830,-1.3570818201239,0.75701162755211,-297.265541550951
738388.48785153252538293600,-1.36631366924039,0.747779778435621,-297.385555589465
738388.48785162298008799553,-1.36631366924039,0.720084231086154,-297.47787408063
738388.48785171343479305506,-1.3570818201239,0.75701162755211,-297.422482985931
738388.48785180388949811459,-1.28322702719199,0.793939024018067,-297.422482985931
738388.48785189434420317411,-1.21860408337657,0.803170873134556,-297.459410382397
738388.48785198468249291182,-1.2739951780755,0.75701162755211,-297.385555589465
738388.48785207513719797134,-1.34784997100742,0.710852381969665,-297.487105929746
738388.48785216559190303087,-1.32015442365795,0.747779778435621,-297.459410382397
738388.48785225604660809040,-1.31092257454146,0.747779778435621,-297.440946684164
738388.48785234650131314993,-1.36631366924039,0.75701162755211,-297.440946684164
738388.48785243695601820946,-1.44016846217231,0.729316080202643,-297.422482985931
738388.48785252729430794716,-1.37554551835688,0.803170873134556,-297.45017853328
738388.48785261774901300669,-1.4494003112888,0.710852381969665,-297.404019287698
738388.48785270820371806622,-1.44016846217231,0.729316080202643,-297.487105929746
738388.48785279865842312574,-1.42170476393933,0.738547929319132,-297.440946684164
738388.48785288911312818527,-1.45863216040529,0.729316080202643,-297.47787408063
738388.48785297956783324480,-1.46786400952177,0.747779778435621,-297.45017853328
738388.48785306990612298250,-1.44016846217231,0.75701162755211,-297.440946684164
738388.48785316036082804203,-1.49555955687124,0.683156834620197,-297.431714835047
738388.48785325081553310156,-1.46786400952177,0.720084231086154,-297.440946684164
738388.48785334127023816109,-1.47709585863826,0.692388683736686,-297.468642231513
738388.48785343172494322062,-1.45863216040529,0.710852381969665,-297.468642231513
738388.48785352217964828014,-1.48632770775475,0.738547929319132,-297.404019287698
738388.48785361251793801785,-1.51402325510422,0.821634571367534,-297.440946684164
738388.48785370297264307737,-1.3570818201239,0.821634571367534,-297.413251136814
738388.48785379342734813690,-0.406201361125523,0.941648609881893,-297.154759361553
738388.48785388388205319643,0.913953062532426,0.904721213415937,-296.933194982757
738388.48785397433675825596,1.70789208655049,0.738547929319132,-296.840876491592
738388.48785406467504799366,0.572374645222327,0.720084231086154,-296.868572038942
738388.48785415512975305319,-0.618533890804773,0.636997589037751,-297.256309701834
738388.48785424558445811272,-1.64326914273507,0.664693136387219,-297.459410382397
738388.48785433603916317225,-1.96638386181219,0.581606494338817,-297.422482985931
738388.48785442649386823177,-1.84636982329783,0.590838343455306,-297.394787438581
738388.48785451694857329130,-1.67096469008454,0.627765739921262,-297.367091891232
738388.48785460728686302900,-1.44016846217231,0.720084231086154,-297.339396343883
738388.48785469774156808853,-1.39400921658986,0.720084231086154,-297.357860042116
738388.48785478819627314806,-1.37554551835688,0.738547929319132,-297.348628192999
738388.48785487865097820759,-1.3570818201239,0.766243476668599,-297.339396343883
738388.48785496910568326712,-1.33861812189093,0.775475325785089,-297.256309701834
738388.48785505956038832664,-1.28322702719199,0.812402722251045,-297.265541550951
738388.48785514989867806435,-1.20014038514359,0.858561967833491,-297.348628192999
738388.48785524035338312387,-1.22783593249306,0.840098269600513,-297.376323740348
738388.48785533080808818340,-1.20937223426008,0.830866420484023,-297.376323740348
738388.48785542126279324293,-1.28322702719199,0.75701162755211,-297.376323740348
738388.48785551171749830246,-1.25553147984252,0.766243476668599,-297.394787438581
738388.48785560205578804016,-1.1909085360271,0.803170873134556,-297.404019287698
738388.48785569251049309969,-1.16321298867763,0.803170873134556,-297.311700796533
738388.48785578296519815922,-1.08935819574572,0.895489364299448,-297.385555589465
738388.48785587341990321875,-1.05243079927976,0.86779381694998,-297.367091891232
738388.48785596387460827827,-1.01550340281381,0.877025666066469,-297.348628192999
738388.48785605432931333780,-0.950880458998382,0.932416760765404,-297.348628192999
738388.48785614466760307550,-0.904721213415937,0.950880458998382,-297.348628192999
738388.48785623512230813503,-0.913953062532426,0.904721213415937,-297.339396343883
738388.48785632557701319456,-0.793939024018067,0.987807855464339,-297.2932370983
738388.48785641603171825409,-0.692388683736686,1.00627155369732,-297.302468947417
738388.48785650648642331362,-0.64622943815424,0.97857600634785,-297.274773400067
738388.48785659694112837315,-0.507751701406903,1.07089449751274,-297.200918607135
738388.48785668727941811085,-0.507751701406903,1.05243079927976,-297.228614154485
738388.48785677773412317038,-0.535447248756371,1.01550340281381,-297.256309701834
738388.48785686818882822990,-0.54467909787286,1.00627155369732,-297.191686758019
738388.48785695864353328943,-0.636997589037751,0.987807855464339,-297.256309701834
738388.48785704909823834896,-0.747779778435621,0.941648609881893,-297.274773400067
738388.48785713955294340849,-0.932416760765404,0.858561967833491,-297.302468947417
738388.48785722989123314619,-1.05243079927976,0.830866420484023,-297.32093264565
738388.48785732034593820572,-1.15398113956114,0.821634571367534,-297.367091891232
738388.48785741080064326525,-1.20014038514359,0.766243476668599,-297.284005249184
738388.48785750125534832478,-1.22783593249306,0.75701162755211,-297.330164494766
738388.48785759171005338430,-1.31092257454146,0.747779778435621,-297.32093264565
738388.48785768204834312201,-1.2739951780755,0.803170873134556,-297.348628192999
738388.48785777250304818153,-1.29245887630848,0.75701162755211,-297.330164494766
738388.48785786295775324106,-1.36631366924039,0.710852381969665,-297.348628192999
738388.48785795341245830059,-1.3570818201239,0.710852381969665,-297.357860042116
738388.48785804386716336012,-1.31092257454146,0.729316080202643,-297.339396343883
738388.48785813432186841965,-1.31092257454146,0.766243476668599,-297.367091891232
738388.48785822466015815735,-1.32015442365795,0.738547929319132,-297.348628192999
738388.48785831511486321688,-1.2739951780755,0.766243476668599,-297.348628192999
738388.48785840556956827641,-1.32015442365795,0.775475325785089,-297.376323740348
738388.48785849602427333593,-1.31092257454146,0.784707174901578,-297.274773400067
738388.48785858647897839546,-1.30169072542497,0.747779778435621,-297.247077852718
738388.48785867693368345499,-1.28322702719199,0.766243476668599,-297.357860042116
738388.48785876727197319269,-1.34784997100742,0.747779778435621,-297.376323740348
738388.48785885772667825222,-1.31092257454146,0.747779778435621,-297.404019287698
738388.48785894818138331175,-1.32015442365795,0.729316080202643,-297.339396343883
738388.48785903863608837128,-1.2739951780755,0.75701162755211,-297.357860042116
738388.48785912909079343081,-1.22783593249306,0.793939024018067,-297.330164494766
738388.48785921942908316851,-1.31092257454146,0.784707174901578,-297.348628192999
738388.48785930988378822803,-1.36631366924039,0.720084231086154,-297.2932370983
738388.48785940033849328756,-1.29245887630848,0.775475325785089,-297.311700796533
738388.48785949079319834709,-1.25553147984252,0.793939024018067,-297.311700796533
738388.48785958124790340662,-1.31092257454146,0.720084231086154,-297.367091891232
738388.48785967170260846615,-1.3570818201239,0.738547929319132,-297.376323740348
738388.48785976204089820385,-1.3570818201239,0.747779778435621,-297.339396343883
738388.48785985249560326338,-1.26476332895901,0.784707174901578,-297.376323740348
738388.48785994295030832291,-1.31092257454146,0.738547929319132,-297.385555589465
738388.48786003340501338243,-1.32015442365795,0.793939024018067,-297.422482985931
738388.48786012385971844196,-1.31092257454146,0.793939024018067,-297.413251136814
738388.48786021431442350149,-1.32938627277444,0.747779778435621,-297.413251136814
738388.48786030465271323919,-1.3570818201239,0.738547929319132,-297.431714835047
738388.48786039510741829872,-1.36631366924039,0.75701162755211,-297.422482985931
738388.48786048556212335825,-1.37554551835688,0.720084231086154,-297.385555589465
738388.48786057601682841778,-1.37554551835688,0.710852381969665,-297.459410382397
738388.48786066647153347731,-1.32938627277444,0.729316080202643,-297.404019287698
738388.48786075692623853683,-1.37554551835688,0.766243476668599,-297.431714835047
738388.48786084726452827454,-1.37554551835688,0.766243476668599,-297.413251136814
738388.48786093771923333406,-1.32015442365795,0.784707174901578,-297.413251136814
738388.48786102817393839359,-1.28322702719199,0.821634571367534,-297.422482985931
738388.48786111862864345312,-1.37554551835688,0.710852381969665,-297.385555589465
738388.48786120908334851265,-1.39400921658986,0.738547929319132,-297.459410382397
738388.48786129942163825035,-1.39400921658986,0.747779778435621,-297.440946684164
738388.48786138987634330988,-1.38477736747337,0.729316080202643,-297.376323740348
738388.48786148033104836941,-1.38477736747337,0.729316080202643,-297.404019287698
738388.48786157078575342894,-1.39400921658986,0.720084231086154,-297.459410382397
738388.48786166124045848846,-1.39400921658986,0.720084231086154,-297.385555589465
738388.48786175169516354799,-1.34784997100742,0.766243476668599,-297.394787438581
738388.48786184203345328569,-1.3570818201239,0.775475325785089,-297.431714835047
738388.48786193248815834522,-1.33861812189093,0.784707174901578,-297.422482985931
738388.48786202294286340475,-1.37554551835688,0.729316080202643,-297.302468947417
738388.48786211339756846428,-1.34784997100742,0.747779778435621,-297.311700796533
738388.48786220385227352381,-1.26476332895901,0.784707174901578,-297.404019287698
738388.48786229430697858334,-1.30169072542497,0.720084231086154,-297.348628192999
738388.48786238464526832104,-1.32938627277444,0.747779778435621,-297.431714835047
738388.48786247509997338057,-1.23706778160955,0.766243476668599,-297.348628192999
738388.48786256555467844009,-1.17244483779412,0.793939024018067,-297.367091891232
738388.48786265600938349962,-1.23706778160955,0.784707174901578,-297.32093264565
738388.48786274646408855915,-1.26476332895901,0.784707174901578,-297.367091891232
738388.48786283691879361868,-1.31092257454146,0.747779778435621,-297.311700796533
738388.48786292725708335638,-1.31092257454146,0.803170873134556,-297.330164494766
738388.48786301771178841591,-1.42170476393933,0.729316080202643,-297.357860042116
738388.48786310816649347544,-1.44016846217231,0.710852381969665,-297.32093264565
738388.48786319862119853497,-1.42170476393933,0.720084231086154,-297.330164494766
738388.48786328907590359449,-1.40324106570635,0.75701162755211,-297.376323740348
738388.48786337941419333220,-1.4494003112888,0.710852381969665,-297.348628192999
738388.48786346986889839172,-1.44016846217231,0.738547929319132,-297.394787438581
738388.48786356032360345125,-1.41247291482284,0.75701162755211,-297.357860042116
738388.48786365077830851078,-1.40324106570635,0.766243476668599,-297.367091891232
738388.48786374123301357031,-1.44016846217231,0.747779778435621,-297.357860042116
738388.48786383168771862984,-1.42170476393933,0.701620532853175,-297.376323740348
738388.48786392202600836754,-1.41247291482284,0.75701162755211,-297.422482985931
738388.48786401248071342707,-1.41247291482284,0.766243476668599,-297.330164494766
738388.48786410293541848660,-1.46786400952177,0.738547929319132,-297.357860042116
738388.48786419339012354612,-1.5324869533372,0.747779778435621,-297.348628192999
738388.48786428384482860565,-1.52325510422071,0.766243476668599,-297.385555589465
738388.48786437429953366518,-0.840098269600513,0.840098269600513,-297.200918607135
738388.48786446463782340288,0.276955473494675,0.86779381694998,-297.071672719504
738388.48786455509252846241,1.54171880245369,0.673924985503708,-296.877803888058
738388.48786464554723352194,1.82790612506485,0.729316080202643,-296.730094302194
738388.48786473600193858147,-0.535447248756371,0.636997589037751,-297.256309701834
738388.48786482645664364100,-1.76328318124943,0.590838343455306,-297.487105929746
738388.48786491679493337870,-1.88329721976379,0.526215399639882,-297.413251136814
738388.48786500724963843822,-1.63403729361858,0.664693136387219,-297.413251136814
738388.48786509770434349775,-1.42170476393933,0.701620532853175,-297.376323740348
738388.48786518815904855728,-1.34784997100742,0.738547929319132,-297.404019287698
738388.48786527861375361681,-1.32015442365795,0.784707174901578,-297.32093264565
738388.48786536906845867634,-1.32015442365795,0.784707174901578,-297.348628192999
738388.48786545940674841404,-1.29245887630848,0.775475325785089,-297.404019287698
738388.48786554986145347357,-1.32015442365795,0.729316080202643,-297.357860042116
738388.48786564031615853310,-1.29245887630848,0.793939024018067,-297.228614154485
738388.48786573077086359262,-1.28322702719199,0.766243476668599,-297.348628192999
738388.48786582122556865215,-1.25553147984252,0.812402722251045,-297.367091891232
738388.48786591168027371168,-1.21860408337657,0.821634571367534,-297.311700796533
738388.48786600201856344938,-1.18167668691061,0.858561967833491,-297.348628192999
738388.48786609247326850891,-1.14474929044465,0.86779381694998,-297.311700796533
738388.48786618292797356844,-1.16321298867763,0.830866420484023,-297.302468947417
738388.48786627338267862797,-1.20937223426008,0.803170873134556,-297.2932370983
738388.48786636383738368750,-1.14474929044465,0.849330118717002,-297.330164494766
738388.48786645429208874702,-1.08012634662923,0.86779381694998,-297.284005249184
738388.48786654463037848473,-1.01550340281381,0.886257515182958,-297.274773400067
738388.48786663508508354425,-0.997039704580828,0.904721213415937,-297.2932370983
738388.48786672553978860378,-0.960112308114872,0.913953062532426,-297.302468947417
738388.48786681599449366331,-0.858561967833491,0.923184911648915,-297.284005249184
738388.48786690644919872284,-0.821634571367534,0.969344157231361,-297.265541550951
738388.48786699678748846054,-0.738547929319132,1.00627155369732,-297.228614154485
738388.48786708724219352007,-0.65546128727073,0.987807855464339,-297.182454908902
738388.48786717769689857960,-0.563142796105838,1.05243079927976,-297.210150456252
738388.48786726815160363913,-0.54467909787286,1.05243079927976,-297.163991210669
738388.48786735860630869865,-0.507751701406903,1.06166264839625,-297.163991210669
738388.48786744906101375818,-0.415433210242012,1.07089449751274,-297.173223059786
738388.48786753939930349588,-0.507751701406903,1.00627155369732,-297.200918607135
738388.48786762985400855541,-0.701620532853175,0.923184911648915,-297.247077852718
738388.48786772030871361494,-0.793939024018067,0.941648609881893,-297.311700796533
738388.48786781076341867447,-0.969344157231361,0.849330118717002,-297.348628192999
738388.48786790121812373400,-1.1078218939787,0.803170873134556,-297.367091891232
738388.48786799167282879353,-1.16321298867763,0.775475325785089,-297.330164494766
738388.48786808201111853123,-1.21860408337657,0.747779778435621,-297.376323740348
738388.48786817246582359076,-1.2739951780755,0.766243476668599,-297.394787438581
738388.48786826292052865028,-1.2739951780755,0.766243476668599,-297.32093264565
738388.48786835337523370981,-1.26476332895901,0.747779778435621,-297.385555589465
738388.48786844382993876934,-1.21860408337657,0.821634571367534,-297.385555589465
738388.48786853428464382887,-1.28322702719199,0.784707174901578,-297.348628192999
738388.48786862462293356657,-1.29245887630848,0.766243476668599,-297.394787438581
738388.48786871507763862610,-1.2739951780755,0.75701162755211,-297.385555589465
738388.48786880553234368563,-1.37554551835688,0.701620532853175,-297.357860042116
738388.48786889598704874516,-1.28322702719199,0.784707174901578,-297.376323740348
738388.48786898644175380468,-1.28322702719199,0.738547929319132,-297.404019287698
738388.48786907678004354239,-1.28322702719199,0.75701162755211,-297.348628192999
738388.48786916723474860191,-1.29245887630848,0.766243476668599,-297.228614154485
738388.48786925768945366144,-1.32938627277444,0.75701162755211,-297.394787438581
738388.48786934814415872097,-1.28322702719199,0.766243476668599,-297.376323740348
738388.48786943859886378050,-1.26476332895901,0.784707174901578,-297.394787438581
738388.48786952905356884003,-1.29245887630848,0.766243476668599,-297.376323740348
738388.48786961939185857773,-1.31092257454146,0.738547929319132,-297.404019287698
738388.48786970984656363726,-1.2739951780755,0.75701162755211,-297.413251136814
738388.48786980030126869678,-1.26476332895901,0.793939024018067,-297.311700796533
738388.48786989075597375631,-1.2739951780755,0.775475325785089,-297.330164494766
738388.48786998121067881584,-1.31092257454146,0.747779778435621,-297.311700796533
738388.48787007166538387537,-1.32015442365795,0.775475325785089,-297.311700796533
738388.48787016200367361307,-1.33861812189093,0.701620532853175,-297.330164494766
738388.48787025245837867260,-1.32015442365795,0.747779778435621,-297.385555589465
738388.48787034291308373213,-1.33861812189093,0.738547929319132,-297.302468947417
738388.48787043336778879166,-1.30169072542497,0.766243476668599,-297.367091891232
738388.48787052382249385118,-1.24629963072604,0.803170873134556,-297.339396343883
738388.48787061416078358889,-1.24629963072604,0.840098269600513,-297.339396343883
738388.48787070461548864841,-1.33861812189093,0.738547929319132,-297.311700796533
738388.48787079507019370794,-1.32015442365795,0.766243476668599,-297.413251136814
738388.48787088552489876747,-1.26476332895901,0.793939024018067,-297.302468947417
738388.48787097597960382700,-1.32938627277444,0.729316080202643,-297.367091891232
738388.48787106643430888653,-1.40324106570635,0.701620532853175,-297.348628192999
738388.48787115677259862423,-1.33861812189093,0.75701162755211,-297.330164494766
738388.48787124722730368376,-1.32938627277444,0.747779778435621,-297.339396343883
738388.48787133768200874329,-1.33861812189093,0.738547929319132,-297.302468947417
738388.48787142813671380281,-1.34784997100742,0.775475325785089,-297.376323740348
738388.48787151859141886234,-1.37554551835688,0.729316080202643,-297.367091891232
738388.48787160904612392187,-1.29245887630848,0.793939024018067,-297.376323740348
738388.48787169938441365957,-1.33861812189093,0.747779778435621,-297.357860042116
738388.48787178983911871910,-1.37554551835688,0.720084231086154,-297.404019287698
738388.48787188029382377863,-1.38477736747337,0.729316080202643,-297.413251136814
738388.48787197074852883816,-1.32938627277444,0.784707174901578,-297.339396343883
738388.48787206120323389769,-1.37554551835688,0.710852381969665,-297.385555589465
738388.48787215165793895721,-1.3570818201239,0.766243476668599,-297.394787438581
738388.48787224199622869492,-1.32938627277444,0.793939024018067,-297.348628192999
738388.48787233245093375444,-1.3570818201239,0.75701162755211,-297.385555589465
738388.48787242290563881397,-1.37554551835688,0.720084231086154,-297.367091891232
738388.48787251336034387350,-1.33861812189093,0.784707174901578,-297.394787438581
738388.48787260381504893303,-1.32938627277444,0.775475325785089,-297.228614154485
738388.48787269415333867073,-1.3570818201239,0.738547929319132,-297.302468947417
738388.48787278460804373026,-1.39400921658986,0.720084231086154,-297.385555589465
738388.48787287506274878979,-1.42170476393933,0.710852381969665,-297.431714835047
738388.48787296551745384932,-1.32015442365795,0.75701162755211,-297.413251136814
738388.48787305597215890884,-1.25553147984252,0.775475325785089,-297.367091891232
738388.48787314642686396837,-1.25553147984252,0.775475325785089,-297.45017853328
738388.48787323676515370607,-1.32015442365795,0.720084231086154,-297.413251136814
738388.48787332721985876560,-1.23706778160955,0.75701162755211,-297.385555589465
738388.48787341767456382513,-1.18167668691061,0.793939024018067,-297.422482985931
738388.48787350812926888466,-1.18167668691061,0.812402722251045,-297.413251136814
738388.48787359858397394419,-1.22783593249306,0.803170873134556,-297.330164494766
738388.48787368903867900372,-1.22783593249306,0.803170873134556,-297.413251136814
738388.48787377937696874142,-1.38477736747337,0.747779778435621,-297.413251136814
738388.48787386983167380095,-1.38477736747337,0.766243476668599,-297.376323740348
738388.48787396028637886047,-1.36631366924039,0.75701162755211,-297.394787438581
738388.48787405074108392000,-1.42170476393933,0.701620532853175,-297.422482985931
738388.48787414119578897953,-1.44016846217231,0.720084231086154,-297.404019287698
738388.48787423153407871723,-1.43093661305582,0.729316080202643,-297.376323740348
738388.48787432198878377676,-1.39400921658986,0.747779778435621,-297.422482985931
738388.48787441244348883629,-1.39400921658986,0.766243476668599,-297.422482985931
738388.48787450289819389582,-1.4494003112888,0.747779778435621,-297.376323740348
738388.48787459335289895535,-1.44016846217231,0.701620532853175,-297.385555589465
738388.48787468380760401487,-1.38477736747337,0.75701162755211,-297.431714835047
738388.48787477414589375257,-1.38477736747337,0.75701162755211,-297.2932370983
738388.48787486460059881210,-1.42170476393933,0.75701162755211,-297.367091891232
738388.48787495505530387163,-1.4494003112888,0.738547929319132,-297.32093264565
738388.48787504551000893116,-1.45863216040529,0.803170873134556,-297.367091891232
738388.48787513596471399069,-1.44016846217231,0.812402722251045,-297.376323740348
738388.48787522641941905022,-0.720084231086154,0.886257515182958,-297.256309701834
738388.48787531675770878792,0.350810266426588,0.858561967833491,-297.016281624805
738388.48787540721241384745,1.57864619891964,0.636997589037751,-296.859340189825
738388.48787549766711890697,1.57864619891964,0.692388683736686,-296.76702169866
738388.48787558812182396650,-0.766243476668599,0.627765739921262,-297.237846003601
738388.48787567857652902603,-1.8740653706473,0.516983550523392,-297.394787438581
738388.48787576903123408556,-1.83713797418134,0.553910946989349,-297.32093264565
738388.48787585936952382326,-1.58787804803613,0.65546128727073,-297.348628192999
738388.48787594982422888279,-1.32015442365795,0.766243476668599,-297.302468947417
738388.48787604027893394232,-1.31092257454146,0.775475325785089,-297.330164494766
738388.48787613073363900185,-1.32015442365795,0.747779778435621,-297.163991210669
738388.48787622118834406137,-1.31092257454146,0.75701162755211,-297.284005249184
738388.48787631152663379908,-1.25553147984252,0.812402722251045,-297.357860042116
738388.48787640198133885860,-1.23706778160955,0.830866420484023,-297.367091891232
738388.48787649243604391813,-1.26476332895901,0.793939024018067,-297.302468947417
738388.48787658289074897766,-1.23706778160955,0.821634571367534,-297.348628192999
738388.48787667334545403719,-1.26476332895901,0.784707174901578,-297.376323740348
738388.48787676380015909672,-1.23706778160955,0.766243476668599,-297.385555589465
738388.48787685413844883442,-1.20014038514359,0.812402722251045,-297.348628192999
738388.48787694459315389395,-1.18167668691061,0.840098269600513,-297.357860042116
738388.48787703504785895348,-1.16321298867763,0.86779381694998,-297.367091891232
738388.48787712550256401300,-1.1078218939787,0.86779381694998,-297.339396343883
738388.48787721595726907253,-1.07089449751274,0.895489364299448,-297.339396343883
738388.48787730641197413206,-1.06166264839625,0.886257515182958,-297.32093264565
738388.48787739675026386976,-1.06166264839625,0.858561967833491,-297.32093264565
738388.48787748720496892929,-1.0247352519303,0.840098269600513,-297.274773400067
738388.48787757765967398882,-0.950880458998382,0.941648609881893,-297.339396343883
738388.48787766811437904835,-0.877025666066469,0.950880458998382,-297.330164494766
738388.48787775856908410788,-0.766243476668599,0.987807855464339,-297.228614154485
738388.48787784902378916740,-0.692388683736686,0.987807855464339,-297.228614154485
738388.48787793936207890511,-0.590838343455306,1.08935819574572,-297.247077852718
738388.48787802981678396463,-0.526215399639882,1.08012634662923,-297.228614154485
738388.48787812027148902416,-0.507751701406903,1.08935819574572,-297.219382305368
738388.48787821072619408369,-0.443128757591479,1.09859004486221,-297.228614154485
738388.48787830118089914322,-0.507751701406903,1.01550340281381,-297.256309701834
738388.48787839151918888092,-0.64622943815424,0.923184911648915,-297.228614154485
738388.48787848197389394045,-0.720084231086154,0.904721213415937,-297.228614154485
738388.48787857242859899998,-0.849330118717002,0.886257515182958,-297.330164494766
738388.48787866288330405951,-0.969344157231361,0.840098269600513,-297.357860042116
738388.48787875333800911903,-1.04319895016327,0.830866420484023,-297.330164494766
738388.48787884379271417856,-1.12628559221168,0.803170873134556,-297.385555589465
738388.48787893413100391626,-1.20014038514359,0.766243476668599,-297.237846003601
738388.48787902458570897579,-1.20937223426008,0.821634571367534,-297.2932370983
738388.48787911504041403532,-1.20937223426008,0.840098269600513,-297.32093264565
738388.48787920549511909485,-1.32015442365795,0.692388683736686,-297.311700796533
738388.48787929594982415438,-1.30169072542497,0.729316080202643,-297.339396343883
738388.48787938640452921391,-1.31092257454146,0.738547929319132,-297.32093264565
738388.48787947674281895161,-1.30169072542497,0.738547929319132,-297.376323740348
738388.48787956719752401114,-1.23706778160955,0.793939024018067,-297.284005249184
738388.48787965765222907066,-1.26476332895901,0.793939024018067,-297.163991210669
738388.48787974810693413019,-1.31092257454146,0.75701162755211,-297.265541550951
738388.48787983856163918972,-1.31092257454146,0.75701162755211,-297.330164494766
738388.48787992889992892742,-1.26476332895901,0.784707174901578,-297.311700796533
738388.48788001935463398695,-1.29245887630848,0.738547929319132,-297.330164494766
738388.48788010980933904648,-1.30169072542497,0.729316080202643,-297.32093264565
738388.48788020026404410601,-1.31092257454146,0.738547929319132,-297.339396343883
738388.48788029071874916553,-1.24629963072604,0.830866420484023,-297.357860042116
738388.48788038117345422506,-1.25553147984252,0.793939024018067,-297.367091891232
738388.48788047151174396276,-1.28322702719199,0.75701162755211,-297.385555589465
738388.48788056196644902229,-1.24629963072604,0.803170873134556,-297.367091891232
738388.48788065242115408182,-1.24629963072604,0.793939024018067,-297.385555589465
738388.48788074287585914135,-1.24629963072604,0.784707174901578,-297.348628192999
738388.48788083333056420088,-1.36631366924039,0.720084231086154,-297.376323740348
738388.48788092378526926041,-1.37554551835688,0.701620532853175,-297.330164494766
738388.48788101412355899811,-1.32938627277444,0.729316080202643,-297.385555589465
738388.48788110457826405764,-1.28322702719199,0.775475325785089,-297.394787438581
738388.48788119503296911716,-1.30169072542497,0.75701162755211,-297.385555589465
738388.48788128548767417669,-1.2739951780755,0.775475325785089,-297.385555589465
738388.48788137594237923622,-1.25553147984252,0.775475325785089,-297.422482985931
738388.48788146639708429575,-1.32015442365795,0.738547929319132,-297.404019287698
738388.48788155673537403345,-1.29245887630848,0.75701162755211,-297.32093264565
738388.48788164719007909298,-1.23706778160955,0.86779381694998,-297.422482985931
738388.48788173764478415251,-1.3570818201239,0.729316080202643,-297.394787438581
738388.48788182809948921204,-1.36631366924039,0.720084231086154,-297.348628192999
738388.48788191855419427156,-1.3570818201239,0.710852381969665,-297.394787438581
738388.48788200889248400927,-1.3570818201239,0.738547929319132,-297.404019287698
738388.48788209934718906879,-1.33861812189093,0.75701162755211,-297.367091891232
738388.48788218980189412832,-1.33861812189093,0.747779778435621,-297.376323740348
738388.48788228025659918785,-1.34784997100742,0.747779778435621,-297.394787438581
738388.48788237071130424738,-1.2739951780755,0.803170873134556,-297.394787438581
738388.48788246116600930691,-1.32938627277444,0.738547929319132,-297.394787438581
738388.48788255150429904461,-1.37554551835688,0.747779778435621,-297.376323740348
738388.48788264195900410414,-1.39400921658986,0.738547929319132,-297.357860042116
738388.48788273241370916367,-1.37554551835688,0.738547929319132,-297.348628192999
738388.48788282286841422319,-1.36631366924039,0.729316080202643,-297.385555589465
738388.48788291332311928272,-1.3570818201239,0.738547929319132,-297.330164494766
738388.48788300377782434225,-1.3570818201239,0.738547929319132,-297.367091891232
738388.48788309411611407995,-1.37554551835688,0.729316080202643,-297.385555589465
738388.48788318457081913948,-1.34784997100742,0.747779778435621,-297.210150456252
738388.48788327502552419901,-1.29245887630848,0.812402722251045,-297.284005249184
738388.48788336548022925854,-1.33861812189093,0.793939024018067,-297.394787438581
738388.48788345593493431807,-1.43093661305582,0.673924985503708,-297.385555589465
738388.48788354638963937759,-1.39400921658986,0.729316080202643,-297.394787438581
738388.48788363672792911530,-1.39400921658986,0.710852381969665,-297.367091891232
738388.48788372718263417482,-1.37554551835688,0.766243476668599,-297.413251136814
738388.48788381763733923435,-1.3570818201239,0.747779778435621,-297.339396343883
738388.48788390809204429388,-1.38477736747337,0.738547929319132,-297.422482985931
738388.48788399854674935341,-1.34784997100742,0.75701162755211,-297.394787438581
738388.48788408888503909111,-1.32938627277444,0.747779778435621,-297.413251136814
738388.48788417933974415064,-1.32015442365795,0.738547929319132,-297.45017853328
738388.48788426979444921017,-1.31092257454146,0.720084231086154,-297.404019287698
738388.48788436024915426970,-1.30169072542497,0.766243476668599,-297.440946684164
738388.48788445070385932922,-1.28322702719199,0.747779778435621,-297.404019287698
738388.48788454115856438875,-1.18167668691061,0.803170873134556,-297.367091891232
738388.48788463149685412645,-1.20937223426008,0.793939024018067,-297.339396343883
738388.48788472195155918598,-1.2739951780755,0.75701162755211,-297.339396343883
738388.48788481240626424551,-1.29245887630848,0.766243476668599,-297.339396343883
738388.48788490286096930504,-1.30169072542497,0.775475325785089,-297.385555589465
738388.48788499331567436457,-1.39400921658986,0.747779778435621,-297.367091891232
738388.48788508377037942410,-1.39400921658986,0.738547929319132,-297.413251136814
738388.48788517410866916180,-1.39400921658986,0.720084231086154,-297.376323740348
738388.48788526456337422132,-1.43093661305582,0.747779778435621,-297.404019287698
738388.48788535501807928085,-1.42170476393933,0.766243476668599,-297.394787438581
738388.48788544547278434038,-1.42170476393933,0.747779778435621,-297.413251136814
738388.48788553592748939991,-1.41247291482284,0.710852381969665,-297.376323740348
738388.48788562626577913761,-1.50479140598773,0.701620532853175,-297.45017853328
738388.48788571672048419714,-1.46786400952177,0.710852381969665,-297.422482985931
738388.48788580717518925667,-1.34784997100742,0.812402722251045,-297.348628192999
738388.48788589762989431620,-1.42170476393933,0.747779778435621,-297.404019287698
738388.48788598808459937572,-1.45863216040529,0.701620532853175,-297.431714835047
738388.48788607853930443525,-1.43093661305582,0.747779778435621,-297.431714835047
738388.48788616887759417295,-1.54171880245369,0.720084231086154,-297.385555589465
738388.48788625933229923248,-1.56941434980316,0.747779778435621,-297.47787408063
738388.48788634978700429201,-1.12628559221168,0.830866420484023,-297.348628192999
738388.48788644024170935154,0.00923184911648915,0.987807855464339,-297.071672719504
738388.48788653069641441107,1.23706778160955,0.803170873134556,-296.942426831873
738388.48788662115111947060,1.73558763389996,0.683156834620197,-296.840876491592
738388.48788671148940920830,-0.0276955473494674,0.720084231086154,-297.080904568621
738388.48788680194411426783,-1.58787804803613,0.636997589037751,-297.404019287698
738388.48788689239881932735,-1.94792016357921,0.54467909787286,-297.487105929746
738388.48788698285352438688,-1.82790612506485,0.563142796105838,-297.404019287698
738388.48788707330822944641,-1.6155735953856,0.673924985503708,-297.413251136814
738388.48788716376293450594,-1.45863216040529,0.692388683736686,-297.385555589465
738388.48788725410122424364,-1.38477736747337,0.738547929319132,-297.330164494766
738388.48788734455592930317,-1.30169072542497,0.793939024018067,-297.330164494766
738388.48788743501063436270,-1.30169072542497,0.840098269600513,-297.413251136814
738388.48788752546533942223,-1.2739951780755,0.830866420484023,-297.385555589465
738388.48788761592004448175,-1.32938627277444,0.75701162755211,-297.311700796533
738388.48788770625833421946,-1.32938627277444,0.75701162755211,-297.311700796533
738388.48788779671303927898,-1.28322702719199,0.793939024018067,-297.311700796533
738388.48788788716774433851,-1.2739951780755,0.784707174901578,-297.330164494766
738388.48788797762244939804,-1.26476332895901,0.784707174901578,-297.311700796533
738388.48788806807715445757,-1.26476332895901,0.812402722251045,-297.311700796533
738388.48788815853185951710,-1.20937223426008,0.830866420484023,-297.311700796533
738388.48788824887014925480,-1.1909085360271,0.803170873134556,-297.265541550951
738388.48788833932485431433,-1.15398113956114,0.830866420484023,-297.265541550951
738388.48788842977955937386,-1.1078218939787,0.923184911648915,-297.32093264565
738388.48788852023426443338,-1.09859004486221,0.886257515182958,-297.2932370983
738388.48788861068896949291,-1.05243079927976,0.886257515182958,-297.339396343883
738388.48788870114367455244,-1.04319895016327,0.849330118717002,-297.339396343883
738388.48788879148196429014,-0.895489364299448,0.932416760765404,-297.256309701834
738388.48788888193666934967,-0.821634571367534,0.969344157231361,-297.247077852718
738388.48788897239137440920,-0.793939024018067,1.00627155369732,-297.265541550951
738388.48788906284607946873,-0.683156834620197,1.05243079927976,-297.219382305368
738388.48788915330078452826,-0.600070192571795,1.08012634662923,-297.182454908902
738388.48788924363907426596,-0.553910946989349,1.05243079927976,-297.200918607135
738388.48788933409377932549,-0.535447248756371,1.05243079927976,-297.191686758019
738388.48788942454848438501,-0.480056154057436,1.09859004486221,-297.182454908902
738388.48788951500318944454,-0.609302041688284,1.00627155369732,-297.274773400067
738388.48788960545789450407,-0.75701162755211,0.923184911648915,-297.256309701834
738388.48788969591259956360,-0.950880458998382,0.849330118717002,-297.265541550951
738388.48788978625088930130,-1.0247352519303,0.830866420484023,-297.367091891232
738388.48788987670559436083,-1.07089449751274,0.803170873134556,-297.385555589465
738388.48788996716029942036,-1.1909085360271,0.821634571367534,-297.385555589465
738388.48789005761500447989,-1.26476332895901,0.784707174901578,-297.404019287698
738388.48789014806970953941,-1.22783593249306,0.840098269600513,-297.422482985931
738388.48789023852441459894,-1.36631366924039,0.738547929319132,-297.32093264565
738388.48789032886270433664,-1.34784997100742,0.75701162755211,-297.330164494766
738388.48789041931740939617,-1.32938627277444,0.766243476668599,-297.413251136814
738388.48789050977211445570,-1.34784997100742,0.775475325785089,-297.45017853328
738388.48789060022681951523,-1.3570818201239,0.75701162755211,-297.394787438581
738388.48789069068152457476,-1.37554551835688,0.747779778435621,-297.440946684164
738388.48789078113622963428,-1.43093661305582,0.710852381969665,-297.422482985931
738388.48789087147451937199,-1.44016846217231,0.701620532853175,-297.394787438581
738388.48789096192922443151,-1.42170476393933,0.720084231086154,-297.459410382397
738388.48789105238392949104,-1.36631366924039,0.75701162755211,-297.440946684164
738388.48789114283863455057,-1.2739951780755,0.849330118717002,-297.367091891232
738388.48789123329333961010,-1.30169072542497,0.830866420484023,-297.348628192999
738388.48789132363162934780,-1.42170476393933,0.720084231086154,-297.385555589465
738388.48789141408633440733,-1.42170476393933,0.692388683736686,-297.422482985931
738388.48789150454103946686,-1.41247291482284,0.701620532853175,-297.431714835047
738388.48789159499574452639,-1.40324106570635,0.729316080202643,-297.422482985931
738388.48789168545044958591,-1.38477736747337,0.747779778435621,-297.413251136814
738388.48789177590515464544,-1.34784997100742,0.766243476668599,-297.422482985931
738388.48789186624344438314,-1.22783593249306,0.886257515182958,-297.404019287698
738388.48789195669814944267,-1.3570818201239,0.729316080202643,-297.348628192999
738388.48789204715285450220,-1.41247291482284,0.720084231086154,-297.367091891232
738388.48789213760755956173,-1.40324106570635,0.747779778435621,-297.348628192999
738388.48789222806226462126,-1.37554551835688,0.75701162755211,-297.357860042116
738388.48789231851696968079,-1.37554551835688,0.738547929319132,-297.385555589465
738388.48789240885525941849,-1.41247291482284,0.738547929319132,-297.413251136814
738388.48789249930996447802,-1.41247291482284,0.729316080202643,-297.348628192999
738388.48789258976466953754,-1.38477736747337,0.738547929319132,-297.357860042116
738388.48789268021937459707,-1.37554551835688,0.766243476668599,-297.394787438581
738388.48789277067407965660,-1.37554551835688,0.784707174901578,-297.385555589465
738388.48789286112878471613,-1.42170476393933,0.729316080202643,-297.376323740348
738388.48789295146707445383,-1.45863216040529,0.701620532853175,-297.394787438581
738388.48789304192177951336,-1.39400921658986,0.766243476668599,-297.431714835047
738388.48789313237648457289,-1.43093661305582,0.729316080202643,-297.413251136814
738388.48789322283118963242,-1.42170476393933,0.720084231086154,-297.367091891232
738388.48789331328589469194,-1.44016846217231,0.701620532853175,-297.394787438581
738388.48789340362418442965,-1.42170476393933,0.75701162755211,-297.376323740348
738388.48789349407888948917,-1.44016846217231,0.738547929319132,-297.367091891232
738388.48789358453359454870,-1.43093661305582,0.738547929319132,-297.330164494766
738388.48789367498829960823,-1.44016846217231,0.738547929319132,-297.357860042116
738388.48789376544300466776,-1.46786400952177,0.720084231086154,-297.32093264565
738388.48789385589770972729,-1.41247291482284,0.75701162755211,-297.274773400067
738388.48789394623599946499,-1.42170476393933,0.738547929319132,-297.422482985931
738388.48789403669070452452,-1.39400921658986,0.75701162755211,-297.394787438581
738388.48789412714540958405,-1.41247291482284,0.738547929319132,-297.440946684164
738388.48789421760011464357,-1.46786400952177,0.720084231086154,-297.47787408063
738388.48789430805481970310,-1.4494003112888,0.701620532853175,-297.385555589465
738388.48789439850952476263,-1.45863216040529,0.738547929319132,-297.431714835047
738388.48789448884781450033,-1.44016846217231,0.747779778435621,-297.431714835047
738388.48789457930251955986,-1.37554551835688,0.747779778435621,-297.413251136814
738388.48789466975722461939,-1.36631366924039,0.738547929319132,-297.459410382397
738388.48789476021192967892,-1.3570818201239,0.747779778435621,-297.468642231513
738388.48789485066663473845,-1.38477736747337,0.729316080202643,-297.404019287698
738388.48789494100492447615,-1.32015442365795,0.729316080202643,-297.45017853328
738388.48789503145962953568,-1.2739951780755,0.766243476668599,-297.440946684164
738388.48789512191433459520,-1.28322702719199,0.821634571367534,-297.468642231513
738388.48789521236903965473,-1.23706778160955,0.849330118717002,-297.394787438581
738388.48789530282374471426,-1.37554551835688,0.729316080202643,-297.45017853328
738388.48789539327844977379,-1.4494003112888,0.692388683736686,-297.459410382397
738388.48789548361673951149,-1.47709585863826,0.701620532853175,-297.302468947417
738388.48789557407144457102,-1.48632770775475,0.729316080202643,-297.357860042116
738388.48789566452614963055,-1.48632770775475,0.692388683736686,-297.357860042116
738388.48789575498085469007,-1.43093661305582,0.775475325785089,-297.357860042116
738388.48789584543555974960,-1.55095065157018,0.683156834620197,-297.385555589465
738388.48789593589026480913,-1.48632770775475,0.738547929319132,-297.422482985931
738388.48789602622855454683,-1.51402325510422,0.701620532853175,-297.394787438581
738388.48789611668325960636,-1.51402325510422,0.701620532853175,-297.413251136814
738388.48789620713796466589,-1.51402325510422,0.692388683736686,-297.422482985931
738388.48789629759266972542,-1.46786400952177,0.747779778435621,-297.404019287698
738388.48789638804737478495,-1.44016846217231,0.738547929319132,-297.422482985931
738388.48789647850207984447,-1.44016846217231,0.75701162755211,-297.413251136814
738388.48789656884036958218,-1.56941434980316,0.701620532853175,-297.413251136814
738388.48789665929507464170,-1.59710989715262,0.738547929319132,-297.422482985931
738388.48789674974977970123,-1.40324106570635,0.821634571367534,-297.348628192999
738388.48789684020448476076,-0.461592455824458,0.997039704580828,-297.182454908902
738388.48789693065918982029,0.75701162755211,0.877025666066469,-296.979354228339
738388.48789702099747955799,1.65250099185156,0.692388683736686,-296.850108340709
738388.48789711145218461752,0.710852381969665,0.692388683736686,-297.025513473922
738388.48789720190688967705,-1.43093661305582,0.563142796105838,-297.219382305368
738388.48789729236159473658,-1.78174687948241,0.54467909787286,-297.514801477096
738388.48789738281629979610,-1.99407940916166,0.535447248756371,-297.32093264565
738388.48789747327100485563,-1.7909787285989,0.636997589037751,-297.404019287698
738388.48789756360929459333,-1.63403729361858,0.609302041688284,-297.413251136814
738388.48789765406399965286,-1.41247291482284,0.710852381969665,-297.376323740348
738388.48789774451870471239,-1.38477736747337,0.75701162755211,-297.357860042116
738388.48789783497340977192,-1.39400921658986,0.766243476668599,-297.394787438581
738388.48789792542811483145,-1.32015442365795,0.803170873134556,-297.413251136814
738388.48789801588281989098,-1.3570818201239,0.75701162755211,-297.431714835047
738388.48789810622110962868,-1.34784997100742,0.747779778435621,-297.367091891232
738388.48789819667581468821,-1.38477736747337,0.738547929319132,-297.422482985931
738388.48789828713051974773,-1.32938627277444,0.75701162755211,-297.404019287698
738388.48789837758522480726,-1.1909085360271,0.86779381694998,-297.45017853328
738388.48789846803992986679,-1.21860408337657,0.830866420484023,-297.357860042116
738388.48789855849463492632,-1.20014038514359,0.840098269600513,-297.385555589465
738388.48789864883292466402,-1.1909085360271,0.858561967833491,-297.394787438581
738388.48789873928762972355,-1.26476332895901,0.75701162755211,-297.367091891232
738388.48789882974233478308,-1.17244483779412,0.821634571367534,-297.348628192999
738388.48789892019703984261,-1.05243079927976,0.913953062532426,-297.274773400067
738388.48789901065174490213,-1.06166264839625,0.886257515182958,-297.265541550951
738388.48789910099003463984,-1.11705374309519,0.812402722251045,-297.228614154485
738388.48789919144473969936,-0.97857600634785,0.886257515182958,-297.274773400067
738388.48789928189944475889,-0.895489364299448,0.941648609881893,-297.228614154485
738388.48789937235414981842,-0.830866420484023,1.01550340281381,-297.237846003601
738388.48789946280885487795,-0.775475325785089,1.00627155369732,-297.256309701834
738388.48789955326355993748,-0.738547929319132,0.97857600634785,-297.274773400067
738388.48789964360184967518,-0.600070192571795,1.05243079927976,-297.256309701834
738388.48789973405655473471,-0.553910946989349,1.08012634662923,-297.173223059786
738388.48789982451125979424,-0.516983550523392,1.05243079927976,-297.219382305368
738388.48789991496596485376,-0.54467909787286,1.00627155369732,-297.265541550951
738388.48790000542066991329,-0.701620532853175,0.960112308114872,-297.247077852718
738388.48790009587537497282,-0.821634571367534,0.886257515182958,-297.2932370983
738388.48790018621366471052,-0.886257515182958,0.895489364299448,-297.348628192999
738388.48790027666836977005,-1.00627155369732,0.886257515182958,-297.394787438581
738388.48790036712307482958,-1.24629963072604,0.747779778435621,-297.357860042116
738388.48790045757777988911,-1.2739951780755,0.729316080202643,-297.376323740348
738388.48790054803248494864,-1.30169072542497,0.747779778435621,-297.413251136814
738388.48790063837077468634,-1.30169072542497,0.738547929319132,-297.404019287698
738388.48790072882547974586,-1.29245887630848,0.775475325785089,-297.357860042116
738388.48790081928018480539,-1.32938627277444,0.720084231086154,-297.210150456252
738388.48790090973488986492,-1.33861812189093,0.75701162755211,-297.394787438581
738388.48790100018959492445,-1.34784997100742,0.720084231086154,-297.385555589465
738388.48790109064429998398,-1.31092257454146,0.784707174901578,-297.357860042116
738388.48790118098258972168,-1.32015442365795,0.775475325785089,-297.376323740348
738388.48790127143729478121,-1.3570818201239,0.747779778435621,-297.413251136814
738388.48790136189199984074,-1.37554551835688,0.701620532853175,-297.431714835047
738388.48790145234670490026,-1.40324106570635,0.692388683736686,-297.357860042116
738388.48790154280140995979,-1.38477736747337,0.720084231086154,-297.385555589465
738388.48790163325611501932,-1.32015442365795,0.729316080202643,-297.376323740348
738388.48790172359440475702,-1.33861812189093,0.729316080202643,-297.385555589465
738388.48790181404910981655,-1.3570818201239,0.738547929319132,-297.348628192999
738388.48790190450381487608,-1.2739951780755,0.812402722251045,-297.367091891232
738388.48790199495851993561,-1.24629963072604,0.803170873134556,-297.348628192999
738388.48790208541322499514,-1.34784997100742,0.710852381969665,-297.394787438581
738388.48790217586793005466,-1.3570818201239,0.738547929319132,-297.385555589465
738388.48790226620621979237,-1.29245887630848,0.784707174901578,-297.431714835047
738388.48790235666092485189,-1.31092257454146,0.729316080202643,-297.394787438581
738388.48790244711562991142,-1.32938627277444,0.784707174901578,-297.422482985931
738388.48790253757033497095,-1.3570818201239,0.720084231086154,-297.394787438581
738388.48790262802504003048,-1.34784997100742,0.710852381969665,-297.45017853328
738388.48790271836332976818,-1.34784997100742,0.738547929319132,-297.404019287698
738388.48790280881803482771,-1.2739951780755,0.821634571367534,-297.413251136814
738388.48790289927273988724,-1.31092257454146,0.793939024018067,-297.422482985931
738388.48790298972744494677,-1.3570818201239,0.720084231086154,-297.404019287698
738388.48790308018215000629,-1.32015442365795,0.775475325785089,-297.440946684164
738388.48790317063685506582,-1.38477736747337,0.738547929319132,-297.376323740348
738388.48790326097514480352,-1.33861812189093,0.775475325785089,-297.45017853328
738388.48790335142984986305,-1.42170476393933,0.664693136387219,-297.45017853328
738388.48790344188455492258,-1.38477736747337,0.720084231086154,-297.367091891232
738388.48790353233925998211,-1.33861812189093,0.766243476668599,-297.413251136814
738388.48790362279396504164,-1.32015442365795,0.784707174901578,-297.440946684164
738388.48790371324867010117,-1.31092257454146,0.775475325785089,-297.311700796533
738388.48790380358695983887,-1.40324106570635,0.747779778435621,-297.376323740348
738388.48790389404166489840,-1.40324106570635,0.729316080202643,-297.348628192999
738388.48790398449636995792,-1.39400921658986,0.729316080202643,-297.357860042116
738388.48790407495107501745,-1.44016846217231,0.673924985503708,-297.339396343883
738388.48790416540578007698,-1.37554551835688,0.75701162755211,-297.367091891232
738388.48790425574406981468,-1.40324106570635,0.701620532853175,-297.348628192999
738388.48790434619877487421,-1.42170476393933,0.729316080202643,-297.219382305368
738388.48790443665347993374,-1.32938627277444,0.793939024018067,-297.256309701834
738388.48790452710818499327,-1.31092257454146,0.803170873134556,-297.385555589465
738388.48790461756289005280,-1.40324106570635,0.729316080202643,-297.376323740348
738388.48790470801759511232,-1.42170476393933,0.710852381969665,-297.413251136814
738388.48790479835588485003,-1.44016846217231,0.729316080202643,-297.431714835047
738388.48790488881058990955,-1.48632770775475,0.664693136387219,-297.404019287698
738388.48790497926529496908,-1.44016846217231,0.701620532853175,-297.385555589465
738388.48790506972000002861,-1.43093661305582,0.683156834620197,-297.394787438581
738388.48790516017470508814,-1.31092257454146,0.775475325785089,-297.404019287698
738388.48790525062941014767,-1.31092257454146,0.75701162755211,-297.45017853328
738388.48790534096769988537,-1.21860408337657,0.830866420484023,-297.376323740348
738388.48790543142240494490,-1.28322702719199,0.775475325785089,-297.394787438581
738388.48790552187711000443,-1.32938627277444,0.692388683736686,-297.385555589465
738388.48790561233181506395,-1.26476332895901,0.75701162755211,-297.394787438581
738388.48790570278652012348,-1.2739951780755,0.766243476668599,-297.394787438581
738388.48790579324122518301,-1.2739951780755,0.747779778435621,-297.440946684164
738388.48790588357951492071,-1.33861812189093,0.75701162755211,-297.440946684164
738388.48790597403421998024,-1.37554551835688,0.738547929319132,-297.348628192999
738388.48790606448892503977,-1.36631366924039,0.775475325785089,-297.394787438581
738388.48790615494363009930,-1.4494003112888,0.701620532853175,-297.45017853328
738388.48790624539833515882,-1.44016846217231,0.664693136387219,-297.431714835047
738388.48790633573662489653,-1.49555955687124,0.710852381969665,-297.431714835047
738388.48790642619132995605,-1.46786400952177,0.738547929319132,-297.413251136814
738388.48790651664603501558,-1.40324106570635,0.747779778435621,-297.413251136814
738388.48790660710074007511,-1.42170476393933,0.720084231086154,-297.376323740348
738388.48790669755544513464,-1.46786400952177,0.720084231086154,-297.422482985931
738388.48790678801015019417,-1.34784997100742,0.830866420484023,-297.367091891232
738388.48790687834843993187,-1.38477736747337,0.747779778435621,-297.339396343883
738388.48790696880314499140,-1.56018250068667,0.627765739921262,-297.348628192999
738388.48790705925785005093,-1.50479140598773,0.692388683736686,-297.357860042116
738388.48790714971255511045,-1.44016846217231,0.747779778435621,-297.348628192999
738388.48790724016726016998,-1.57864619891964,0.720084231086154,-297.376323740348
738388.48790733062196522951,-1.44016846217231,0.775475325785089,-297.45017853328
738388.48790742096025496721,-0.563142796105838,0.941648609881893,-297.274773400067
738388.48790751141496002674,0.581606494338817,0.932416760765404,-296.979354228339
738388.48790760186966508627,1.62480544450209,0.627765739921262,-296.877803888058
738388.48790769232437014580,1.11705374309519,0.683156834620197,-296.95165868099
738388.48790778277907520533,-1.17244483779412,0.572374645222327,-297.394787438581
738388.48790787323378026485,-1.91099276711325,0.498519852290414,-297.348628192999
738388.48790796357207000256,-1.82790612506485,0.526215399639882,-297.348628192999
738388.48790805402677506208,-1.57864619891964,0.64622943815424,-297.413251136814
738388.48790814448148012161,-1.40324106570635,0.692388683736686,-297.376323740348
738388.48790823493618518114,-1.39400921658986,0.738547929319132,-297.413251136814
738388.48790832539089024067,-1.39400921658986,0.738547929319132,-297.422482985931
738388.48790841572917997837,-1.33861812189093,0.784707174901578,-297.385555589465
738388.48790850618388503790,-1.33861812189093,0.775475325785089,-297.385555589465
738388.48790859663859009743,-1.29245887630848,0.803170873134556,-297.413251136814
738388.48790868709329515696,-1.30169072542497,0.784707174901578,-297.330164494766
738388.48790877754800021648,-1.28322702719199,0.775475325785089,-297.311700796533
738388.48790886800270527601,-1.25553147984252,0.830866420484023,-297.348628192999
738388.48790895834099501371,-1.18167668691061,0.830866420484023,-297.330164494766
738388.48790904879570007324,-1.26476332895901,0.803170873134556,-297.376323740348
738388.48790913925040513277,-1.2739951780755,0.803170873134556,-297.302468947417
738388.48790922970511019230,-1.23706778160955,0.821634571367534,-297.311700796533
738388.48790932015981525183,-1.17244483779412,0.830866420484023,-297.284005249184
738388.48790941061452031136,-1.13551744132817,0.830866420484023,-297.330164494766
738388.48790950095281004906,-1.14474929044465,0.849330118717002,-297.311700796533
738388.48790959140751510859,-1.03396710104678,0.941648609881893,-297.330164494766
738388.48790968186222016811,-1.01550340281381,0.913953062532426,-297.265541550951
738388.48790977231692522764,-0.969344157231361,0.932416760765404,-297.311700796533
738388.48790986277163028717,-0.913953062532426,0.932416760765404,-297.237846003601
738388.48790995310992002487,-0.830866420484023,0.997039704580828,-297.191686758019
738388.48791004356462508440,-0.803170873134556,1.01550340281381,-297.182454908902
738388.48791013401933014393,-0.673924985503708,1.08012634662923,-297.200918607135
738388.48791022447403520346,-0.553910946989349,1.11705374309519,-297.145527512436
738388.48791031492874026299,-0.54467909787286,1.07089449751274,-297.154759361553
738388.48791040538344532251,-0.516983550523392,1.09859004486221,-297.163991210669
738388.48791049572173506021,-0.553910946989349,1.07089449751274,-297.182454908902
738388.48791058617644011974,-0.683156834620197,0.969344157231361,-297.191686758019
738388.48791067663114517927,-0.812402722251045,0.877025666066469,-297.219382305368
738388.48791076708585023880,-0.913953062532426,0.904721213415937,-297.32093264565
738388.48791085754055529833,-1.05243079927976,0.849330118717002,-297.311700796533
738388.48791094799526035786,-1.09859004486221,0.849330118717002,-297.367091891232
738388.48791103833355009556,-1.09859004486221,0.886257515182958,-297.394787438581
738388.48791112878825515509,-1.26476332895901,0.775475325785089,-297.422482985931
738388.48791121924296021461,-1.38477736747337,0.692388683736686,-297.376323740348
738388.48791130969766527414,-1.3570818201239,0.720084231086154,-297.440946684164
738388.48791140015237033367,-1.34784997100742,0.710852381969665,-297.2932370983
738388.48791149060707539320,-1.32938627277444,0.75701162755211,-297.2932370983
738388.48791158094536513090,-1.38477736747337,0.710852381969665,-297.431714835047
738388.48791167140007019043,-1.32015442365795,0.75701162755211,-297.422482985931
738388.48791176185477524996,-1.31092257454146,0.793939024018067,-297.404019287698
738388.48791185230948030949,-1.37554551835688,0.738547929319132,-297.404019287698
738388.48791194276418536901,-1.37554551835688,0.729316080202643,-297.431714835047
738388.48791203310247510672,-1.40324106570635,0.720084231086154,-297.45017853328
738388.48791212355718016624,-1.33861812189093,0.775475325785089,-297.404019287698
738388.48791221401188522577,-1.38477736747337,0.692388683736686,-297.422482985931
738388.48791230446659028530,-1.36631366924039,0.729316080202643,-297.468642231513
738388.48791239492129534483,-1.31092257454146,0.793939024018067,-297.422482985931
738388.48791248537600040436,-1.36631366924039,0.738547929319132,-297.385555589465
738388.48791257571429014206,-1.40324106570635,0.701620532853175,-297.413251136814
738388.48791266616899520159,-1.38477736747337,0.738547929319132,-297.45017853328
738388.48791275662370026112,-1.3570818201239,0.747779778435621,-297.385555589465
738388.48791284707840532064,-1.36631366924039,0.729316080202643,-297.422482985931
738388.48791293753311038017,-1.3570818201239,0.747779778435621,-297.45017853328
738388.48791302798781543970,-1.32938627277444,0.793939024018067,-297.357860042116
738388.48791311832610517740,-1.33861812189093,0.793939024018067,-297.357860042116
738388.48791320878081023693,-1.38477736747337,0.729316080202643,-297.394787438581
738388.48791329923551529646,-1.33861812189093,0.784707174901578,-297.413251136814
738388.48791338969022035599,-1.40324106570635,0.710852381969665,-297.394787438581
738388.48791348014492541552,-1.4494003112888,0.673924985503708,-297.422482985931
738388.48791357059963047504,-1.44016846217231,0.692388683736686,-297.422482985931
738388.48791366093792021275,-1.40324106570635,0.75701162755211,-297.487105929746
738388.48791375139262527227,-1.37554551835688,0.75701162755211,-297.440946684164
738388.48791384184733033180,-1.34784997100742,0.793939024018067,-297.404019287698
738388.48791393230203539133,-1.46786400952177,0.683156834620197,-297.394787438581
738388.48791402275674045086,-1.39400921658986,0.75701162755211,-297.404019287698
738388.48791411309503018856,-1.40324106570635,0.747779778435621,-297.394787438581
738388.48791420354973524809,-1.46786400952177,0.692388683736686,-297.394787438581
738388.48791429400444030762,-1.42170476393933,0.729316080202643,-297.394787438581
738388.48791438445914536715,-1.37554551835688,0.766243476668599,-297.404019287698
738388.48791447491385042667,-1.43093661305582,0.738547929319132,-297.404019287698
738388.48791456536855548620,-1.44016846217231,0.720084231086154,-297.394787438581
738388.48791465570684522390,-1.4494003112888,0.729316080202643,-297.440946684164
738388.48791474616155028343,-1.38477736747337,0.784707174901578,-297.440946684164
738388.48791483661625534296,-1.47709585863826,0.710852381969665,-297.45017853328
738388.48791492707096040249,-1.48632770775475,0.683156834620197,-297.274773400067
738388.48791501752566546202,-1.43093661305582,0.738547929319132,-297.311700796533
738388.48791510798037052155,-1.41247291482284,0.720084231086154,-297.422482985931
738388.48791519831866025925,-1.45863216040529,0.747779778435621,-297.47787408063
738388.48791528877336531878,-1.42170476393933,0.729316080202643,-297.367091891232
738388.48791537922807037830,-1.39400921658986,0.747779778435621,-297.468642231513
738388.48791546968277543783,-1.42170476393933,0.720084231086154,-297.45017853328
738388.48791556013748049736,-1.41247291482284,0.729316080202643,-297.45017853328
738388.48791565047577023506,-1.25553147984252,0.803170873134556,-297.431714835047
738388.48791574093047529459,-1.26476332895901,0.821634571367534,-297.468642231513
738388.48791583138518035412,-1.36631366924039,0.747779778435621,-297.459410382397
738388.48791592183988541365,-1.36631366924039,0.729316080202643,-297.422482985931
738388.48791601229459047318,-1.33861812189093,0.766243476668599,-297.45017853328
738388.48791610274929553270,-1.43093661305582,0.729316080202643,-297.45017853328
738388.48791619308758527040,-1.50479140598773,0.692388683736686,-297.422482985931
738388.48791628354229032993,-1.49555955687124,0.683156834620197,-297.431714835047
738388.48791637399699538946,-1.48632770775475,0.738547929319132,-297.468642231513
738388.48791646445170044899,-1.47709585863826,0.710852381969665,-297.431714835047
738388.48791655490640550852,-1.51402325510422,0.729316080202643,-297.440946684164
738388.48791664536111056805,-1.52325510422071,0.729316080202643,-297.440946684164
738388.48791673569940030575,-1.43093661305582,0.775475325785089,-297.45017853328
738388.48791682615410536528,-1.47709585863826,0.710852381969665,-297.357860042116
738388.48791691660881042480,-1.59710989715262,0.65546128727073,-297.459410382397
738388.48791700706351548433,-1.54171880245369,0.683156834620197,-297.385555589465
738388.48791709751822054386,-1.45863216040529,0.738547929319132,-297.348628192999
738388.48791718797292560339,-1.52325510422071,0.701620532853175,-297.330164494766
738388.48791727831121534109,-1.5324869533372,0.747779778435621,-297.348628192999
738388.48791736876592040062,-1.55095065157018,0.784707174901578,-297.339396343883
738388.48791745922062546015,-1.26476332895901,0.877025666066469,-297.311700796533
738388.48791754967533051968,-0.230796227912229,0.997039704580828,-297.071672719504
738388.48791764013003557920,1.08935819574572,0.886257515182958,-296.887035737175
738388.48791773046832531691,1.64326914273507,0.720084231086154,-296.79471724601
738388.48791782092303037643,0.0553910946989349,0.609302041688284,-296.877803888058
738388.48791791137773543596,-1.07089449751274,0.54467909787286,-297.431714835047
738388.48791800183244049549,-1.7909787285989,0.581606494338817,-297.551728873562
738388.48791809228714555502,-1.96638386181219,0.609302041688284,-297.533265175329
738388.48791818274185061455,-1.85560167241432,0.590838343455306,-297.404019287698
738388.48791827308014035225,-1.62480544450209,0.683156834620197,-297.404019287698
738388.48791836353484541178,-1.45863216040529,0.720084231086154,-297.404019287698
738388.48791845398955047131,-1.36631366924039,0.793939024018067,-297.32093264565
738388.48791854444425553083,-1.40324106570635,0.75701162755211,-297.311700796533
738388.48791863489896059036,-1.43093661305582,0.75701162755211,-297.45017853328
738388.48791872535366564989,-1.32015442365795,0.803170873134556,-297.357860042116
738388.48791881569195538759,-1.36631366924039,0.75701162755211,-297.404019287698
738388.48791890614666044712,-1.37554551835688,0.766243476668599,-297.385555589465
738388.48791899660136550665,-1.29245887630848,0.812402722251045,-297.376323740348
738388.48791908705607056618,-1.23706778160955,0.858561967833491,-297.385555589465
738388.48791917751077562571,-1.31092257454146,0.766243476668599,-297.404019287698
738388.48791926784906536341,-1.26476332895901,0.812402722251045,-297.422482985931
738388.48791935830377042294,-1.23706778160955,0.803170873134556,-297.376323740348
738388.48791944875847548246,-1.15398113956114,0.877025666066469,-297.367091891232
738388.48791953921318054199,-1.13551744132817,0.86779381694998,-297.404019287698
738388.48791962966788560152,-1.09859004486221,0.877025666066469,-297.385555589465
738388.48791972012259066105,-1.03396710104678,0.941648609881893,-297.357860042116
738388.48791981046088039875,-1.03396710104678,0.932416760765404,-297.348628192999
738388.48791990091558545828,-1.00627155369732,0.877025666066469,-297.339396343883
738388.48791999137029051781,-0.923184911648915,0.932416760765404,-297.284005249184
738388.48792008182499557734,-0.812402722251045,0.997039704580828,-297.200918607135
738388.48792017227970063686,-0.812402722251045,0.950880458998382,-297.219382305368
738388.48792026273440569639,-0.729316080202643,0.97857600634785,-297.200918607135
738388.48792035307269543409,-0.600070192571795,1.04319895016327,-297.13629566332
738388.48792044352740049362,-0.516983550523392,1.08012634662923,-297.182454908902
738388.48792053398210555315,-0.516983550523392,1.05243079927976,-297.210150456252
738388.48792062443681061268,-0.618533890804773,1.00627155369732,-297.256309701834
738388.48792071489151567221,-0.710852381969665,0.969344157231361,-297.284005249184
738388.48792080534622073174,-0.812402722251045,0.950880458998382,-297.357860042116
738388.48792089568451046944,-1.01550340281381,0.858561967833491,-297.357860042116
738388.48792098613921552896,-1.14474929044465,0.793939024018067,-297.367091891232
738388.48792107659392058849,-1.21860408337657,0.775475325785089,-297.413251136814
738388.48792116704862564802,-1.23706778160955,0.821634571367534,-297.459410382397
738388.48792125750333070755,-1.32938627277444,0.729316080202643,-297.413251136814
738388.48792134784162044525,-1.34784997100742,0.75701162755211,-297.413251136814
738388.48792143829632550478,-1.36631366924039,0.738547929319132,-297.422482985931
738388.48792152875103056431,-1.32015442365795,0.793939024018067,-297.376323740348
738388.48792161920573562384,-1.34784997100742,0.775475325785089,-297.367091891232
738388.48792170966044068336,-1.36631366924039,0.747779778435621,-297.413251136814
738388.48792180011514574289,-1.34784997100742,0.766243476668599,-297.413251136814
738388.48792189045343548059,-1.3570818201239,0.747779778435621,-297.394787438581
738388.48792198090814054012,-1.37554551835688,0.75701162755211,-297.357860042116
738388.48792207136284559965,-1.38477736747337,0.710852381969665,-297.274773400067
738388.48792216181755065918,-1.36631366924039,0.738547929319132,-297.404019287698
738388.48792225227225571871,-1.40324106570635,0.729316080202643,-297.376323740348
738388.48792234272696077824,-1.32015442365795,0.766243476668599,-297.394787438581
738388.48792243306525051594,-1.34784997100742,0.766243476668599,-297.376323740348
738388.48792252351995557547,-1.32015442365795,0.812402722251045,-297.422482985931
738388.48792261397466063499,-1.32938627277444,0.75701162755211,-297.394787438581
738388.48792270442936569452,-1.34784997100742,0.729316080202643,-297.394787438581
738388.48792279488407075405,-1.38477736747337,0.738547929319132,-297.440946684164
738388.48792288533877581358,-1.33861812189093,0.766243476668599,-297.431714835047
738388.48792297567706555128,-1.31092257454146,0.775475325785089,-297.348628192999
738388.48792306613177061081,-1.30169072542497,0.775475325785089,-297.440946684164
738388.48792315658647567034,-1.32015442365795,0.766243476668599,-297.440946684164
738388.48792324704118072987,-1.3570818201239,0.775475325785089,-297.440946684164
738388.48792333749588578939,-1.32938627277444,0.775475325785089,-297.376323740348
738388.48792342783417552710,-1.32015442365795,0.766243476668599,-297.339396343883
738388.48792351828888058662,-1.33861812189093,0.766243476668599,-297.376323740348
738388.48792360874358564615,-1.33861812189093,0.793939024018067,-297.357860042116
738388.48792369919829070568,-1.33861812189093,0.775475325785089,-297.385555589465
738388.48792378965299576521,-1.37554551835688,0.720084231086154,-297.330164494766
738388.48792388010770082474,-1.37554551835688,0.747779778435621,-297.394787438581
738388.48792397044599056244,-1.39400921658986,0.747779778435621,-297.422482985931
738388.48792406090069562197,-1.34784997100742,0.766243476668599,-297.394787438581
738388.48792415135540068150,-1.36631366924039,0.766243476668599,-297.440946684164
738388.48792424181010574102,-1.38477736747337,0.775475325785089,-297.468642231513
738388.48792433226481080055,-1.37554551835688,0.738547929319132,-297.413251136814
738388.48792442271951586008,-1.37554551835688,0.775475325785089,-297.468642231513
738388.48792451305780559778,-1.40324106570635,0.75701162755211,-297.45017853328
738388.48792460351251065731,-1.38477736747337,0.766243476668599,-297.431714835047
738388.48792469396721571684,-1.37554551835688,0.75701162755211,-297.45017853328
738388.48792478442192077637,-1.3570818201239,0.766243476668599,-297.440946684164
738388.48792487487662583590,-1.40324106570635,0.747779778435621,-297.45017853328
738388.48792496521491557360,-1.36631366924039,0.75701162755211,-297.440946684164
738388.48792505566962063313,-1.36631366924039,0.766243476668599,-297.459410382397
738388.48792514612432569265,-1.41247291482284,0.738547929319132,-297.45017853328
738388.48792523657903075218,-1.40324106570635,0.75701162755211,-297.431714835047
738388.48792532703373581171,-1.37554551835688,0.75701162755211,-297.440946684164
738388.48792541748844087124,-1.34784997100742,0.784707174901578,-297.468642231513
738388.48792550782673060894,-1.32938627277444,0.75701162755211,-297.440946684164
738388.48792559828143566847,-1.33861812189093,0.747779778435621,-297.32093264565
738388.48792568873614072800,-1.34784997100742,0.747779778435621,-297.468642231513
738388.48792577919084578753,-1.30169072542497,0.766243476668599,-297.394787438581
738388.48792586964555084705,-1.23706778160955,0.784707174901578,-297.404019287698
738388.48792596010025590658,-1.23706778160955,0.803170873134556,-297.385555589465
738388.48792605043854564428,-1.28322702719199,0.784707174901578,-297.376323740348
738388.48792614089325070381,-1.28322702719199,0.793939024018067,-297.367091891232
738388.48792623134795576334,-1.32015442365795,0.775475325785089,-297.385555589465
738388.48792632180266082287,-1.38477736747337,0.75701162755211,-297.404019287698
738388.48792641225736588240,-1.44016846217231,0.747779778435621,-297.431714835047
738388.48792650271207094193,-1.43093661305582,0.738547929319132,-297.376323740348
738388.48792659305036067963,-1.43093661305582,0.75701162755211,-297.45017853328
738388.48792668350506573915,-1.44016846217231,0.729316080202643,-297.413251136814
738388.48792677395977079868,-1.45863216040529,0.75701162755211,-297.404019287698
738388.48792686441447585821,-1.46786400952177,0.729316080202643,-297.404019287698
738388.48792695486918091774,-1.44016846217231,0.75701162755211,-297.431714835047
738388.48792704520747065544,-1.45863216040529,0.738547929319132,-297.404019287698
738388.48792713566217571497,-1.45863216040529,0.75701162755211,-297.385555589465
738388.48792722611688077450,-1.4494003112888,0.738547929319132,-297.376323740348
738388.48792731657158583403,-1.44016846217231,0.747779778435621,-297.385555589465
738388.48792740702629089355,-1.43093661305582,0.747779778435621,-297.376323740348
738388.48792749748099595308,-1.52325510422071,0.766243476668599,-297.367091891232
738388.48792758781928569078,-1.51402325510422,0.803170873134556,-297.422482985931
738388.48792767827399075031,-1.05243079927976,0.858561967833491,-297.302468947417
738388.48792776872869580984,-0.0553910946989349,0.932416760765404,-297.13629566332
738388.48792785918340086937,1.16321298867763,0.766243476668599,-296.970122379223
738388.48792794963810592890,1.85560167241432,0.692388683736686,-296.877803888058
738388.48792804009281098843,-0.0184636982329783,0.64622943815424,-297.145527512436
738388.48792813043110072613,-1.68019653920103,0.581606494338817,-297.505569627979
738388.48792822088580578566,-1.91099276711325,0.563142796105838,-297.496337778863
738388.48792831134051084518,-1.73558763389996,0.636997589037751,-297.47787408063
738388.48792840179521590471,-1.48632770775475,0.710852381969665,-297.367091891232
738388.48792849224992096424,-1.34784997100742,0.75701162755211,-297.431714835047
738388.48792858270462602377,-1.36631366924039,0.766243476668599,-297.468642231513
738388.48792867304291576147,-1.32938627277444,0.803170873134556,-297.45017853328
738388.48792876349762082100,-1.29245887630848,0.830866420484023,-297.376323740348
738388.48792885395232588053,-1.25553147984252,0.858561967833491,-297.422482985931
738388.48792894440703094006,-1.29245887630848,0.830866420484023,-297.459410382397
738388.48792903486173599958,-1.24629963072604,0.86779381694998,-297.228614154485
738388.48792912520002573729,-1.2739951780755,0.812402722251045,-297.247077852718
738388.48792921565473079681,-1.32015442365795,0.729316080202643,-297.394787438581
738388.48792930610943585634,-1.24629963072604,0.793939024018067,-297.431714835047
738388.48792939656414091587,-1.2739951780755,0.812402722251045,-297.422482985931
738388.48792948701884597540,-1.20014038514359,0.849330118717002,-297.357860042116
738388.48792957747355103493,-1.18167668691061,0.840098269600513,-297.367091891232
738388.48792966781184077263,-1.12628559221168,0.895489364299448,-297.394787438581
738388.48792975826654583216,-1.06166264839625,0.932416760765404,-297.284005249184
738388.48792984872125089169,-1.08012634662923,0.895489364299448,-297.385555589465
738388.48792993917595595121,-1.01550340281381,0.923184911648915,-297.348628192999
738388.48793002963066101074,-1.05243079927976,0.86779381694998,-297.357860042116
738388.48793012008536607027,-1.00627155369732,0.877025666066469,-297.311700796533
738388.48793021042365580797,-0.858561967833491,0.987807855464339,-297.357860042116
738388.48793030087836086750,-0.747779778435621,1.04319895016327,-297.284005249184
738388.48793039133306592703,-0.729316080202643,1.01550340281381,-297.2932370983
738388.48793048178777098656,-0.618533890804773,1.07089449751274,-297.274773400067
738388.48793057224247604609,-0.452360606707968,1.20937223426008,-297.265541550951
738388.48793066258076578379,-0.424665059358501,1.20014038514359,-297.200918607135
738388.48793075303547084332,-0.600070192571795,0.987807855464339,-297.265541550951
738388.48793084349017590284,-0.673924985503708,0.941648609881893,-297.219382305368
738388.48793093394488096237,-0.812402722251045,0.877025666066469,-297.265541550951
738388.48793102439958602190,-0.86779381694998,0.886257515182958,-297.2932370983
738388.48793111485429108143,-1.00627155369732,0.812402722251045,-297.302468947417
738388.48793120519258081913,-1.09859004486221,0.840098269600513,-297.376323740348
738388.48793129564728587866,-1.22783593249306,0.75701162755211,-297.339396343883
738388.48793138610199093819,-1.13551744132817,0.904721213415937,-297.348628192999
738388.48793147655669599771,-1.22783593249306,0.840098269600513,-297.376323740348
738388.48793156701140105724,-1.29245887630848,0.793939024018067,-297.376323740348
738388.48793165746610611677,-1.34784997100742,0.75701162755211,-297.422482985931
738388.48793174780439585447,-1.13551744132817,0.950880458998382,-297.348628192999
738388.48793183825910091400,-1.32938627277444,0.738547929319132,-297.348628192999
738388.48793192871380597353,-1.54171880245369,0.54467909787286,-297.357860042116
738388.48793201916851103306,-1.42170476393933,0.673924985503708,-297.348628192999
738388.48793210962321609259,-1.39400921658986,0.683156834620197,-297.357860042116
738388.48793220007792115211,-1.2739951780755,0.840098269600513,-297.348628192999
738388.48793229041621088982,-1.33861812189093,0.766243476668599,-297.339396343883
738388.48793238087091594934,-1.37554551835688,0.729316080202643,-297.367091891232
738388.48793247132562100887,-1.18167668691061,0.923184911648915,-297.394787438581
738388.48793256178032606840,-1.32938627277444,0.766243476668599,-297.274773400067
738388.48793265223503112793,-1.39400921658986,0.701620532853175,-297.348628192999
738388.48793274257332086563,-1.33861812189093,0.766243476668599,-297.468642231513
738388.48793283302802592516,-1.39400921658986,0.701620532853175,-297.440946684164
738388.48793292348273098469,-1.3570818201239,0.747779778435621,-297.413251136814
738388.48793301393743604422,-1.42170476393933,0.692388683736686,-297.45017853328
738388.48793310439214110374,-1.38477736747337,0.701620532853175,-297.459410382397
738388.48793319484684616327,-1.32015442365795,0.75701162755211,-297.440946684164
738388.48793328518513590097,-1.33861812189093,0.738547929319132,-297.413251136814
738388.48793337563984096050,-1.38477736747337,0.720084231086154,-297.468642231513
738388.48793346609454602003,-1.33861812189093,0.766243476668599,-297.47787408063
738388.48793355654925107956,-1.32938627277444,0.803170873134556,-297.413251136814
738388.48793364700395613909,-1.2739951780755,0.849330118717002,-297.431714835047
738388.48793373745866119862,-1.24629963072604,0.86779381694998,-297.422482985931
738388.48793382779695093632,-1.41247291482284,0.692388683736686,-297.348628192999
738388.48793391825165599585,-1.48632770775475,0.627765739921262,-297.404019287698
738388.48793400870636105537,-1.45863216040529,0.636997589037751,-297.367091891232
738388.48793409916106611490,-1.41247291482284,0.692388683736686,-297.422482985931
738388.48793418961577117443,-1.40324106570635,0.701620532853175,-297.413251136814
738388.48793427995406091213,-1.38477736747337,0.738547929319132,-297.376323740348
738388.48793437040876597166,-1.34784997100742,0.784707174901578,-297.394787438581
738388.48793446086347103119,-1.32015442365795,0.812402722251045,-297.431714835047
738388.48793455131817609072,-1.3570818201239,0.775475325785089,-297.376323740348
738388.48793464177288115025,-1.38477736747337,0.747779778435621,-297.422482985931
738388.48793473222758620977,-1.34784997100742,0.775475325785089,-297.45017853328
738388.48793482256587594748,-1.31092257454146,0.812402722251045,-297.431714835047
738388.48793491302058100700,-1.47709585863826,0.64622943815424,-297.394787438581
738388.48793500347528606653,-1.48632770775475,0.636997589037751,-297.422482985931
738388.48793509392999112606,-1.4494003112888,0.701620532853175,-297.440946684164
738388.48793518438469618559,-1.40324106570635,0.710852381969665,-297.422482985931
738388.48793527483940124512,-1.37554551835688,0.775475325785089,-297.468642231513
738388.48793536517769098282,-1.40324106570635,0.747779778435621,-297.404019287698
738388.48793545563239604235,-1.40324106570635,0.738547929319132,-297.404019287698
738388.48793554608710110188,-1.36631366924039,0.729316080202643,-297.440946684164
738388.48793563654180616140,-1.34784997100742,0.738547929319132,-297.413251136814
738388.48793572699651122093,-1.37554551835688,0.701620532853175,-297.357860042116
738388.48793581745121628046,-1.3570818201239,0.729316080202643,-297.459410382397
738388.48793590778950601816,-1.26476332895901,0.803170873134556,-297.45017853328
738388.48793599824421107769,-1.11705374309519,0.86779381694998,-297.496337778863
738388.48793608869891613722,-1.31092257454146,0.710852381969665,-297.274773400067
738388.48793617915362119675,-1.36631366924039,0.720084231086154,-297.284005249184
738388.48793626960832625628,-1.34784997100742,0.720084231086154,-297.376323740348
738388.48793635994661599398,-1.37554551835688,0.729316080202643,-297.422482985931
738388.48793645040132105350,-1.40324106570635,0.75701162755211,-297.468642231513
738388.48793654085602611303,-1.41247291482284,0.75701162755211,-297.367091891232
738388.48793663131073117256,-1.37554551835688,0.784707174901578,-297.431714835047
738388.48793672176543623209,-1.41247291482284,0.738547929319132,-297.459410382397
738388.48793681222014129162,-1.49555955687124,0.710852381969665,-297.496337778863
738388.48793690255843102932,-1.46786400952177,0.701620532853175,-297.367091891232
738388.48793699301313608885,-1.43093661305582,0.766243476668599,-297.394787438581
738388.48793708346784114838,-1.51402325510422,0.692388683736686,-297.357860042116
738388.48793717392254620790,-1.51402325510422,0.673924985503708,-297.348628192999
738388.48793726437725126743,-1.48632770775475,0.701620532853175,-297.357860042116
738388.48793735483195632696,-1.47709585863826,0.720084231086154,-297.394787438581
738388.48793744517024606466,-1.46786400952177,0.729316080202643,-297.394787438581
738388.48793753562495112419,-1.42170476393933,0.775475325785089,-297.422482985931
738388.48793762607965618372,-1.42170476393933,0.812402722251045,-297.459410382397
738388.48793771653436124325,-1.45863216040529,0.840098269600513,-297.496337778863
738388.48793780698906630278,-1.17244483779412,0.766243476668599,-297.348628192999
738388.48793789744377136230,-0.120014038514359,0.840098269600513,-297.173223059786
738388.48793798778206110001,1.05243079927976,0.775475325785089,-296.997817926572
738388.48793807823676615953,1.76328318124943,0.64622943815424,-296.776253547777
738388.48793816869147121906,0.0461592455824458,0.627765739921262,-297.145527512436
738388.48793825914617627859,-1.72635578478347,0.516983550523392,-297.459410382397
738388.48793834960088133812,-1.93868831446272,0.535447248756371,-297.431714835047
738388.48793843993917107582,-1.78174687948241,0.572374645222327,-297.385555589465
738388.48793853039387613535,-1.63403729361858,0.65546128727073,-297.376323740348
738388.48793862084858119488,-1.38477736747337,0.729316080202643,-297.339396343883
738388.48793871130328625441,-1.30169072542497,0.812402722251045,-297.385555589465
738388.48793880175799131393,-1.33861812189093,0.775475325785089,-297.376323740348
738388.48793889221269637346,-1.41247291482284,0.729316080202643,-297.385555589465
738388.48793898255098611116,-1.37554551835688,0.747779778435621,-297.348628192999
738388.48793907300569117069,-1.29245887630848,0.793939024018067,-297.376323740348
738388.48793916346039623022,-1.29245887630848,0.803170873134556,-297.404019287698
738388.48793925391510128975,-1.32015442365795,0.775475325785089,-297.357860042116
738388.48793934436980634928,-1.28322702719199,0.812402722251045,-297.339396343883
738388.48793943482451140881,-1.21860408337657,0.830866420484023,-297.376323740348
738388.48793952516280114651,-1.22783593249306,0.849330118717002,-297.376323740348
738388.48793961561750620604,-1.22783593249306,0.812402722251045,-297.200918607135
738388.48793970607221126556,-1.21860408337657,0.821634571367534,-297.247077852718
738388.48793979652691632509,-1.24629963072604,0.793939024018067,-297.32093264565
738388.48793988698162138462,-1.13551744132817,0.858561967833491,-297.339396343883
738388.48793997731991112232,-1.11705374309519,0.86779381694998,-297.311700796533
738388.48794006777461618185,-1.08012634662923,0.923184911648915,-297.32093264565
738388.48794015822932124138,-0.987807855464339,0.932416760765404,-297.284005249184
738388.48794024868402630091,-0.840098269600513,1.05243079927976,-297.311700796533
738388.48794033913873136044,-0.849330118717002,0.987807855464339,-297.2932370983
738388.48794042959343641996,-0.849330118717002,0.960112308114872,-297.32093264565
738388.48794051993172615767,-0.793939024018067,0.987807855464339,-297.2932370983
738388.48794061038643121719,-0.673924985503708,1.05243079927976,-297.210150456252
738388.48794070084113627672,-0.627765739921262,1.05243079927976,-297.274773400067
738388.48794079129584133625,-0.590838343455306,1.05243079927976,-297.265541550951
738388.48794088175054639578,-0.553910946989349,1.08935819574572,-297.256309701834
738388.48794097220525145531,-0.572374645222327,1.04319895016327,-297.210150456252
738388.48794106254354119301,-0.664693136387219,1.00627155369732,-297.32093264565
738388.48794115299824625254,-0.858561967833491,0.932416760765404,-297.32093264565
738388.48794124345295131207,-0.950880458998382,0.923184911648915,-297.32093264565
738388.48794133390765637159,-1.08935819574572,0.840098269600513,-297.404019287698
738388.48794142436236143112,-1.16321298867763,0.849330118717002,-297.422482985931
738388.48794151481706649065,-1.20937223426008,0.821634571367534,-297.357860042116
738388.48794160515535622835,-1.31092257454146,0.766243476668599,-297.431714835047
738388.48794169561006128788,-1.37554551835688,0.747779778435621,-297.431714835047
738388.48794178606476634741,-1.37554551835688,0.738547929319132,-297.440946684164
738388.48794187651947140694,-1.3570818201239,0.729316080202643,-297.422482985931
738388.48794196697417646646,-1.36631366924039,0.775475325785089,-297.459410382397
738388.48794205731246620417,-1.40324106570635,0.729316080202643,-297.45017853328
738388.48794214776717126369,-1.36631366924039,0.738547929319132,-297.431714835047
738388.48794223822187632322,-1.37554551835688,0.747779778435621,-297.45017853328
738388.48794232867658138275,-1.33861812189093,0.784707174901578,-297.45017853328
738388.48794241913128644228,-1.32015442365795,0.812402722251045,-297.45017853328
738388.48794250958599150181,-1.4494003112888,0.664693136387219,-297.422482985931
738388.48794259992428123951,-1.40324106570635,0.747779778435621,-297.496337778863
738388.48794269037898629904,-1.38477736747337,0.766243476668599,-297.404019287698
738388.48794278083369135857,-1.34784997100742,0.812402722251045,-297.404019287698
738388.48794287128839641809,-1.40324106570635,0.710852381969665,-297.394787438581
738388.48794296174310147762,-1.45863216040529,0.673924985503708,-297.404019287698
738388.48794305219780653715,-1.39400921658986,0.738547929319132,-297.367091891232
738388.48794314253609627485,-1.32938627277444,0.803170873134556,-297.2932370983
738388.48794323299080133438,-1.36631366924039,0.75701162755211,-297.339396343883
738388.48794332344550639391,-1.38477736747337,0.720084231086154,-297.45017853328
738388.48794341390021145344,-1.31092257454146,0.793939024018067,-297.468642231513
738388.48794350435491651297,-1.38477736747337,0.775475325785089,-297.431714835047
738388.48794359480962157249,-1.45863216040529,0.692388683736686,-297.404019287698
738388.48794368514791131020,-1.40324106570635,0.738547929319132,-297.422482985931
738388.48794377560261636972,-1.39400921658986,0.747779778435621,-297.413251136814
738388.48794386605732142925,-1.38477736747337,0.75701162755211,-297.394787438581
738388.48794395651202648878,-1.42170476393933,0.747779778435621,-297.413251136814
738388.48794404696673154831,-1.42170476393933,0.720084231086154,-297.394787438581
738388.48794413730502128601,-1.43093661305582,0.701620532853175,-297.413251136814
738388.48794422775972634554,-1.44016846217231,0.692388683736686,-297.413251136814
738388.48794431821443140507,-1.42170476393933,0.747779778435621,-297.422482985931
738388.48794440866913646460,-1.45863216040529,0.701620532853175,-297.459410382397
738388.48794449912384152412,-1.38477736747337,0.747779778435621,-297.468642231513
738388.48794458957854658365,-1.40324106570635,0.75701162755211,-297.422482985931
738388.48794467991683632135,-1.39400921658986,0.766243476668599,-297.404019287698
738388.48794477037154138088,-1.47709585863826,0.710852381969665,-297.422482985931
738388.48794486082624644041,-1.49555955687124,0.701620532853175,-297.459410382397
738388.48794495128095149994,-1.47709585863826,0.701620532853175,-297.47787408063
738388.48794504173565655947,-1.43093661305582,0.729316080202643,-297.413251136814
738388.48794513219036161900,-1.45863216040529,0.729316080202643,-297.468642231513
738388.48794522252865135670,-1.45863216040529,0.738547929319132,-297.459410382397
738388.48794531298335641623,-1.41247291482284,0.75701162755211,-297.468642231513
738388.48794540343806147575,-1.39400921658986,0.747779778435621,-297.440946684164
738388.48794549389276653528,-1.32015442365795,0.821634571367534,-297.524033326212
738388.48794558434747159481,-1.47709585863826,0.692388683736686,-297.47787408063
738388.48794567468576133251,-1.43093661305582,0.710852381969665,-297.459410382397
738388.48794576514046639204,-1.30169072542497,0.766243476668599,-297.47787408063
738388.48794585559517145157,-1.28322702719199,0.784707174901578,-297.47787408063
738388.48794594604987651110,-1.33861812189093,0.766243476668599,-297.45017853328
738388.48794603650458157063,-1.3570818201239,0.775475325785089,-297.459410382397
738388.48794612695928663015,-1.34784997100742,0.766243476668599,-297.431714835047
738388.48794621729757636786,-1.38477736747337,0.738547929319132,-297.348628192999
738388.48794630775228142738,-1.45863216040529,0.729316080202643,-297.376323740348
738388.48794639820698648691,-1.49555955687124,0.729316080202643,-297.357860042116
738388.48794648866169154644,-1.48632770775475,0.747779778435621,-297.385555589465
738388.48794657911639660597,-1.45863216040529,0.75701162755211,-297.394787438581
738388.48794666957110166550,-1.49555955687124,0.701620532853175,-297.330164494766
738388.48794675990939140320,-1.48632770775475,0.720084231086154,-297.311700796533
738388.48794685036409646273,-1.51402325510422,0.729316080202643,-297.404019287698
738388.48794694081880152225,-1.49555955687124,0.738547929319132,-297.431714835047
738388.48794703127350658178,-1.5324869533372,0.710852381969665,-297.487105929746
738388.48794712172821164131,-1.57864619891964,0.64622943815424,-297.367091891232
738388.48794721218291670084,-1.49555955687124,0.720084231086154,-297.45017853328
738388.48794730252120643854,-1.50479140598773,0.720084231086154,-297.422482985931
738388.48794739297591149807,-1.55095065157018,0.710852381969665,-297.45017853328
738388.48794748343061655760,-1.62480544450209,0.710852381969665,-297.413251136814
738388.48794757388532161713,-1.46786400952177,0.86779381694998,-297.468642231513
738388.48794766434002667665,-0.775475325785089,0.941648609881893,-297.2932370983
738388.48794775467831641436,0.443128757591479,0.923184911648915,-297.016281624805
738388.48794784513302147388,1.4494003112888,0.692388683736686,-296.933194982757
738388.48794793558772653341,1.58787804803613,0.673924985503708,-296.76702169866
738388.48794802604243159294,0,0.664693136387219,-297.200918607135
738388.48794811649713665247,-1.60634174626911,0.581606494338817,-297.524033326212
738388.48794820695184171200,-1.94792016357921,0.572374645222327,-297.588656270028
738388.48794829729013144970,-1.9571520126957,0.581606494338817,-297.487105929746
738388.48794838774483650923,-1.77251503036592,0.64622943815424,-297.422482985931
738388.48794847819954156876,-1.49555955687124,0.747779778435621,-297.413251136814
738388.48794856865424662828,-1.36631366924039,0.821634571367534,-297.431714835047
738388.48794865910895168781,-1.45863216040529,0.692388683736686,-297.367091891232
738388.48794874956365674734,-1.4494003112888,0.701620532853175,-297.394787438581
738388.48794883990194648504,-1.44016846217231,0.720084231086154,-297.367091891232
738388.48794893035665154457,-1.36631366924039,0.766243476668599,-297.404019287698
738388.48794902081135660410,-1.36631366924039,0.75701162755211,-297.404019287698
738388.48794911126606166363,-1.33861812189093,0.784707174901578,-297.431714835047
738388.48794920172076672316,-1.28322702719199,0.812402722251045,-297.440946684164
738388.48794929205905646086,-1.22783593249306,0.86779381694998,-297.394787438581
738388.48794938251376152039,-1.23706778160955,0.821634571367534,-297.394787438581
738388.48794947296846657991,-1.23706778160955,0.812402722251045,-297.394787438581
738388.48794956342317163944,-1.24629963072604,0.784707174901578,-297.357860042116
738388.48794965387787669897,-1.22783593249306,0.821634571367534,-297.367091891232
738388.48794974433258175850,-1.1078218939787,0.895489364299448,-297.394787438581
738388.48794983467087149620,-1.07089449751274,0.895489364299448,-297.367091891232
738388.48794992512557655573,-1.09859004486221,0.86779381694998,-297.348628192999
738388.48795001558028161526,-1.03396710104678,0.886257515182958,-297.32093264565
738388.48795010603498667479,-0.941648609881893,0.941648609881893,-297.348628192999
738388.48795019648969173431,-0.904721213415937,0.941648609881893,-297.210150456252
738388.48795028694439679384,-0.784707174901578,0.987807855464339,-297.182454908902
738388.48795037728268653154,-0.673924985503708,1.01550340281381,-297.256309701834
738388.48795046773739159107,-0.600070192571795,1.07089449751274,-297.228614154485
738388.48795055819209665060,-0.600070192571795,1.06166264839625,-297.265541550951
738388.48795064864680171013,-0.480056154057436,1.08935819574572,-297.256309701834
738388.48795073910150676966,-0.535447248756371,1.07089449751274,-297.274773400067
738388.48795082955621182919,-0.65546128727073,0.997039704580828,-297.2932370983
738388.48795091989450156689,-0.86779381694998,0.895489364299448,-297.284005249184
738388.48795101034920662642,-0.987807855464339,0.858561967833491,-297.367091891232
738388.48795110080391168594,-1.13551744132817,0.803170873134556,-297.413251136814
738388.48795119125861674547,-1.21860408337657,0.75701162755211,-297.376323740348
738388.48795128171332180500,-1.26476332895901,0.775475325785089,-297.385555589465
738388.48795137205161154270,-1.30169072542497,0.766243476668599,-297.339396343883
738388.48795146250631660223,-1.32938627277444,0.766243476668599,-297.348628192999
738388.48795155296102166176,-1.33861812189093,0.747779778435621,-297.348628192999
738388.48795164341572672129,-1.32938627277444,0.766243476668599,-297.376323740348
738388.48795173387043178082,-1.32938627277444,0.793939024018067,-297.357860042116
738388.48795182432513684034,-1.29245887630848,0.830866420484023,-297.385555589465
738388.48795191466342657804,-1.43093661305582,0.692388683736686,-297.376323740348
738388.48795200511813163757,-1.43093661305582,0.692388683736686,-297.404019287698
738388.48795209557283669710,-1.41247291482284,0.729316080202643,-297.431714835047
738388.48795218602754175663,-1.37554551835688,0.738547929319132,-297.394787438581
738388.48795227648224681616,-1.39400921658986,0.738547929319132,-297.385555589465
738388.48795236693695187569,-1.3570818201239,0.75701162755211,-297.367091891232
738388.48795245727524161339,-1.32938627277444,0.775475325785089,-297.376323740348
738388.48795254772994667292,-1.29245887630848,0.840098269600513,-297.376323740348
738388.48795263818465173244,-1.29245887630848,0.821634571367534,-297.376323740348
738388.48795272863935679197,-1.48632770775475,0.65546128727073,-297.385555589465
738388.48795281909406185150,-1.42170476393933,0.701620532853175,-297.404019287698
738388.48795290954876691103,-1.37554551835688,0.720084231086154,-297.385555589465
738388.48795299988705664873,-1.37554551835688,0.738547929319132,-297.394787438581
738388.48795309034176170826,-1.3570818201239,0.75701162755211,-297.404019287698
738388.48795318079646676779,-1.29245887630848,0.830866420484023,-297.404019287698
738388.48795327125117182732,-1.36631366924039,0.738547929319132,-297.394787438581
738388.48795336170587688684,-1.20937223426008,0.886257515182958,-297.45017853328
738388.48795345204416662455,-1.39400921658986,0.720084231086154,-297.459410382397
738388.48795354249887168407,-1.45863216040529,0.683156834620197,-297.45017853328
738388.48795363295357674360,-1.42170476393933,0.710852381969665,-297.487105929746
738388.48795372340828180313,-1.39400921658986,0.729316080202643,-297.413251136814
738388.48795381386298686266,-1.42170476393933,0.701620532853175,-297.330164494766
738388.48795390431769192219,-1.38477736747337,0.729316080202643,-297.394787438581
738388.48795399465598165989,-1.33861812189093,0.784707174901578,-297.459410382397
738388.48795408511068671942,-1.38477736747337,0.738547929319132,-297.45017853328
738388.48795417556539177895,-1.36631366924039,0.766243476668599,-297.404019287698
738388.48795426602009683847,-1.44016846217231,0.710852381969665,-297.45017853328
738388.48795435647480189800,-1.41247291482284,0.747779778435621,-297.459410382397
738388.48795444692950695753,-1.42170476393933,0.738547929319132,-297.413251136814
738388.48795453726779669523,-1.41247291482284,0.766243476668599,-297.45017853328
738388.48795462772250175476,-1.40324106570635,0.738547929319132,-297.459410382397
738388.48795471817720681429,-1.40324106570635,0.747779778435621,-297.487105929746
738388.48795480863191187382,-1.43093661305582,0.747779778435621,-297.422482985931
738388.48795489908661693335,-1.45863216040529,0.701620532853175,-297.468642231513
738388.48795498942490667105,-1.42170476393933,0.720084231086154,-297.422482985931
738388.48795507987961173058,-1.43093661305582,0.720084231086154,-297.394787438581
738388.48795517033431679010,-1.48632770775475,0.701620532853175,-297.348628192999
738388.48795526078902184963,-1.48632770775475,0.701620532853175,-297.367091891232
738388.48795535124372690916,-1.44016846217231,0.738547929319132,-297.367091891232
738388.48795544169843196869,-1.42170476393933,0.747779778435621,-297.385555589465
738388.48795553203672170639,-1.40324106570635,0.766243476668599,-297.357860042116
738388.48795562249142676592,-1.36631366924039,0.793939024018067,-297.339396343883
738388.48795571294613182545,-1.4494003112888,0.729316080202643,-297.357860042116
738388.48795580340083688498,-1.42170476393933,0.720084231086154,-297.376323740348
738388.48795589385554194450,-1.41247291482284,0.710852381969665,-297.376323740348
738388.48795598431024700403,-1.4494003112888,0.664693136387219,-297.367091891232
738388.48795607464853674173,-1.38477736747337,0.710852381969665,-297.404019287698
738388.48795616510324180126,-1.42170476393933,0.720084231086154,-297.376323740348
738388.48795625555794686079,-1.32938627277444,0.75701162755211,-297.413251136814
738388.48795634601265192032,-1.26476332895901,0.775475325785089,-297.385555589465
738388.48795643646735697985,-1.32938627277444,0.75701162755211,-297.422482985931
738388.48795652692206203938,-1.31092257454146,0.793939024018067,-297.422482985931
738388.48795661726035177708,-1.20937223426008,0.895489364299448,-297.404019287698
738388.48795670771505683661,-1.44016846217231,0.701620532853175,-297.367091891232
738388.48795679816976189613,-1.5324869533372,0.683156834620197,-297.385555589465
738388.48795688862446695566,-1.47709585863826,0.738547929319132,-297.413251136814
738388.48795697907917201519,-1.50479140598773,0.692388683736686,-297.339396343883
738388.48795706941746175289,-1.55095065157018,0.664693136387219,-297.422482985931
738388.48795715987216681242,-1.52325510422071,0.664693136387219,-297.348628192999
738388.48795725032687187195,-1.55095065157018,0.701620532853175,-297.367091891232
738388.48795734078157693148,-1.56018250068667,0.701620532853175,-297.256309701834
738388.48795743123628199100,-1.46786400952177,0.738547929319132,-297.413251136814
738388.48795752169098705053,-1.43093661305582,0.784707174901578,-297.431714835047
738388.48795761202927678823,-1.40324106570635,0.821634571367534,-297.440946684164
738388.48795770248398184776,-1.50479140598773,0.720084231086154,-297.440946684164
738388.48795779293868690729,-1.58787804803613,0.627765739921262,-297.431714835047
738388.48795788339339196682,-1.60634174626911,0.664693136387219,-297.459410382397
738388.48795797384809702635,-1.62480544450209,0.729316080202643,-297.47787408063
738388.48795806430280208588,-1.42170476393933,0.784707174901578,-297.404019287698
738388.48795815464109182358,-0.461592455824458,0.987807855464339,-297.247077852718
738388.48795824509579688311,0.673924985503708,0.941648609881893,-297.043977172155
738388.48795833555050194263,1.72635578478347,0.636997589037751,-296.896267586291
738388.48795842600520700216,0.997039704580828,0.701620532853175,-296.923963133641
738388.48795851645991206169,-1.44016846217231,0.461592455824458,-297.459410382397
738388.48795860691461712122,-2.0402386547441,0.470824304940947,-297.533265175329
738388.48795869725290685892,-1.88329721976379,0.54467909787286,-297.394787438581
738388.48795878770761191845,-1.63403729361858,0.636997589037751,-297.440946684164
738388.48795887816231697798,-1.49555955687124,0.664693136387219,-297.431714835047
738388.48795896861702203751,-1.4494003112888,0.729316080202643,-297.440946684164
738388.48795905907172709703,-1.38477736747337,0.75701162755211,-297.404019287698
738388.48795914941001683474,-1.32938627277444,0.812402722251045,-297.431714835047
738388.48795923986472189426,-1.2739951780755,0.858561967833491,-297.357860042116
738388.48795933031942695379,-1.38477736747337,0.747779778435621,-297.367091891232
738388.48795942077413201332,-1.4494003112888,0.701620532853175,-297.376323740348
738388.48795951122883707285,-1.38477736747337,0.729316080202643,-297.339396343883
738388.48795960168354213238,-1.32015442365795,0.766243476668599,-297.357860042116
738388.48795969202183187008,-1.29245887630848,0.803170873134556,-297.357860042116
738388.48795978247653692961,-1.30169072542497,0.812402722251045,-297.404019287698
738388.48795987293124198914,-1.31092257454146,0.766243476668599,-297.339396343883
738388.48795996338594704866,-1.25553147984252,0.812402722251045,-297.339396343883
738388.48796005384065210819,-1.17244483779412,0.877025666066469,-297.302468947417
738388.48796014429535716772,-1.13551744132817,0.895489364299448,-297.339396343883
738388.48796023463364690542,-1.13551744132817,0.86779381694998,-297.32093264565
738388.48796032508835196495,-1.15398113956114,0.858561967833491,-297.339396343883
738388.48796041554305702448,-1.09859004486221,0.858561967833491,-297.274773400067
738388.48796050599776208401,-1.01550340281381,0.913953062532426,-297.274773400067
738388.48796059645246714354,-0.941648609881893,0.932416760765404,-297.219382305368
738388.48796068679075688124,-0.877025666066469,0.960112308114872,-297.228614154485
738388.48796077724546194077,-0.803170873134556,0.969344157231361,-297.043977172155
738388.48796086770016700029,-0.673924985503708,1.05243079927976,-297.145527512436
738388.48796095815487205982,-0.600070192571795,1.08012634662923,-297.145527512436
738388.48796104860957711935,-0.553910946989349,1.09859004486221,-297.182454908902
738388.48796113906428217888,-0.535447248756371,1.08935819574572,-297.228614154485
738388.48796122940257191658,-0.618533890804773,0.987807855464339,-297.163991210669
738388.48796131985727697611,-0.692388683736686,0.987807855464339,-297.256309701834
738388.48796141031198203564,-0.821634571367534,0.913953062532426,-297.265541550951
738388.48796150076668709517,-0.987807855464339,0.849330118717002,-297.367091891232
738388.48796159122139215469,-1.08935819574572,0.830866420484023,-297.32093264565
738388.48796168167609721422,-1.14474929044465,0.840098269600513,-297.385555589465
738388.48796177201438695192,-1.29245887630848,0.720084231086154,-297.357860042116
738388.48796186246909201145,-1.2739951780755,0.793939024018067,-297.440946684164
738388.48796195292379707098,-1.3570818201239,0.75701162755211,-297.422482985931
738388.48796204337850213051,-1.32938627277444,0.747779778435621,-297.394787438581
738388.48796213383320719004,-1.37554551835688,0.729316080202643,-297.431714835047
738388.48796222428791224957,-1.42170476393933,0.710852381969665,-297.440946684164
738388.48796231462620198727,-1.33861812189093,0.766243476668599,-297.394787438581
738388.48796240508090704679,-1.3570818201239,0.747779778435621,-297.440946684164
738388.48796249553561210632,-1.41247291482284,0.701620532853175,-297.422482985931
738388.48796258599031716585,-1.32015442365795,0.793939024018067,-297.385555589465
738388.48796267644502222538,-1.38477736747337,0.738547929319132,-297.413251136814
738388.48796276678331196308,-1.44016846217231,0.664693136387219,-297.413251136814
738388.48796285723801702261,-1.41247291482284,0.683156834620197,-297.45017853328
738388.48796294769272208214,-1.40324106570635,0.720084231086154,-297.394787438581
738388.48796303814742714167,-1.40324106570635,0.720084231086154,-297.45017853328
738388.48796312860213220119,-1.39400921658986,0.692388683736686,-297.45017853328
738388.48796321905683726072,-1.37554551835688,0.766243476668599,-297.440946684164
738388.48796330939512699842,-1.33861812189093,0.784707174901578,-297.394787438581
738388.48796339984983205795,-1.2739951780755,0.858561967833491,-297.459410382397
738388.48796349030453711748,-1.41247291482284,0.720084231086154,-297.431714835047
738388.48796358075924217701,-1.38477736747337,0.738547929319132,-297.385555589465
738388.48796367121394723654,-1.33861812189093,0.766243476668599,-297.357860042116
738388.48796376166865229607,-1.41247291482284,0.673924985503708,-297.413251136814
738388.48796385200694203377,-1.46786400952177,0.636997589037751,-297.431714835047
738388.48796394246164709330,-1.4494003112888,0.692388683736686,-297.357860042116
738388.48796403291635215282,-1.39400921658986,0.720084231086154,-297.413251136814
738388.48796412337105721235,-1.37554551835688,0.720084231086154,-297.440946684164
738388.48796421382576227188,-1.36631366924039,0.803170873134556,-297.422482985931
738388.48796430416405200958,-1.37554551835688,0.784707174901578,-297.256309701834
738388.48796439461875706911,-1.43093661305582,0.710852381969665,-297.367091891232
738388.48796448507346212864,-1.42170476393933,0.701620532853175,-297.440946684164
738388.48796457552816718817,-1.33861812189093,0.812402722251045,-297.413251136814
738388.48796466598287224770,-1.40324106570635,0.720084231086154,-297.440946684164
738388.48796475643757730722,-1.44016846217231,0.701620532853175,-297.47787408063
738388.48796484677586704493,-1.42170476393933,0.720084231086154,-297.422482985931
738388.48796493723057210445,-1.4494003112888,0.710852381969665,-297.394787438581
738388.48796502768527716398,-1.46786400952177,0.683156834620197,-297.413251136814
738388.48796511813998222351,-1.43093661305582,0.720084231086154,-297.431714835047
738388.48796520859468728304,-1.4494003112888,0.710852381969665,-297.367091891232
738388.48796529904939234257,-1.34784997100742,0.803170873134556,-297.376323740348
738388.48796538938768208027,-1.3570818201239,0.803170873134556,-297.339396343883
738388.48796547984238713980,-1.48632770775475,0.673924985503708,-297.413251136814
738388.48796557029709219933,-1.46786400952177,0.720084231086154,-297.385555589465
738388.48796566075179725885,-1.44016846217231,0.720084231086154,-297.339396343883
738388.48796575120650231838,-1.45863216040529,0.692388683736686,-297.394787438581
738388.48796584166120737791,-1.49555955687124,0.683156834620197,-297.357860042116
738388.48796593199949711561,-1.50479140598773,0.701620532853175,-297.367091891232
738388.48796602245420217514,-1.45863216040529,0.710852381969665,-297.357860042116
738388.48796611290890723467,-1.42170476393933,0.738547929319132,-297.45017853328
738388.48796620336361229420,-1.39400921658986,0.784707174901578,-297.459410382397
738388.48796629381831735373,-1.30169072542497,0.840098269600513,-297.45017853328
738388.48796638415660709143,-1.36631366924039,0.738547929319132,-297.45017853328
738388.48796647461131215096,-1.45863216040529,0.636997589037751,-297.487105929746
738388.48796656506601721048,-1.43093661305582,0.673924985503708,-297.505569627979
738388.48796665552072227001,-1.36631366924039,0.710852381969665,-297.45017853328
738388.48796674597542732954,-1.24629963072604,0.775475325785089,-297.47787408063
738388.48796683643013238907,-1.33861812189093,0.720084231086154,-297.487105929746
738388.48796692676842212677,-1.40324106570635,0.720084231086154,-297.47787408063
738388.48796701722312718630,-1.38477736747337,0.720084231086154,-297.413251136814
738388.48796710767783224583,-1.41247291482284,0.747779778435621,-297.487105929746
738388.48796719813253730536,-1.47709585863826,0.729316080202643,-297.459410382397
738388.48796728858724236488,-1.40324106570635,0.793939024018067,-297.413251136814
738388.48796737904194742441,-1.37554551835688,0.821634571367534,-297.468642231513
738388.48796746938023716211,-1.52325510422071,0.692388683736686,-297.47787408063
738388.48796755983494222164,-1.52325510422071,0.673924985503708,-297.431714835047
738388.48796765028964728117,-1.55095065157018,0.683156834620197,-297.468642231513
738388.48796774074435234070,-1.56941434980316,0.64622943815424,-297.47787408063
738388.48796783119905740023,-1.5324869533372,0.683156834620197,-297.348628192999
738388.48796792165376245975,-1.51402325510422,0.683156834620197,-297.339396343883
738388.48796801199205219746,-1.52325510422071,0.692388683736686,-297.468642231513
738388.48796810244675725698,-1.49555955687124,0.720084231086154,-297.413251136814
738388.48796819290146231651,-1.47709585863826,0.729316080202643,-297.404019287698
738388.48796828335616737604,-1.50479140598773,0.738547929319132,-297.385555589465
738388.48796837381087243557,-1.48632770775475,0.858561967833491,-297.413251136814
738388.48796846414916217327,-1.40324106570635,0.775475325785089,-297.440946684164
738388.48796855460386723280,-1.0247352519303,0.793939024018067,-297.284005249184
738388.48796864505857229233,0.0830866420484024,0.858561967833491,-297.13629566332
738388.48796873551327735186,1.24629963072604,0.664693136387219,-296.896267586291
738388.48796882596798241138,1.59710989715262,0.664693136387219,-296.813180944243
738388.48796891642268747091,-0.54467909787286,0.618533890804773,-297.256309701834
738388.48796900676097720861,-1.80944242683187,0.563142796105838,-297.524033326212
738388.48796909721568226814,-1.97561571092868,0.526215399639882,-297.514801477096
738388.48796918767038732767,-1.77251503036592,0.600070192571795,-297.45017853328
738388.48796927812509238720,-1.50479140598773,0.729316080202643,-297.367091891232
738388.48796936857979744673,-1.44016846217231,0.720084231086154,-297.376323740348
738388.48796945903450250626,-1.44016846217231,0.710852381969665,-297.376323740348
738388.48796954937279224396,-1.36631366924039,0.75701162755211,-297.413251136814
738388.48796963982749730349,-1.33861812189093,0.821634571367534,-297.413251136814
738388.48796973028220236301,-1.47709585863826,0.701620532853175,-297.422482985931
738388.48796982073690742254,-1.43093661305582,0.710852381969665,-297.422482985931
738388.48796991119161248207,-1.38477736747337,0.747779778435621,-297.431714835047
738388.48797000152990221977,-1.34784997100742,0.775475325785089,-297.431714835047
738388.48797009198460727930,-1.28322702719199,0.821634571367534,-297.394787438581
738388.48797018243931233883,-1.25553147984252,0.840098269600513,-297.422482985931
738388.48797027289401739836,-1.31092257454146,0.775475325785089,-297.440946684164
738388.48797036334872245789,-1.2739951780755,0.784707174901578,-297.431714835047
738388.48797045380342751741,-1.23706778160955,0.803170873134556,-297.394787438581
738388.48797054414171725512,-1.1909085360271,0.840098269600513,-297.394787438581
738388.48797063459642231464,-1.1909085360271,0.840098269600513,-297.413251136814
738388.48797072505112737417,-1.1078218939787,0.895489364299448,-297.422482985931
738388.48797081550583243370,-1.08935819574572,0.895489364299448,-297.330164494766
738388.48797090596053749323,-1.05243079927976,0.895489364299448,-297.367091891232
738388.48797099641524255276,-1.00627155369732,0.895489364299448,-297.385555589465
738388.48797108675353229046,-0.913953062532426,0.932416760765404,-297.237846003601
738388.48797117720823734999,-0.840098269600513,0.97857600634785,-297.247077852718
738388.48797126766294240952,-0.720084231086154,1.0247352519303,-297.210150456252
738388.48797135811764746904,-0.600070192571795,1.08012634662923,-297.080904568621
738388.48797144857235252857,-0.581606494338817,1.06166264839625,-297.099368266854
738388.48797153902705758810,-0.553910946989349,1.07089449751274,-297.219382305368
738388.48797162936534732580,-0.563142796105838,1.05243079927976,-297.219382305368
738388.48797171982005238533,-0.683156834620197,1.00627155369732,-297.284005249184
738388.48797181027475744486,-0.886257515182958,0.895489364299448,-297.330164494766
738388.48797190072946250439,-1.01550340281381,0.858561967833491,-297.376323740348
738388.48797199118416756392,-1.13551744132817,0.812402722251045,-297.330164494766
738388.48797208152245730162,-1.20014038514359,0.821634571367534,-297.45017853328
738388.48797217197716236115,-1.28322702719199,0.784707174901578,-297.413251136814
738388.48797226243186742067,-1.34784997100742,0.738547929319132,-297.459410382397
738388.48797235288657248020,-1.37554551835688,0.710852381969665,-297.413251136814
738388.48797244334127753973,-1.45863216040529,0.683156834620197,-297.376323740348
738388.48797253379598259926,-1.41247291482284,0.729316080202643,-297.404019287698
738388.48797262413427233696,-1.38477736747337,0.747779778435621,-297.413251136814
738388.48797271458897739649,-1.40324106570635,0.729316080202643,-297.468642231513
738388.48797280504368245602,-1.39400921658986,0.738547929319132,-297.422482985931
738388.48797289549838751554,-1.32015442365795,0.849330118717002,-297.47787408063
738388.48797298595309257507,-1.45863216040529,0.701620532853175,-297.440946684164
738388.48797307640779763460,-1.43093661305582,0.738547929319132,-297.45017853328
738388.48797316674608737230,-1.50479140598773,0.65546128727073,-297.431714835047
738388.48797325720079243183,-1.45863216040529,0.720084231086154,-297.440946684164
738388.48797334765549749136,-1.41247291482284,0.738547929319132,-297.357860042116
738388.48797343811020255089,-1.42170476393933,0.766243476668599,-297.404019287698
738388.48797352856490761042,-1.43093661305582,0.738547929319132,-297.376323740348
738388.48797361901961266994,-1.2739951780755,0.877025666066469,-297.394787438581
738388.48797370935790240765,-1.47709585863826,0.692388683736686,-297.413251136814
738388.48797379981260746717,-1.52325510422071,0.636997589037751,-297.459410382397
738388.48797389026731252670,-1.44016846217231,0.701620532853175,-297.45017853328
738388.48797398072201758623,-1.46786400952177,0.692388683736686,-297.459410382397
738388.48797407117672264576,-1.44016846217231,0.701620532853175,-297.376323740348
738388.48797416151501238346,-1.45863216040529,0.710852381969665,-297.376323740348
738388.48797425196971744299,-1.43093661305582,0.738547929319132,-297.413251136814
738388.48797434242442250252,-1.38477736747337,0.793939024018067,-297.413251136814
738388.48797443287912756205,-1.37554551835688,0.793939024018067,-297.459410382397
738388.48797452333383262157,-1.38477736747337,0.747779778435621,-297.413251136814
738388.48797461378853768110,-1.44016846217231,0.720084231086154,-297.468642231513
738388.48797470412682741880,-1.47709585863826,0.701620532853175,-297.404019287698
738388.48797479458153247833,-1.49555955687124,0.65546128727073,-297.468642231513
738388.48797488503623753786,-1.46786400952177,0.673924985503708,-297.385555589465
738388.48797497549094259739,-1.46786400952177,0.738547929319132,-297.311700796533
738388.48797506594564765692,-1.46786400952177,0.75701162755211,-297.440946684164
738388.48797515640035271645,-1.40324106570635,0.784707174901578,-297.487105929746
738388.48797524673864245415,-1.44016846217231,0.738547929319132,-297.440946684164
738388.48797533719334751368,-1.42170476393933,0.775475325785089,-297.45017853328
738388.48797542764805257320,-1.54171880245369,0.65546128727073,-297.468642231513
738388.48797551810275763273,-1.4494003112888,0.747779778435621,-297.47787408063
738388.48797560855746269226,-1.5324869533372,0.664693136387219,-297.440946684164
738388.48797569889575242996,-1.5324869533372,0.64622943815424,-297.496337778863
738388.48797578935045748949,-1.49555955687124,0.710852381969665,-297.496337778863
738388.48797587980516254902,-1.4494003112888,0.766243476668599,-297.404019287698
738388.48797597025986760855,-1.47709585863826,0.729316080202643,-297.45017853328
738388.48797606071457266808,-1.51402325510422,0.701620532853175,-297.459410382397
738388.48797615116927772760,-1.44016846217231,0.747779778435621,-297.47787408063
738388.48797624150756746531,-1.39400921658986,0.793939024018067,-297.394787438581
738388.48797633196227252483,-1.39400921658986,0.766243476668599,-297.505569627979
738388.48797642241697758436,-1.50479140598773,0.65546128727073,-297.487105929746
738388.48797651287168264389,-1.40324106570635,0.701620532853175,-297.459410382397
738388.48797660332638770342,-1.3570818201239,0.720084231086154,-297.45017853328
738388.48797669378109276295,-1.36631366924039,0.75701162755211,-297.459410382397
738388.48797678411938250065,-1.37554551835688,0.775475325785089,-297.47787408063
738388.48797687457408756018,-1.40324106570635,0.75701162755211,-297.487105929746
738388.48797696502879261971,-1.40324106570635,0.803170873134556,-297.459410382397
738388.48797705548349767923,-1.43093661305582,0.784707174901578,-297.440946684164
738388.48797714593820273876,-1.5324869533372,0.673924985503708,-297.422482985931
738388.48797723639290779829,-1.6155735953856,0.627765739921262,-297.440946684164
738388.48797732673119753599,-1.56941434980316,0.664693136387219,-297.413251136814
738388.48797741718590259552,-1.54171880245369,0.701620532853175,-297.422482985931
738388.48797750764060765505,-1.49555955687124,0.775475325785089,-297.431714835047
738388.48797759809531271458,-1.55095065157018,0.692388683736686,-297.385555589465
