time_dn,ecg_projection_ll_ra_mV,ecg_projection_la_ra_mV,ecg_projection_vx_rl_mV
738311.53548744227737188339,4.89903459781691,-0.135400453708508,339.079663482569
738311.53548753273207694292,4.28357799005097,-1.16936755475529,338.981190425326
738311.53548762318678200245,4.00046795047863,-1.90791548407442,338.882717368084
738311.53548771364148706198,3.92661315754672,-1.83406069114251,338.931953896705
738311.53548780409619212151,4.08663187556586,-1.67404197312337,339.055045218258
738311.53548789455089718103,4.24665059358501,-1.51402325510422,339.178136539811
738311.53548798512201756239,4.28357799005097,-1.47709585863826,339.12890001119
738311.53548807557672262192,4.28357799005097,-1.47709585863826,339.165827407656
738311.53548816603142768145,4.28357799005097,-1.45247759432763,339.215063936277
738311.53548825648613274097,4.28357799005097,-1.45247759432763,339.239682200588
738311.53548834694083780050,4.29588712220628,-1.45247759432763,339.215063936277
738311.53548843751195818186,4.32050538651692,-1.44016846217231,339.251991332743
738311.53548852796666324139,4.32050538651692,-1.41555019786167,339.079663482569
738311.53548861842136830091,4.3081962543616,-1.42785933001699,339.079663482569
738311.53548870887607336044,4.3081962543616,-1.42785933001699,339.227373068433
738311.53548879933077841997,4.33281451867224,-1.41555019786167,339.301227861365
738311.53548888978548347950,4.33281451867224,-1.40324106570635,339.153518275501
738311.53548898035660386086,4.33281451867224,-1.40324106570635,339.202754804122
738311.53548907081130892038,4.35743278298288,-1.37862280139571,339.239682200588
738311.53548916126601397991,4.35743278298288,-1.36631366924039,339.276609597054
738311.53548925172071903944,4.35743278298288,-1.35400453708508,339.202754804122
738311.53548934217542409897,4.3697419151382,-1.34169540492976,339.251991332743
738311.53548943263012915850,4.38205104729352,-1.31707714061912,339.264300464899
738311.53548952320124953985,4.38205104729352,-1.31707714061912,339.301227861365
738311.53548961365595459938,4.39436017944884,-1.26784061199784,339.227373068433
738311.53548970411065965891,4.41897844375947,-1.25553147984252,339.178136539811
738311.53548979456536471844,4.43128757591479,-1.21860408337657,339.178136539811
738311.53548988502006977797,4.44359670807011,-1.20629495122125,339.215063936277
738311.53548997559119015932,4.45590584022543,-1.18167668691061,339.276609597054
738311.53549006604589521885,4.45590584022543,-1.16936755475529,339.276609597054
738311.53549015650060027838,4.45590584022543,-1.18167668691061,339.227373068433
738311.53549024695530533791,4.44359670807011,-1.19398581906593,339.251991332743
738311.53549033741001039743,4.43128757591479,-1.23091321553189,339.276609597054
738311.53549042786471545696,4.41897844375947,-1.26784061199784,339.251991332743
738311.53549051843583583832,4.39436017944884,-1.31707714061912,339.202754804122
738311.53549060889054089785,4.35743278298288,-1.35400453708508,339.190445671967
738311.53549069934524595737,4.34512365082756,-1.37862280139571,339.153518275501
738311.53549078979995101690,4.32050538651692,-1.40324106570635,339.178136539811
738311.53549088025465607643,4.32050538651692,-1.41555019786167,339.153518275501
738311.53549097070936113596,4.3081962543616,-1.41555019786167,339.10428174688
738311.53549106128048151731,4.3081962543616,-1.42785933001699,339.091972614724
738311.53549115173518657684,4.28357799005097,-1.45247759432763,339.141209143345
738311.53549124218989163637,4.28357799005097,-1.42785933001699,339.141209143345
738311.53549133264459669590,4.27126885789565,-1.44016846217231,339.116590879035
738311.53549142309930175543,4.27126885789565,-1.44016846217231,339.165827407656
738311.53549151355400681496,4.27126885789565,-1.45247759432763,339.10428174688
738311.53549160412512719631,4.27126885789565,-1.46478672648295,339.141209143345
738311.53549169457983225584,4.27126885789565,-1.46478672648295,339.190445671967
738311.53549178503453731537,4.25895972574033,-1.47709585863826,339.165827407656
738311.53549187548924237490,4.27126885789565,-1.45247759432763,339.215063936277
738311.53549196594394743443,4.28357799005097,-1.46478672648295,339.202754804122
738311.53549205651506781578,4.28357799005097,-1.46478672648295,339.067354350414
738311.53549214696977287531,4.27126885789565,-1.46478672648295,339.12890001119
738311.53549223742447793484,4.27126885789565,-1.46478672648295,339.227373068433
738311.53549232787918299437,4.27126885789565,-1.46478672648295,339.091972614724
738311.53549241833388805389,4.27126885789565,-1.47709585863826,339.190445671967
738311.53549250878859311342,4.27126885789565,-1.46478672648295,339.264300464899
738311.53549259935971349478,4.27126885789565,-1.45247759432763,339.178136539811
738311.53549268981441855431,4.27126885789565,-1.46478672648295,339.202754804122
738311.53549278026912361383,4.25895972574033,-1.46478672648295,339.239682200588
738311.53549287072382867336,4.25895972574033,-1.46478672648295,339.251991332743
738311.53549296117853373289,4.25895972574033,-1.46478672648295,339.12890001119
738311.53549305163323879242,4.25895972574033,-1.47709585863826,339.227373068433
738311.53549314220435917377,4.25895972574033,-1.48940499079358,339.239682200588
738311.53549323265906423330,4.24665059358501,-1.47709585863826,339.239682200588
738311.53549332311376929283,4.25895972574033,-1.46478672648295,339.215063936277
738311.53549341356847435236,4.25895972574033,-1.47709585863826,339.264300464899
738311.53549350402317941189,4.23434146142969,-1.47709585863826,339.227373068433
738311.53549359459429979324,4.23434146142969,-1.48940499079358,339.215063936277
738311.53549368504900485277,4.23434146142969,-1.47709585863826,339.264300464899
738311.53549377550370991230,4.24665059358501,-1.47709585863826,339.12890001119
738311.53549386595841497183,4.23434146142969,-1.47709585863826,339.10428174688
738311.53549395641312003136,4.24665059358501,-1.48940499079358,339.227373068433
738311.53549404686782509089,4.23434146142969,-1.48940499079358,339.227373068433
738311.53549413743894547224,4.23434146142969,-1.47709585863826,339.227373068433
738311.53549422789365053177,4.24665059358501,-1.47709585863826,339.227373068433
738311.53549431834835559130,4.24665059358501,-1.47709585863826,339.264300464899
738311.53549440880306065083,4.22203232927437,-1.47709585863826,339.264300464899
738311.53549449925776571035,4.22203232927437,-1.47709585863826,339.153518275501
738311.53549458971247076988,4.24665059358501,-1.46478672648295,339.116590879035
738311.53549468028359115124,4.24665059358501,-1.45247759432763,339.165827407656
738311.53549477073829621077,4.25895972574033,-1.41555019786167,339.178136539811
738311.53549486119300127029,4.28357799005097,-1.40324106570635,339.178136539811
738311.53549495164770632982,4.29588712220628,-1.40324106570635,339.165827407656
738311.53549504210241138935,4.27126885789565,-1.41555019786167,339.178136539811
738311.53549513267353177071,4.27126885789565,-1.41555019786167,339.251991332743
738311.53549522312823683023,4.25895972574033,-1.41555019786167,339.153518275501
738311.53549531358294188976,4.25895972574033,-1.42785933001699,339.264300464899
738311.53549540403764694929,4.23434146142969,-1.46478672648295,339.215063936277
738311.53549549449235200882,4.23434146142969,-1.48940499079358,339.153518275501
738311.53549558494705706835,4.20972319711905,-1.48940499079358,339.055045218258
738311.53549567551817744970,4.23434146142969,-1.48940499079358,339.141209143345
738311.53549576597288250923,4.23434146142969,-1.5017141229489,339.215063936277
738311.53549585642758756876,4.23434146142969,-1.5017141229489,339.202754804122
738311.53549594688229262829,4.23434146142969,-1.48940499079358,339.215063936277
738311.53549603733699768782,4.23434146142969,-1.5017141229489,339.227373068433
738311.53549612779170274734,4.29588712220628,-1.5017141229489,339.264300464899
738311.53549621836282312870,4.44359670807011,-1.28014974415316,339.276609597054
738311.53549630881752818823,4.65285195471053,-0.861639250872321,339.448937447228
738311.53549639927223324776,5.13290810876797,-0.233873510951058,339.227373068433
738311.53549648972693830729,5.09598071230201,-0.147709585863826,339.141209143345
738311.53549658018164336681,4.80056154057436,-0.443128757591479,339.091972614724
738311.53549667063634842634,4.22203232927437,-1.47709585863826,339.042736086103
738311.53549676120746880770,4.04970447909991,-2.01869767347229,338.931953896705
738311.53549685166217386723,3.88968576108076,-1.93253374838506,338.94426302886
738311.53549694211687892675,3.98815881832331,-1.78482416252124,339.067354350414
738311.53549703257158398628,4.16048666849778,-1.61249631234677,339.202754804122
738311.53549712302628904581,4.23434146142969,-1.51402325510422,339.141209143345
738311.53549721359740942717,4.27126885789565,-1.48940499079358,339.215063936277
738311.53549730405211448669,4.27126885789565,-1.48940499079358,339.251991332743
738311.53549739450681954622,4.28357799005097,-1.46478672648295,339.251991332743
738311.53549748496152460575,4.28357799005097,-1.47709585863826,339.153518275501
738311.53549757541622966528,4.28357799005097,-1.46478672648295,339.239682200588
738311.53549766587093472481,4.28357799005097,-1.45247759432763,339.276609597054
738311.53549775644205510616,4.29588712220628,-1.42785933001699,339.178136539811
738311.53549784689676016569,4.29588712220628,-1.42785933001699,339.178136539811
738311.53549793735146522522,4.3081962543616,-1.42785933001699,339.165827407656
738311.53549802780617028475,4.3081962543616,-1.42785933001699,339.141209143345
738311.53549811826087534428,4.32050538651692,-1.40324106570635,339.178136539811
738311.53549820871558040380,4.32050538651692,-1.39093193355103,339.178136539811
738311.53549829928670078516,4.33281451867224,-1.37862280139571,339.227373068433
738311.53549838974140584469,4.35743278298288,-1.35400453708508,339.215063936277
738311.53549848019611090422,4.35743278298288,-1.34169540492976,339.264300464899
738311.53549857065081596375,4.35743278298288,-1.32938627277444,339.251991332743
738311.53549866110552102327,4.35743278298288,-1.3047680084638,339.202754804122
738311.53549875167664140463,4.38205104729352,-1.26784061199784,339.288918729209
738311.53549884213134646416,4.38205104729352,-1.24322234768721,339.251991332743
738311.53549893258605152369,4.39436017944884,-1.21860408337657,339.264300464899
738311.53549902304075658321,4.40666931160415,-1.20629495122125,339.276609597054
738311.53549911349546164274,4.39436017944884,-1.19398581906593,339.178136539811
738311.53549920395016670227,4.40666931160415,-1.19398581906593,339.202754804122
738311.53549929452128708363,4.39436017944884,-1.20629495122125,339.301227861365
738311.53549938497599214315,4.40666931160415,-1.23091321553189,339.190445671967
738311.53549947543069720268,4.39436017944884,-1.26784061199784,339.276609597054
738311.53549956588540226221,4.3697419151382,-1.31707714061912,339.264300464899
738311.53549965634010732174,4.34512365082756,-1.35400453708508,339.239682200588
738311.53549974679481238127,4.33281451867224,-1.39093193355103,339.202754804122
738311.53549983736593276262,4.3081962543616,-1.41555019786167,339.215063936277
738311.53549992782063782215,4.29588712220628,-1.44016846217231,339.227373068433
738311.53550001827534288168,4.27126885789565,-1.46478672648295,339.067354350414
738311.53550010873004794121,4.27126885789565,-1.46478672648295,339.190445671967
738311.53550019918475300074,4.25895972574033,-1.46478672648295,339.215063936277
738311.53550028963945806026,4.25895972574033,-1.47709585863826,339.202754804122
738311.53550038021057844162,4.24665059358501,-1.48940499079358,339.116590879035
738311.53550047066528350115,4.24665059358501,-1.5017141229489,339.178136539811
738311.53550056111998856068,4.23434146142969,-1.5017141229489,339.215063936277
738311.53550065157469362020,4.23434146142969,-1.51402325510422,339.202754804122
738311.53550074202939867973,4.23434146142969,-1.5017141229489,339.141209143345
738311.53550083260051906109,4.23434146142969,-1.5017141229489,339.215063936277
738311.53550092305522412062,4.23434146142969,-1.48940499079358,339.215063936277
738311.53550101350992918015,4.23434146142969,-1.48940499079358,339.202754804122
738311.53550110396463423967,4.24665059358501,-1.47709585863826,339.202754804122
738311.53550119441933929920,4.25895972574033,-1.47709585863826,339.202754804122
738311.53550128487404435873,4.25895972574033,-1.47709585863826,339.215063936277
738311.53550137544516474009,4.24665059358501,-1.47709585863826,339.165827407656
738311.53550146589986979961,4.24665059358501,-1.46478672648295,339.215063936277
738311.53550155635457485914,4.24665059358501,-1.46478672648295,339.215063936277
738311.53550164680927991867,4.23434146142969,-1.47709585863826,339.202754804122
738311.53550173726398497820,4.23434146142969,-1.46478672648295,339.215063936277
738311.53550182771869003773,4.23434146142969,-1.47709585863826,339.165827407656
738311.53550191828981041908,4.23434146142969,-1.47709585863826,339.153518275501
738311.53550200874451547861,4.23434146142969,-1.47709585863826,339.153518275501
738311.53550209919922053814,4.22203232927437,-1.48940499079358,339.165827407656
738311.53550218965392559767,4.20972319711905,-1.47709585863826,339.178136539811
738311.53550228010863065720,4.22203232927437,-1.47709585863826,339.178136539811
738311.53550237067975103855,4.20972319711905,-1.47709585863826,339.227373068433
738311.53550246113445609808,4.20972319711905,-1.47709585863826,339.227373068433
738311.53550255158916115761,4.19741406496373,-1.48940499079358,339.227373068433
738311.53550264204386621714,4.20972319711905,-1.47709585863826,339.116590879035
738311.53550273249857127666,4.19741406496373,-1.48940499079358,339.091972614724
738311.53550282295327633619,4.19741406496373,-1.48940499079358,339.165827407656
738311.53550291352439671755,4.18510493280842,-1.5017141229489,339.165827407656
738311.53550300397910177708,4.19741406496373,-1.47709585863826,339.165827407656
738311.53550309443380683661,4.18510493280842,-1.46478672648295,339.165827407656
738311.53550318488851189613,4.19741406496373,-1.46478672648295,339.202754804122
738311.53550327534321695566,4.18510493280842,-1.46478672648295,339.165827407656
738311.53550336579792201519,4.22203232927437,-1.41555019786167,339.264300464899
738311.53550345636904239655,4.24665059358501,-1.39093193355103,339.31353699352
738311.53550354682374745607,4.23434146142969,-1.41555019786167,339.239682200588
738311.53550363727845251560,4.22203232927437,-1.42785933001699,339.165827407656
738311.53550372773315757513,4.23434146142969,-1.39093193355103,339.276609597054
738311.53550381818786263466,4.22203232927437,-1.46478672648295,339.31353699352
738311.53550390864256769419,4.22203232927437,-1.40324106570635,339.264300464899
738311.53550399921368807554,4.19741406496373,-1.41555019786167,339.288918729209
738311.53550408966839313507,4.19741406496373,-1.45247759432763,339.239682200588
738311.53550418012309819460,4.1727958006531,-1.46478672648295,339.153518275501
738311.53550427057780325413,4.16048666849778,-1.46478672648295,339.239682200588
738311.53550436103250831366,4.1727958006531,-1.46478672648295,339.301227861365
738311.53550445160362869501,4.16048666849778,-1.46478672648295,339.202754804122
738311.53550454205833375454,4.1727958006531,-1.47709585863826,339.178136539811
738311.53550463251303881407,4.1727958006531,-1.47709585863826,339.190445671967
738311.53550472296774387360,4.20972319711905,-1.5017141229489,339.178136539811
738311.53550481342244893312,4.33281451867224,-1.36631366924039,339.288918729209
738311.53550490387715399265,4.54206976531266,-0.972421440270191,339.436628315073
738311.53550499444827437401,5.0221259193701,-0.369273964659566,339.227373068433
738311.53550508490297943354,5.23138116601052,-0.0246182643106377,339.018117821792
738311.53550517535768449306,4.62823369039989,-0.492365286212755,339.165827407656
738311.53550526581238955259,4.08663187556586,-1.5017141229489,339.018117821792
738311.53550535626709461212,3.80352183599353,-1.9571520126957,338.907335632394
738311.53550544672179967165,3.82814010030417,-1.83406069114251,339.042736086103
738311.53550553729292005301,3.98815881832331,-1.67404197312337,339.091972614724
738311.53550562774762511253,4.13586840418714,-1.52633238725954,339.141209143345
738311.53550571820233017206,4.18510493280842,-1.47709585863826,339.215063936277
738311.53550580865703523159,4.18510493280842,-1.46478672648295,339.215063936277
738311.53550589911174029112,4.18510493280842,-1.46478672648295,339.215063936277
738311.53550598968286067247,4.19741406496373,-1.46478672648295,339.215063936277
738311.53550608013756573200,4.19741406496373,-1.45247759432763,339.239682200588
738311.53550617059227079153,4.19741406496373,-1.45247759432763,339.178136539811
738311.53550626104697585106,4.20972319711905,-1.42785933001699,339.067354350414
738311.53550635150168091059,4.20972319711905,-1.41555019786167,339.239682200588
738311.53550644195638597012,4.22203232927437,-1.41555019786167,339.227373068433
738311.53550653252750635147,4.22203232927437,-1.41555019786167,339.153518275501
738311.53550662298221141100,4.23434146142969,-1.40324106570635,339.165827407656
738311.53550671343691647053,4.23434146142969,-1.39093193355103,339.178136539811
738311.53550680389162153006,4.23434146142969,-1.39093193355103,339.116590879035
738311.53550689434632658958,4.24665059358501,-1.36631366924039,339.165827407656
738311.53550698480103164911,4.25895972574033,-1.35400453708508,339.227373068433
738311.53550707537215203047,4.27126885789565,-1.32938627277444,339.276609597054
738311.53550716582685709000,4.28357799005097,-1.3047680084638,339.227373068433
738311.53550725628156214952,4.3081962543616,-1.28014974415316,339.288918729209
738311.53550734673626720905,4.3081962543616,-1.24322234768721,339.288918729209
738311.53550743719097226858,4.32050538651692,-1.21860408337657,339.276609597054
738311.53550752764567732811,4.33281451867224,-1.20629495122125,339.301227861365
738311.53550761821679770947,4.33281451867224,-1.18167668691061,339.301227861365
738311.53550770867150276899,4.33281451867224,-1.18167668691061,339.31353699352
738311.53550779912620782852,4.32050538651692,-1.16936755475529,339.264300464899
738311.53550788958091288805,4.32050538651692,-1.18167668691061,339.325846125675
738311.53550798003561794758,4.3081962543616,-1.20629495122125,339.264300464899
738311.53550807060673832893,4.29588712220628,-1.23091321553189,339.276609597054
738311.53550816106144338846,4.25895972574033,-1.29245887630848,339.178136539811
738311.53550825151614844799,4.25895972574033,-1.31707714061912,339.276609597054
738311.53550834197085350752,4.20972319711905,-1.36631366924039,339.264300464899
738311.53550843242555856705,4.19741406496373,-1.37862280139571,339.178136539811
738311.53550852288026362658,4.18510493280842,-1.40324106570635,339.153518275501
738311.53550861345138400793,4.1727958006531,-1.41555019786167,339.215063936277
738311.53550870390608906746,4.16048666849778,-1.42785933001699,339.178136539811
738311.53550879436079412699,4.14817753634246,-1.42785933001699,339.215063936277
738311.53550888481549918652,4.13586840418714,-1.42785933001699,339.165827407656
738311.53550897527020424604,4.13586840418714,-1.42785933001699,339.190445671967
738311.53550906572490930557,4.12355927203182,-1.44016846217231,339.251991332743
738311.53550915629602968693,4.12355927203182,-1.44016846217231,339.239682200588
738311.53550924675073474646,4.12355927203182,-1.45247759432763,339.239682200588
738311.53550933720543980598,4.12355927203182,-1.45247759432763,339.276609597054
738311.53550942766014486551,4.1112501398765,-1.46478672648295,339.288918729209
738311.53550951811484992504,4.12355927203182,-1.45247759432763,339.288918729209
738311.53550960868597030640,4.12355927203182,-1.45247759432763,339.239682200588
738311.53550969914067536592,4.12355927203182,-1.45247759432763,339.264300464899
738311.53550978959538042545,4.14817753634246,-1.44016846217231,339.12890001119
738311.53550988005008548498,4.13586840418714,-1.44016846217231,339.239682200588
738311.53550997050479054451,4.12355927203182,-1.44016846217231,339.301227861365
738311.53551006095949560404,4.12355927203182,-1.44016846217231,339.31353699352
738311.53551015153061598539,4.12355927203182,-1.44016846217231,339.288918729209
738311.53551024198532104492,4.12355927203182,-1.44016846217231,339.264300464899
738311.53551033244002610445,4.12355927203182,-1.42785933001699,339.251991332743
738311.53551042289473116398,4.09894100772118,-1.45247759432763,339.251991332743
738311.53551051334943622351,4.12355927203182,-1.42785933001699,339.227373068433
738311.53551060380414128304,4.08663187556586,-1.45247759432763,339.251991332743
738311.53551069437526166439,4.1112501398765,-1.42785933001699,339.251991332743
738311.53551078482996672392,4.08663187556586,-1.42785933001699,339.227373068433
738311.53551087528467178345,4.09894100772118,-1.42785933001699,339.251991332743
738311.53551096573937684298,4.06201361125523,-1.46478672648295,339.264300464899
738311.53551105619408190250,4.07432274341055,-1.44016846217231,339.227373068433
738311.53551114664878696203,4.07432274341055,-1.45247759432763,339.251991332743
738311.53551123721990734339,4.07432274341055,-1.42785933001699,339.251991332743
738311.53551132767461240292,4.06201361125523,-1.44016846217231,339.10428174688
738311.53551141812931746244,4.07432274341055,-1.42785933001699,339.239682200588
738311.53551150858402252197,4.06201361125523,-1.44016846217231,339.202754804122
738311.53551159903872758150,4.06201361125523,-1.45247759432763,339.141209143345
738311.53551168960984796286,4.07432274341055,-1.44016846217231,339.178136539811
738311.53551178006455302238,4.06201361125523,-1.44016846217231,339.178136539811
738311.53551187051925808191,4.06201361125523,-1.42785933001699,339.165827407656
738311.53551196097396314144,4.06201361125523,-1.44016846217231,339.178136539811
738311.53551205142866820097,4.06201361125523,-1.42785933001699,339.178136539811
738311.53551214188337326050,4.04970447909991,-1.42785933001699,339.202754804122
738311.53551223245449364185,4.03739534694459,-1.44016846217231,339.165827407656
738311.53551232290919870138,4.04970447909991,-1.42785933001699,339.239682200588
738311.53551241336390376091,4.03739534694459,-1.42785933001699,339.251991332743
738311.53551250381860882044,4.03739534694459,-1.44016846217231,339.264300464899
738311.53551259427331387997,4.03739534694459,-1.42785933001699,339.264300464899
738311.53551268472801893950,4.03739534694459,-1.42785933001699,339.288918729209
738311.53551277529913932085,4.03739534694459,-1.42785933001699,339.215063936277
738311.53551286575384438038,4.03739534694459,-1.42785933001699,339.288918729209
738311.53551295620854943991,4.02508621478927,-1.44016846217231,339.276609597054
738311.53551304666325449944,4.03739534694459,-1.41555019786167,339.301227861365
738311.53551313711795955896,4.01277708263395,-1.44016846217231,339.190445671967
738311.53551322768907994032,4.02508621478927,-1.42785933001699,338.993499557482
738311.53551331814378499985,4.02508621478927,-1.42785933001699,339.067354350414
738311.53551340859849005938,4.03739534694459,-1.41555019786167,339.301227861365
738311.53551349905319511890,4.02508621478927,-1.42785933001699,339.338155257831
738311.53551358950790017843,4.00046795047863,-1.44016846217231,339.190445671967
738311.53551367996260523796,4.02508621478927,-1.41555019786167,339.301227861365
738311.53551377053372561932,4.01277708263395,-1.41555019786167,339.276609597054
738311.53551386098843067884,4.01277708263395,-1.44016846217231,339.251991332743
738311.53551395144313573837,4.01277708263395,-1.42785933001699,339.301227861365
738311.53551404189784079790,4.02508621478927,-1.41555019786167,339.288918729209
738311.53551413235254585743,4.01277708263395,-1.41555019786167,339.301227861365
738311.53551422280725091696,4.01277708263395,-1.42785933001699,339.276609597054
738311.53551431337837129831,4.01277708263395,-1.42785933001699,339.288918729209
738311.53551440383307635784,4.01277708263395,-1.41555019786167,339.325846125675
738311.53551449428778141737,4.00046795047863,-1.41555019786167,339.227373068433
738311.53551458474248647690,4.00046795047863,-1.41555019786167,339.338155257831
738311.53551467519719153643,4.00046795047863,-1.41555019786167,339.325846125675
738311.53551476565189659595,4.01277708263395,-1.40324106570635,339.264300464899
738311.53551485622301697731,3.98815881832331,-1.42785933001699,339.301227861365
738311.53551494667772203684,4.00046795047863,-1.41555019786167,339.31353699352
738311.53551503713242709637,3.98815881832331,-1.41555019786167,339.276609597054
738311.53551512758713215590,3.98815881832331,-1.41555019786167,339.288918729209
738311.53551521804183721542,3.98815881832331,-1.41555019786167,339.31353699352
738311.53551530861295759678,4.00046795047863,-1.40324106570635,339.338155257831
738311.53551539906766265631,3.98815881832331,-1.41555019786167,339.251991332743
738311.53551548952236771584,3.98815881832331,-1.41555019786167,339.325846125675
738311.53551557997707277536,4.01277708263395,-1.40324106570635,339.276609597054
738311.53551567043177783489,4.01277708263395,-1.40324106570635,339.251991332743
738311.53551576088648289442,4.01277708263395,-1.40324106570635,339.178136539811
738311.53551585145760327578,4.02508621478927,-1.39093193355103,339.190445671967
738311.53551594191230833530,4.06201361125523,-1.32938627277444,339.215063936277
738311.53551603236701339483,4.04970447909991,-1.32938627277444,339.190445671967
738311.53551612282171845436,4.04970447909991,-1.34169540492976,339.215063936277
738311.53551621327642351389,4.02508621478927,-1.34169540492976,339.239682200588
738311.53551630373112857342,4.01277708263395,-1.35400453708508,339.202754804122
738311.53551639430224895477,4.01277708263395,-1.36631366924039,339.239682200588
738311.53551648475695401430,3.97584968616799,-1.40324106570635,339.215063936277
738311.53551657521165907383,3.97584968616799,-1.41555019786167,339.288918729209
738311.53551666566636413336,3.98815881832331,-1.37862280139571,339.251991332743
738311.53551675612106919289,3.95123142185736,-1.40324106570635,339.079663482569
738311.53551684669218957424,3.96354055401268,-1.40324106570635,339.165827407656
738311.53551693714689463377,3.96354055401268,-1.40324106570635,339.362773522141
738311.53551702760159969330,3.95123142185736,-1.40324106570635,339.165827407656
738311.53551711805630475283,3.97584968616799,-1.41555019786167,339.288918729209
738311.53551720851100981236,4.04970447909991,-1.40324106570635,339.338155257831
738311.53551729896571487188,4.19741406496373,-1.12013102613402,339.485864843694
738311.53551738953683525324,4.5666880296233,-0.640074872076581,339.301227861365
738311.53551747999154031277,5.20676290169988,0.0861639250872321,338.882717368084
738311.53551757044624537230,4.92365286212755,0.0615456607765943,338.993499557482
738311.53551766090095043182,4.1112501398765,-0.849330118717002,339.10428174688
738311.53551775135565549135,3.70504877875098,-1.72327850174464,339.005808689637
738311.53551784181036055088,3.55733919288715,-1.80944242683187,339.042736086103
738311.53551793238148093224,3.70504877875098,-1.67404197312337,339.190445671967
738311.53551802283618599176,3.88968576108076,-1.47709585863826,339.288918729209
738311.53551811329089105129,3.96354055401268,-1.41555019786167,339.251991332743
738311.53551820374559611082,3.96354055401268,-1.41555019786167,339.264300464899
738311.53551829420030117035,3.95123142185736,-1.41555019786167,339.288918729209
738311.53551838465500622988,3.98815881832331,-1.39093193355103,339.288918729209
738311.53551847522612661123,3.96354055401268,-1.40324106570635,339.264300464899
738311.53551856568083167076,3.98815881832331,-1.37862280139571,339.301227861365
738311.53551865613553673029,3.98815881832331,-1.36631366924039,339.301227861365
738311.53551874659024178982,3.98815881832331,-1.36631366924039,339.251991332743
738311.53551883704494684935,3.98815881832331,-1.37862280139571,339.301227861365
738311.53551892761606723070,3.98815881832331,-1.35400453708508,339.31353699352
738311.53551901807077229023,4.00046795047863,-1.35400453708508,339.301227861365
738311.53551910852547734976,4.01277708263395,-1.32938627277444,339.251991332743
738311.53551919898018240929,4.01277708263395,-1.31707714061912,339.325846125675
738311.53551928943488746881,4.00046795047863,-1.32938627277444,339.325846125675
738311.53551937988959252834,4.01277708263395,-1.31707714061912,339.251991332743
738311.53551947046071290970,4.04970447909991,-1.26784061199784,339.215063936277
738311.53551956091541796923,4.03739534694459,-1.28014974415316,339.338155257831
738311.53551965137012302876,4.02508621478927,-1.29245887630848,339.362773522141
738311.53551974182482808828,4.07432274341055,-1.23091321553189,339.325846125675
738311.53551983227953314781,4.08663187556586,-1.20629495122125,339.350464389986
738311.53551992273423820734,4.09894100772118,-1.16936755475529,339.362773522141
738311.53552001330535858870,4.09894100772118,-1.15705842259997,339.387391786452
738311.53552010376006364822,4.09894100772118,-1.13244015828934,339.31353699352
738311.53552019421476870775,4.1112501398765,-1.13244015828934,339.399700918607
738311.53552028466947376728,4.08663187556586,-1.13244015828934,339.215063936277
738311.53552037512417882681,4.12355927203182,-1.1078218939787,339.264300464899
738311.53552046569529920816,4.07432274341055,-1.16936755475529,339.350464389986
738311.53552055615000426769,4.06201361125523,-1.19398581906593,339.362773522141
738311.53552064660470932722,4.03739534694459,-1.24322234768721,339.350464389986
738311.53552073705941438675,4.02508621478927,-1.26784061199784,339.264300464899
738311.53552082751411944628,4.01277708263395,-1.26784061199784,339.325846125675
738311.53552091796882450581,4.00046795047863,-1.28014974415316,339.31353699352
738311.53552100853994488716,3.97584968616799,-1.34169540492976,339.31353699352
738311.53552109899464994669,3.95123142185736,-1.35400453708508,339.264300464899
738311.53552118944935500622,3.95123142185736,-1.36631366924039,339.276609597054
738311.53552127990406006575,3.93892228970204,-1.35400453708508,339.202754804122
738311.53552137035876512527,3.93892228970204,-1.31707714061912,339.31353699352
738311.53552146081347018480,3.95123142185736,-1.34169540492976,339.350464389986
738311.53552155138459056616,3.93892228970204,-1.35400453708508,339.288918729209
738311.53552164183929562569,3.95123142185736,-1.35400453708508,339.31353699352
738311.53552173229400068521,3.96354055401268,-1.34169540492976,339.31353699352
738311.53552182274870574474,3.93892228970204,-1.39093193355103,339.325846125675
738311.53552191320341080427,3.95123142185736,-1.39093193355103,339.288918729209
738311.53552200377453118563,4.00046795047863,-1.34169540492976,339.325846125675
738311.53552209422923624516,4.00046795047863,-1.36631366924039,339.325846125675
738311.53552218468394130468,4.00046795047863,-1.39093193355103,339.251991332743
738311.53552227513864636421,3.98815881832331,-1.44016846217231,339.31353699352
738311.53552236559335142374,4.02508621478927,-1.41555019786167,339.338155257831
738311.53552245604805648327,4.07432274341055,-1.39093193355103,339.325846125675
738311.53552254661917686462,4.14817753634246,-1.31707714061912,339.362773522141
738311.53552263707388192415,4.14817753634246,-1.35400453708508,339.375082654296
738311.53552272752858698368,4.14817753634246,-1.37862280139571,339.362773522141
738311.53552281798329204321,4.16048666849778,-1.40324106570635,339.325846125675
738311.53552290843799710274,4.13586840418714,-1.41555019786167,339.375082654296
738311.53552299889270216227,4.19741406496373,-1.39093193355103,339.375082654296
738311.53552308946382254362,4.19741406496373,-1.41555019786167,339.362773522141
738311.53552317991852760315,4.27126885789565,-1.37862280139571,339.362773522141
738311.53552327037323266268,4.3081962543616,-1.39093193355103,339.350464389986
738311.53552336082793772221,4.32050538651692,-1.41555019786167,339.362773522141
738311.53552345128264278173,4.3697419151382,-1.40324106570635,339.350464389986
738311.53552354173734784126,4.38205104729352,-1.44016846217231,339.399700918607
738311.53552363230846822262,4.43128757591479,-1.39093193355103,339.387391786452
738311.53552372276317328215,4.41897844375947,-1.44016846217231,339.362773522141
738311.53552381321787834167,4.51745150100202,-1.40324106570635,339.251991332743
738311.53552390367258340120,4.55437889746798,-1.36631366924039,339.338155257831
738311.53552399412728846073,4.57899716177862,-1.36631366924039,339.399700918607
738311.53552408469840884209,4.55437889746798,-1.44016846217231,339.276609597054
738311.53552417515311390162,4.59130629393394,-1.45247759432763,339.436628315073
738311.53552426560781896114,4.57899716177862,-1.44016846217231,339.448937447228
738311.53552435606252402067,4.59130629393394,-1.42785933001699,339.399700918607
738311.53552444651722908020,4.61592455824458,-1.41555019786167,339.448937447228
738311.53552453697193413973,4.67747021902117,-1.41555019786167,339.461246579384
738311.53552462754305452108,4.62823369039989,-1.48940499079358,339.436628315073
738311.53552471799775958061,4.68977935117649,-1.45247759432763,339.49817397585
738311.53552480845246464014,4.64054282255521,-1.51402325510422,339.473555711539
738311.53552489890716969967,4.77594327626372,-1.37862280139571,339.473555711539
738311.53552498936187475920,4.7636341441084,-1.45247759432763,339.424319182918
738311.53552507981657981873,4.81287067272968,-1.45247759432763,339.387391786452
738311.53552517038770020008,4.84979806919563,-1.44016846217231,339.473555711539
738311.53552526084240525961,4.87441633350627,-1.40324106570635,339.49817397585
738311.53552535129711031914,4.89903459781691,-1.41555019786167,339.52279224016
738311.53552544175181537867,4.88672546566159,-1.46478672648295,339.52279224016
738311.53552553220652043819,4.94827112643818,-1.45247759432763,339.572028768782
738311.53552562277764081955,4.9605802585935,-1.44016846217231,339.682810958179
738311.53552571323234587908,4.98519852290414,-1.42785933001699,339.670501826024
738311.53552580368705093861,4.99750765505946,-1.44016846217231,339.732047486801
738311.53552589414175599813,5.04674418368074,-1.41555019786167,339.732047486801
738311.53552598459646105766,5.05905331583605,-1.41555019786167,339.670501826024
738311.53552607505116611719,5.07136244799137,-1.40324106570635,339.768974883267
738311.53552616562228649855,5.07136244799137,-1.42785933001699,339.805902279733
738311.53552625607699155807,5.08367158014669,-1.40324106570635,339.781284015422
738311.53552634653169661760,5.12059897661265,-1.37862280139571,339.818211411888
738311.53552643698640167713,5.09598071230201,-1.39093193355103,339.818211411888
738311.53552652744110673666,5.10828984445733,-1.36631366924039,339.818211411888
738311.53552661789581179619,5.12059897661265,-1.37862280139571,339.781284015422
738311.53552670846693217754,5.13290810876797,-1.34169540492976,339.842829676199
738311.53552679892163723707,5.10828984445733,-1.34169540492976,339.855138808354
738311.53552688937634229660,5.12059897661265,-1.31707714061912,339.793593147577
738311.53552697983104735613,5.14521724092329,-1.31707714061912,339.855138808354
738311.53552707028575241566,5.10828984445733,-1.34169540492976,339.830520544043
738311.53552716074045747519,5.10828984445733,-1.35400453708508,339.781284015422
738311.53552725131157785654,5.13290810876797,-1.34169540492976,339.793593147577
738311.53552734176628291607,5.13290810876797,-1.32938627277444,339.682810958179
738311.53552743222098797560,5.16983550523392,-1.28014974415316,339.682810958179
738311.53552752267569303513,5.07136244799137,-1.39093193355103,339.768974883267
738311.53552761313039809465,5.12059897661265,-1.34169540492976,339.756665751111
738311.53552770370151847601,5.08367158014669,-1.39093193355103,339.732047486801
738311.53552779415622353554,5.20676290169988,-1.25553147984252,339.682810958179
738311.53552788461092859507,5.13290810876797,-1.34169540492976,339.719738354645
738311.53552797506563365459,5.15752637307861,-1.25553147984252,339.719738354645
738311.53552806552033871412,5.18214463738924,-1.25553147984252,339.658192693869
738311.53552815597504377365,5.12059897661265,-1.29245887630848,339.695120090335
738311.53552824654616415501,5.12059897661265,-1.34169540492976,339.682810958179
738311.53552833700086921453,5.16983550523392,-1.26784061199784,339.670501826024
738311.53552842745557427406,5.13290810876797,-1.25553147984252,339.596647033092
738311.53552851791027933359,5.04674418368074,-1.34169540492976,339.670501826024
738311.53552860836498439312,5.0221259193701,-1.40324106570635,339.621265297403
738311.53552869881968945265,5.0221259193701,-1.40324106570635,339.584337900937
738311.53552878939080983400,5.04674418368074,-1.36631366924039,339.559719636626
738311.53552887984551489353,5.03443505152542,-1.35400453708508,339.559719636626
738311.53552897030021995306,5.04674418368074,-1.34169540492976,339.535101372316
738311.53552906075492501259,5.04674418368074,-1.35400453708508,339.559719636626
738311.53552915120963007212,5.04674418368074,-1.37862280139571,339.52279224016
738311.53552924178075045347,5.09598071230201,-1.35400453708508,339.572028768782
738311.53552933223545551300,5.24369029816584,-1.03396710104678,339.70742922249
738311.53552942269016057253,5.55141860204881,-0.615456607765943,339.645883561714
738311.53552951314486563206,6.04378388826156,-0.0369273964659566,339.350464389986
738311.53552960359957069159,5.77298298084455,-0.0615456607765943,339.448937447228
738311.53552969405427575111,5.10828984445733,-0.972421440270191,339.461246579384
738311.53552978462539613247,4.81287067272968,-1.73558763389996,339.227373068433
738311.53552987508010119200,4.70208848333181,-1.73558763389996,339.350464389986
738311.53552996553480625153,4.83748893704032,-1.5632597837255,339.387391786452
738311.53553005598951131105,4.94827112643818,-1.42785933001699,339.535101372316
738311.53553014644421637058,5.03443505152542,-1.34169540492976,339.485864843694
738311.53553023689892143011,5.03443505152542,-1.34169540492976,339.461246579384
738311.53553032747004181147,5.0221259193701,-1.35400453708508,339.572028768782
738311.53553041792474687099,5.08367158014669,-1.29245887630848,339.621265297403
738311.53553050837945193052,5.05905331583605,-1.3047680084638,339.645883561714
738311.53553059883415699005,5.05905331583605,-1.3047680084638,339.547410504471
738311.53553068928886204958,5.07136244799137,-1.29245887630848,339.633574429558
738311.53553077974356710911,5.07136244799137,-1.29245887630848,339.608956165248
738311.53553087031468749046,5.13290810876797,-1.24322234768721,339.49817397585
738311.53553096076939254999,5.0221259193701,-1.34169540492976,339.461246579384
738311.53553105122409760952,5.05905331583605,-1.29245887630848,339.645883561714
738311.53553114167880266905,5.09598071230201,-1.28014974415316,339.572028768782
738311.53553123213350772858,5.04674418368074,-1.3047680084638,339.584337900937
738311.53553132270462810993,5.05905331583605,-1.3047680084638,339.572028768782
738311.53553141315933316946,5.09598071230201,-1.28014974415316,339.572028768782
738311.53553150361403822899,5.08367158014669,-1.28014974415316,339.547410504471
738311.53553159406874328852,5.07136244799137,-1.29245887630848,339.584337900937
738311.53553168452344834805,5.16983550523392,-1.19398581906593,339.572028768782
738311.53553177497815340757,5.16983550523392,-1.16936755475529,339.547410504471
738311.53553186554927378893,5.08367158014669,-1.23091321553189,339.596647033092
738311.53553195600397884846,5.12059897661265,-1.18167668691061,339.596647033092
738311.53553204645868390799,5.12059897661265,-1.18167668691061,339.608956165248
738311.53553213691338896751,5.16983550523392,-1.12013102613402,339.559719636626
738311.53553222736809402704,5.15752637307861,-1.1078218939787,339.608956165248
738311.53553231782279908657,5.10828984445733,-1.16936755475529,339.596647033092
738311.53553240839391946793,5.12059897661265,-1.13244015828934,339.572028768782
738311.53553249884862452745,5.14521724092329,-1.14474929044465,339.584337900937
738311.53553258930332958698,5.12059897661265,-1.23091321553189,339.547410504471
738311.53553267975803464651,5.09598071230201,-1.26784061199784,339.510483108005
738311.53553277021273970604,5.08367158014669,-1.26784061199784,339.485864843694
738311.53553286078386008739,5.04674418368074,-1.32938627277444,339.424319182918
738311.53553295123856514692,5.04674418368074,-1.34169540492976,339.399700918607
738311.53553304169327020645,5.07136244799137,-1.31707714061912,339.362773522141
738311.53553313214797526598,5.00981678721478,-1.36631366924039,339.412010050762
738311.53553322260268032551,5.03443505152542,-1.35400453708508,339.387391786452
738311.53553331305738538504,5.03443505152542,-1.34169540492976,339.424319182918
738311.53553340362850576639,4.9605802585935,-1.42785933001699,339.424319182918
738311.53553349408321082592,4.97288939074882,-1.40324106570635,339.49817397585
738311.53553358453791588545,5.04674418368074,-1.32938627277444,339.448937447228
738311.53553367499262094498,4.9605802585935,-1.44016846217231,339.49817397585
738311.53553376544732600451,4.9605802585935,-1.41555019786167,339.424319182918
738311.53553385590203106403,4.97288939074882,-1.41555019786167,339.485864843694
738311.53553394647315144539,4.97288939074882,-1.41555019786167,339.473555711539
738311.53553403692785650492,4.98519852290414,-1.41555019786167,339.424319182918
738311.53553412738256156445,4.99750765505946,-1.39093193355103,339.49817397585
738311.53553421783726662397,4.97288939074882,-1.40324106570635,339.49817397585
738311.53553430829197168350,4.99750765505946,-1.40324106570635,339.49817397585
738311.53553439874667674303,4.97288939074882,-1.41555019786167,339.362773522141
738311.53553448931779712439,4.98519852290414,-1.40324106570635,339.325846125675
738311.53553457977250218391,5.00981678721478,-1.39093193355103,339.535101372316
738311.53553467022720724344,5.00981678721478,-1.39093193355103,339.535101372316
738311.53553476068191230297,5.00981678721478,-1.39093193355103,339.559719636626
738311.53553485113661736250,4.98519852290414,-1.41555019786167,339.473555711539
738311.53553494170773774385,5.00981678721478,-1.37862280139571,339.510483108005
738311.53553503216244280338,4.97288939074882,-1.41555019786167,339.572028768782
738311.53553512261714786291,4.99750765505946,-1.40324106570635,339.448937447228
738311.53553521307185292244,4.97288939074882,-1.41555019786167,339.535101372316
738311.53553530352655798197,4.98519852290414,-1.39093193355103,339.547410504471
738311.53553539398126304150,4.9605802585935,-1.40324106570635,339.473555711539
738311.53553548455238342285,5.00981678721478,-1.37862280139571,339.510483108005
738311.53553557500708848238,4.9605802585935,-1.42785933001699,339.535101372316
738311.53553566546179354191,4.98519852290414,-1.37862280139571,339.52279224016
738311.53553575591649860144,4.97288939074882,-1.40324106570635,339.485864843694
738311.53553584637120366096,4.9605802585935,-1.41555019786167,339.572028768782
738311.53553593682590872049,4.9605802585935,-1.42785933001699,339.535101372316
738311.53553602739702910185,4.98519852290414,-1.40324106570635,339.485864843694
738311.53553611785173416138,4.9605802585935,-1.40324106570635,339.510483108005
738311.53553620830643922091,4.97288939074882,-1.40324106570635,339.436628315073
738311.53553629876114428043,4.9605802585935,-1.44016846217231,339.399700918607
738311.53553638921584933996,4.97288939074882,-1.40324106570635,339.436628315073
738311.53553647978696972132,4.9605802585935,-1.39093193355103,339.436628315073
738311.53553657024167478085,4.97288939074882,-1.40324106570635,339.424319182918
738311.53553666069637984037,4.9605802585935,-1.42785933001699,339.49817397585
738311.53553675115108489990,4.9605802585935,-1.41555019786167,339.461246579384
738311.53553684160578995943,4.9605802585935,-1.40324106570635,339.436628315073
738311.53553693206049501896,4.99750765505946,-1.39093193355103,339.399700918607
738311.53553702263161540031,4.98519852290414,-1.40324106570635,339.412010050762
738311.53553711308632045984,4.99750765505946,-1.39093193355103,339.387391786452
738311.53553720354102551937,5.0221259193701,-1.37862280139571,339.424319182918
738311.53553729399573057890,5.00981678721478,-1.37862280139571,339.424319182918
738311.53553738445043563843,5.05905331583605,-1.34169540492976,339.436628315073
738311.53553747490514069796,5.0221259193701,-1.36631366924039,339.399700918607
738311.53553756547626107931,5.0221259193701,-1.34169540492976,339.412010050762
738311.53553765593096613884,5.00981678721478,-1.34169540492976,339.436628315073
738311.53553774638567119837,5.00981678721478,-1.35400453708508,339.473555711539
738311.53553783684037625790,4.9605802585935,-1.39093193355103,339.485864843694
738311.53553792729508131742,4.9605802585935,-1.40324106570635,339.448937447228
738311.53553801774978637695,4.92365286212755,-1.42785933001699,339.288918729209
738311.53553810832090675831,4.9605802585935,-1.39093193355103,339.485864843694
738311.53553819877561181784,4.93596199428287,-1.40324106570635,339.52279224016
738311.53553828923031687737,4.92365286212755,-1.41555019786167,339.52279224016
738311.53553837968502193689,4.93596199428287,-1.41555019786167,339.387391786452
738311.53553847013972699642,4.92365286212755,-1.42785933001699,339.473555711539
738311.53553856071084737778,4.98519852290414,-1.41555019786167,339.436628315073
738311.53553865116555243731,5.08367158014669,-1.3047680084638,339.473555711539
738311.53553874162025749683,5.2190720338552,-0.997039704580828,339.572028768782
738311.53553883207496255636,5.674509923602,-0.504674418368074,339.473555711539
738311.53553892252966761589,5.96992909532965,-0.11078218939787,339.301227861365
738311.53553901298437267542,5.39139988402966,-0.529292682678711,339.301227861365
738311.53553910355549305677,4.84979806919563,-1.44016846217231,339.288918729209
738311.53553919401019811630,4.60361542608926,-1.87098808760847,339.264300464899
738311.53553928446490317583,4.64054282255521,-1.73558763389996,339.375082654296
738311.53553937491960823536,4.73901587979776,-1.62480544450209,339.412010050762
738311.53553946537431329489,4.91134372997223,-1.44016846217231,339.412010050762
738311.53553955582901835442,4.93596199428287,-1.42785933001699,339.473555711539
738311.53553964640013873577,4.93596199428287,-1.42785933001699,339.387391786452
738311.53553973685484379530,4.89903459781691,-1.44016846217231,339.375082654296
738311.53553982730954885483,4.93596199428287,-1.41555019786167,339.387391786452
738311.53553991776425391436,4.94827112643818,-1.40324106570635,339.387391786452
738311.53554000821895897388,4.9605802585935,-1.40324106570635,339.387391786452
738311.53554009879007935524,4.94827112643818,-1.41555019786167,339.461246579384
738311.53554018924478441477,4.9605802585935,-1.39093193355103,339.49817397585
738311.53554027969948947430,4.93596199428287,-1.41555019786167,339.485864843694
738311.53554037015419453382,4.9605802585935,-1.37862280139571,339.473555711539
738311.53554046060889959335,4.97288939074882,-1.36631366924039,339.49817397585
738311.53554055106360465288,4.97288939074882,-1.37862280139571,339.52279224016
738311.53554064163472503424,4.97288939074882,-1.35400453708508,339.424319182918
738311.53554073208943009377,4.99750765505946,-1.32938627277444,339.510483108005
738311.53554082254413515329,4.99750765505946,-1.31707714061912,339.52279224016
738311.53554091299884021282,5.0221259193701,-1.3047680084638,339.424319182918
738311.53554100345354527235,5.03443505152542,-1.29245887630848,339.49817397585
738311.53554109390825033188,5.03443505152542,-1.28014974415316,339.535101372316
738311.53554118447937071323,5.03443505152542,-1.25553147984252,339.461246579384
738311.53554127493407577276,5.08367158014669,-1.20629495122125,339.49817397585
738311.53554136538878083229,5.05905331583605,-1.21860408337657,339.535101372316
738311.53554145584348589182,5.08367158014669,-1.18167668691061,339.49817397585
738311.53554154629819095135,5.05905331583605,-1.20629495122125,339.264300464899
738311.53554163675289601088,5.07136244799137,-1.16936755475529,339.473555711539
738311.53554172732401639223,5.09598071230201,-1.16936755475529,339.535101372316
738311.53554181777872145176,5.08367158014669,-1.19398581906593,339.461246579384
738311.53554190823342651129,5.07136244799137,-1.24322234768721,339.436628315073
738311.53554199868813157082,5.05905331583605,-1.26784061199784,339.461246579384
738311.53554208914283663034,5.0221259193701,-1.31707714061912,339.399700918607
738311.53554217971395701170,5.00981678721478,-1.34169540492976,339.399700918607
738311.53554227016866207123,4.97288939074882,-1.37862280139571,339.362773522141
738311.53554236062336713076,4.9605802585935,-1.40324106570635,339.350464389986
738311.53554245107807219028,4.97288939074882,-1.36631366924039,339.424319182918
738311.53554254153277724981,4.94827112643818,-1.40324106570635,339.350464389986
738311.53554263198748230934,4.93596199428287,-1.40324106570635,339.350464389986
738311.53554272255860269070,4.9605802585935,-1.37862280139571,339.31353699352
738311.53554281301330775023,4.93596199428287,-1.41555019786167,339.362773522141
738311.53554290346801280975,4.94827112643818,-1.39093193355103,339.362773522141
738311.53554299392271786928,4.91134372997223,-1.42785933001699,339.375082654296
738311.53554308437742292881,4.93596199428287,-1.42785933001699,339.387391786452
738311.53554317483212798834,4.94827112643818,-1.41555019786167,339.399700918607
738311.53554326540324836969,4.94827112643818,-1.41555019786167,339.424319182918
738311.53554335585795342922,4.92365286212755,-1.44016846217231,339.387391786452
738311.53554344631265848875,4.91134372997223,-1.45247759432763,339.461246579384
738311.53554353676736354828,4.93596199428287,-1.42785933001699,339.436628315073
738311.53554362722206860781,4.92365286212755,-1.42785933001699,339.375082654296
738311.53554371779318898916,4.92365286212755,-1.41555019786167,339.325846125675
738311.53554380824789404869,4.91134372997223,-1.42785933001699,339.325846125675
738311.53554389870259910822,4.99750765505946,-1.36631366924039,339.31353699352
738311.53554398915730416775,4.92365286212755,-1.42785933001699,339.325846125675
738311.53554407961200922728,4.9605802585935,-1.40324106570635,339.338155257831
738311.53554417006671428680,4.94827112643818,-1.40324106570635,339.362773522141
738311.53554426063783466816,4.93596199428287,-1.41555019786167,339.461246579384
738311.53554435109253972769,4.93596199428287,-1.42785933001699,339.412010050762
738311.53554444154724478722,4.9605802585935,-1.39093193355103,339.375082654296
738311.53554453200194984674,4.93596199428287,-1.40324106570635,339.362773522141
738311.53554462245665490627,4.93596199428287,-1.41555019786167,339.362773522141
738311.53554471291135996580,4.91134372997223,-1.44016846217231,339.338155257831
738311.53554480348248034716,4.9605802585935,-1.40324106570635,339.338155257831
738311.53554489393718540668,4.93596199428287,-1.41555019786167,339.375082654296
738311.53554498439189046621,4.89903459781691,-1.42785933001699,339.153518275501
738311.53554507484659552574,4.92365286212755,-1.42785933001699,339.190445671967
738311.53554516530130058527,4.94827112643818,-1.40324106570635,339.301227861365
738311.53554525575600564480,4.92365286212755,-1.41555019786167,339.276609597054
738311.53554534632712602615,4.91134372997223,-1.41555019786167,339.301227861365
738311.53554543678183108568,4.93596199428287,-1.41555019786167,339.31353699352
738311.53554552723653614521,4.92365286212755,-1.42785933001699,339.338155257831
738311.53554561769124120474,4.92365286212755,-1.42785933001699,339.362773522141
738311.53554570814594626427,4.94827112643818,-1.40324106570635,339.338155257831
738311.53554579871706664562,4.91134372997223,-1.44016846217231,339.31353699352
738311.53554588917177170515,4.94827112643818,-1.40324106570635,339.387391786452
738311.53554597962647676468,4.89903459781691,-1.45247759432763,339.31353699352
738311.53554607008118182421,4.94827112643818,-1.42785933001699,339.301227861365
738311.53554616053588688374,4.98519852290414,-1.40324106570635,339.31353699352
738311.53554625099059194326,4.94827112643818,-1.42785933001699,339.288918729209
738311.53554634156171232462,4.99750765505946,-1.37862280139571,339.301227861365
738311.53554643201641738415,5.0221259193701,-1.34169540492976,339.276609597054
738311.53554652247112244368,5.00981678721478,-1.35400453708508,339.288918729209
738311.53554661292582750320,5.00981678721478,-1.34169540492976,339.31353699352
738311.53554670338053256273,4.99750765505946,-1.35400453708508,339.412010050762
738311.53554679383523762226,4.94827112643818,-1.37862280139571,339.399700918607
738311.53554688440635800362,4.98519852290414,-1.34169540492976,339.350464389986
738311.53554697486106306314,4.97288939074882,-1.35400453708508,339.31353699352
738311.53554706531576812267,4.92365286212755,-1.41555019786167,339.412010050762
738311.53554715577047318220,4.92365286212755,-1.40324106570635,339.375082654296
738311.53554724622517824173,4.92365286212755,-1.41555019786167,339.31353699352
738311.53554733679629862309,4.94827112643818,-1.41555019786167,339.375082654296
738311.53554742725100368261,4.9605802585935,-1.37862280139571,339.424319182918
738311.53554751770570874214,4.97288939074882,-1.37862280139571,339.412010050762
738311.53554760816041380167,4.9605802585935,-1.41555019786167,339.362773522141
738311.53554769861511886120,4.98519852290414,-1.44016846217231,339.362773522141
738311.53554778906982392073,5.19445376954456,-1.16936755475529,339.473555711539
738311.53554787964094430208,5.42832728049562,-0.775475325785089,339.436628315073
738311.53554797009564936161,5.96992909532965,-0.172327850174464,339.251991332743
738311.53554806055035442114,5.98223822748497,0.0369273964659566,339.202754804122
738311.53554815100505948067,5.29292682678711,-0.627765739921262,339.190445671967
738311.53554824145976454020,4.78825240841904,-1.63711457665741,339.091972614724
738311.53554833191446959972,4.60361542608926,-1.82175155898719,339.10428174688
738311.53554842248558998108,4.72670674764244,-1.63711457665741,339.215063936277
738311.53554851294029504061,4.84979806919563,-1.51402325510422,339.067354350414
738311.53554860339500010014,4.97288939074882,-1.40324106570635,339.264300464899
738311.53554869384970515966,4.99750765505946,-1.37862280139571,339.350464389986
738311.53554878430441021919,4.97288939074882,-1.40324106570635,339.325846125675
738311.53554887475911527872,5.07136244799137,-1.3047680084638,339.325846125675
738311.53554896533023566008,4.99750765505946,-1.37862280139571,339.375082654296
738311.53554905578494071960,5.04674418368074,-1.31707714061912,339.399700918607
738311.53554914623964577913,5.07136244799137,-1.31707714061912,339.350464389986
738311.53554923669435083866,5.0221259193701,-1.35400453708508,339.338155257831
738311.53554932714905589819,5.08367158014669,-1.3047680084638,339.165827407656
738311.53554941772017627954,5.03443505152542,-1.37862280139571,339.264300464899
738311.53554950817488133907,5.04674418368074,-1.34169540492976,339.31353699352
738311.53554959862958639860,5.05905331583605,-1.32938627277444,339.288918729209
738311.53554968908429145813,5.05905331583605,-1.32938627277444,339.288918729209
738311.53554977953899651766,5.05905331583605,-1.34169540492976,339.288918729209
738311.53554986999370157719,5.09598071230201,-1.31707714061912,339.288918729209
738311.53554996056482195854,5.15752637307861,-1.26784061199784,339.288918729209
738311.53555005101952701807,5.13290810876797,-1.28014974415316,339.288918729209
738311.53555014147423207760,5.23138116601052,-1.19398581906593,339.288918729209
738311.53555023192893713713,5.14521724092329,-1.25553147984252,339.288918729209
738311.53555032238364219666,5.20676290169988,-1.18167668691061,339.288918729209
738311.53555041283834725618,5.2190720338552,-1.14474929044465,339.412010050762
738311.53555050340946763754,5.2190720338552,-1.13244015828934,339.424319182918
738311.53555059386417269707,5.2190720338552,-1.12013102613402,339.325846125675
738311.53555068431887775660,5.19445376954456,-1.13244015828934,339.325846125675
738311.53555077477358281612,5.28061769463179,-1.05858536535742,339.362773522141
738311.53555086522828787565,5.20676290169988,-1.14474929044465,339.412010050762
738311.53555095579940825701,5.23138116601052,-1.13244015828934,339.288918729209
738311.53555104625411331654,5.19445376954456,-1.18167668691061,339.362773522141
738311.53555113670881837606,5.18214463738924,-1.23091321553189,339.387391786452
738311.53555122716352343559,5.15752637307861,-1.25553147984252,339.288918729209
738311.53555131761822849512,5.14521724092329,-1.28014974415316,339.301227861365
738311.53555140807293355465,5.09598071230201,-1.32938627277444,339.31353699352
738311.53555149864405393600,5.05905331583605,-1.32938627277444,339.325846125675
738311.53555158909875899553,5.05905331583605,-1.34169540492976,339.227373068433
738311.53555167955346405506,5.03443505152542,-1.36631366924039,339.239682200588
738311.53555177000816911459,5.07136244799137,-1.32938627277444,339.215063936277
738311.53555186046287417412,5.07136244799137,-1.32938627277444,339.190445671967
738311.53555195091757923365,5.00981678721478,-1.37862280139571,339.239682200588
738311.53555204148869961500,5.0221259193701,-1.35400453708508,339.12890001119
738311.53555213194340467453,5.0221259193701,-1.36631366924039,339.165827407656
738311.53555222239810973406,5.0221259193701,-1.36631366924039,339.325846125675
738311.53555231285281479359,5.0221259193701,-1.37862280139571,339.301227861365
738311.53555240330751985312,5.00981678721478,-1.37862280139571,339.325846125675
738311.53555249387864023447,4.99750765505946,-1.39093193355103,339.301227861365
738311.53555258433334529400,5.00981678721478,-1.37862280139571,339.301227861365
738311.53555267478805035353,5.00981678721478,-1.37862280139571,339.325846125675
738311.53555276524275541306,4.99750765505946,-1.39093193355103,339.251991332743
738311.53555285569746047258,5.04674418368074,-1.32938627277444,339.31353699352
738311.53555294615216553211,4.98519852290414,-1.39093193355103,339.387391786452
738311.53555303672328591347,5.00981678721478,-1.36631366924039,339.325846125675
738311.53555312717799097300,5.00981678721478,-1.36631366924039,339.301227861365
738311.53555321763269603252,4.98519852290414,-1.37862280139571,339.338155257831
738311.53555330808740109205,4.99750765505946,-1.37862280139571,339.387391786452
738311.53555339854210615158,5.00981678721478,-1.36631366924039,339.301227861365
738311.53555348899681121111,4.98519852290414,-1.32938627277444,339.276609597054
738311.53555357956793159246,4.99750765505946,-1.36631366924039,339.264300464899
738311.53555367002263665199,4.9605802585935,-1.37862280139571,339.276609597054
738311.53555376047734171152,5.0221259193701,-1.36631366924039,339.251991332743
738311.53555385093204677105,4.9605802585935,-1.34169540492976,339.239682200588
738311.53555394138675183058,4.9605802585935,-1.36631366924039,339.276609597054
738311.53555403184145689011,4.9605802585935,-1.35400453708508,339.301227861365
738311.53555412241257727146,4.98519852290414,-1.34169540492976,339.325846125675
738311.53555421286728233099,4.93596199428287,-1.37862280139571,339.375082654296
738311.53555430332198739052,4.9605802585935,-1.37862280139571,339.362773522141
738311.53555439377669245005,4.9605802585935,-1.32938627277444,339.375082654296
738311.53555448423139750957,4.9605802585935,-1.35400453708508,339.338155257831
738311.53555457480251789093,4.92365286212755,-1.35400453708508,339.215063936277
738311.53555466525722295046,4.9605802585935,-1.34169540492976,339.276609597054
738311.53555475571192800999,4.93596199428287,-1.37862280139571,339.276609597054
738311.53555484616663306952,4.94827112643818,-1.35400453708508,339.288918729209
738311.53555493662133812904,4.94827112643818,-1.39093193355103,339.301227861365
738311.53555502707604318857,4.94827112643818,-1.39093193355103,339.288918729209
738311.53555511764716356993,4.93596199428287,-1.36631366924039,339.325846125675
738311.53555520810186862946,4.93596199428287,-1.39093193355103,339.350464389986
738311.53555529855657368898,4.94827112643818,-1.32938627277444,339.350464389986
738311.53555538901127874851,4.94827112643818,-1.40324106570635,339.288918729209
738311.53555547946598380804,4.93596199428287,-1.37862280139571,339.288918729209
738311.53555556992068886757,4.9605802585935,-1.35400453708508,339.190445671967
738311.53555566049180924892,4.9605802585935,-1.39093193355103,339.190445671967
738311.53555575094651430845,4.94827112643818,-1.40324106570635,339.288918729209
738311.53555584140121936798,4.97288939074882,-1.39093193355103,339.338155257831
738311.53555593185592442751,5.00981678721478,-1.35400453708508,339.325846125675
738311.53555602231062948704,4.98519852290414,-1.32938627277444,339.325846125675
738311.53555611288174986839,5.00981678721478,-1.3047680084638,339.350464389986
738311.53555620333645492792,5.00981678721478,-1.3047680084638,339.399700918607
738311.53555629379115998745,5.00981678721478,-1.34169540492976,339.362773522141
738311.53555638424586504698,4.99750765505946,-1.34169540492976,339.325846125675
738311.53555647470057010651,4.98519852290414,-1.34169540492976,339.288918729209
738311.53555656515527516603,4.9605802585935,-1.37862280139571,339.276609597054
738311.53555665572639554739,4.92365286212755,-1.40324106570635,339.239682200588
738311.53555674618110060692,4.92365286212755,-1.41555019786167,339.239682200588
738311.53555683663580566645,4.89903459781691,-1.34169540492976,339.301227861365
738311.53555692709051072598,4.91134372997223,-1.36631366924039,339.325846125675
738311.53555701754521578550,4.91134372997223,-1.40324106570635,339.288918729209
738311.53555710799992084503,4.89903459781691,-1.36631366924039,339.362773522141
738311.53555719857104122639,4.89903459781691,-1.39093193355103,339.350464389986
738311.53555728902574628592,4.91134372997223,-1.36631366924039,339.362773522141
738311.53555737948045134544,4.97288939074882,-1.36631366924039,339.276609597054
738311.53555746993515640497,5.10828984445733,-1.20629495122125,339.424319182918
738311.53555756038986146450,5.29292682678711,-0.849330118717002,339.510483108005
738311.53555765084456652403,5.78529211299987,-0.209255246640421,339.190445671967
738311.53555774141568690538,5.94531083101901,0.11078218939787,339.079663482569
738311.53555783187039196491,5.25599943032116,-0.467747021902117,339.202754804122
738311.53555792232509702444,4.78825240841904,-1.41555019786167,338.981190425326
738311.53555801277980208397,4.54206976531266,-1.88329721976379,338.968881293171
738311.53555810323450714350,4.5666880296233,-1.80944242683187,339.116590879035
738311.53555819380562752485,4.66516108686585,-1.72327850174464,339.153518275501
738311.53555828426033258438,4.86210720135095,-1.55095065157018,339.153518275501
738311.53555837471503764391,4.92365286212755,-1.51402325510422,339.264300464899
738311.53555846516974270344,4.94827112643818,-1.55095065157018,339.325846125675
738311.53555855562444776297,4.93596199428287,-1.42785933001699,339.215063936277
738311.53555864607915282249,4.98519852290414,-1.51402325510422,339.251991332743
738311.53555873665027320385,4.97288939074882,-1.47709585863826,339.202754804122
738311.53555882710497826338,4.9605802585935,-1.48940499079358,339.227373068433
738311.53555891755968332291,4.98519852290414,-1.51402325510422,339.288918729209
738311.53555900801438838243,5.00981678721478,-1.41555019786167,339.325846125675
738311.53555909846909344196,4.97288939074882,-1.51402325510422,339.12890001119
738311.53555918892379850149,5.00981678721478,-1.44016846217231,339.055045218258
738311.53555927949491888285,5.00981678721478,-1.42785933001699,339.264300464899
738311.53555936994962394238,5.0221259193701,-1.37862280139571,339.301227861365
738311.53555946040432900190,5.03443505152542,-1.40324106570635,339.288918729209
738311.53555955085903406143,5.05905331583605,-1.3047680084638,339.215063936277
738311.53555964131373912096,5.0221259193701,-1.34169540492976,339.301227861365
738311.53555973188485950232,5.05905331583605,-1.3047680084638,339.338155257831
738311.53555982233956456184,5.07136244799137,-1.26784061199784,339.301227861365
738311.53555991279426962137,5.09598071230201,-1.18167668691061,339.301227861365
738311.53556000324897468090,5.07136244799137,-1.20629495122125,339.288918729209
738311.53556009370367974043,5.08367158014669,-1.20629495122125,339.350464389986
738311.53556018415838479996,5.13290810876797,-1.14474929044465,339.31353699352
738311.53556027472950518131,5.13290810876797,-1.13244015828934,339.362773522141
738311.53556036518421024084,5.13290810876797,-1.15705842259997,339.399700918607
738311.53556045563891530037,5.14521724092329,-1.08320362966806,339.375082654296
738311.53556054609362035990,5.13290810876797,-1.08320362966806,339.387391786452
738311.53556063654832541943,5.12059897661265,-1.1078218939787,339.362773522141
738311.53556072700303047895,5.08367158014669,-1.14474929044465,339.424319182918
738311.53556081757415086031,5.10828984445733,-1.21860408337657,339.288918729209
738311.53556090802885591984,5.07136244799137,-1.21860408337657,339.350464389986
738311.53556099848356097937,5.05905331583605,-1.32938627277444,339.338155257831
738311.53556108893826603889,5.03443505152542,-1.24322234768721,339.31353699352
738311.53556117939297109842,5.03443505152542,-1.34169540492976,339.301227861365
738311.53556126984767615795,4.99750765505946,-1.28014974415316,339.227373068433
738311.53556136041879653931,4.99750765505946,-1.34169540492976,339.215063936277
738311.53556145087350159883,4.98519852290414,-1.34169540492976,339.190445671967
738311.53556154132820665836,4.97288939074882,-1.41555019786167,339.215063936277
738311.53556163178291171789,4.98519852290414,-1.39093193355103,339.227373068433
738311.53556172223761677742,4.98519852290414,-1.40324106570635,339.251991332743
738311.53556181280873715878,4.9605802585935,-1.3047680084638,339.276609597054
738311.53556190326344221830,4.93596199428287,-1.3047680084638,339.288918729209
738311.53556199371814727783,4.94827112643818,-1.31707714061912,339.264300464899
738311.53556208417285233736,4.97288939074882,-1.31707714061912,339.264300464899
738311.53556217462755739689,4.94827112643818,-1.37862280139571,339.276609597054
738311.53556226508226245642,4.94827112643818,-1.37862280139571,339.239682200588
738311.53556235565338283777,4.97288939074882,-1.37862280139571,339.239682200588
738311.53556244610808789730,4.9605802585935,-1.40324106570635,339.178136539811
738311.53556253656279295683,4.9605802585935,-1.41555019786167,339.178136539811
738311.53556262701749801636,4.93596199428287,-1.37862280139571,339.153518275501
738311.53556271747220307589,4.94827112643818,-1.37862280139571,339.079663482569
738311.53556280792690813541,4.92365286212755,-1.34169540492976,339.239682200588
738311.53556289849802851677,4.93596199428287,-1.36631366924039,339.202754804122
738311.53556298895273357630,4.9605802585935,-1.35400453708508,339.215063936277
738311.53556307940743863583,4.93596199428287,-1.36631366924039,339.251991332743
738311.53556316986214369535,4.93596199428287,-1.36631366924039,339.202754804122
738311.53556326031684875488,4.92365286212755,-1.36631366924039,339.190445671967
738311.53556335088796913624,4.91134372997223,-1.35400453708508,339.190445671967
738311.53556344134267419577,4.89903459781691,-1.37862280139571,339.215063936277
738311.53556353179737925529,4.91134372997223,-1.39093193355103,339.251991332743
738311.53556362225208431482,4.88672546566159,-1.3047680084638,339.202754804122
738311.53556371270678937435,4.91134372997223,-1.37862280139571,339.251991332743
738311.53556380316149443388,4.87441633350627,-1.41555019786167,339.215063936277
738311.53556389373261481524,4.88672546566159,-1.29245887630848,339.31353699352
738311.53556398418731987476,4.88672546566159,-1.37862280139571,339.301227861365
738311.53556407464202493429,4.88672546566159,-1.34169540492976,339.165827407656
738311.53556416509672999382,4.88672546566159,-1.32938627277444,339.239682200588
738311.53556425555143505335,4.86210720135095,-1.39093193355103,339.153518275501
738311.53556434600614011288,4.84979806919563,-1.36631366924039,339.264300464899
738311.53556443657726049423,4.88672546566159,-1.34169540492976,339.288918729209
738311.53556452703196555376,4.87441633350627,-1.32938627277444,339.325846125675
738311.53556461748667061329,4.83748893704032,-1.34169540492976,339.251991332743
738311.53556470794137567282,4.86210720135095,-1.37862280139571,339.276609597054
738311.53556479839608073235,4.84979806919563,-1.35400453708508,339.325846125675
738311.53556488885078579187,4.86210720135095,-1.32938627277444,339.325846125675
738311.53556497942190617323,4.86210720135095,-1.32938627277444,339.301227861365
738311.53556506987661123276,4.86210720135095,-1.34169540492976,339.301227861365
738311.53556516033131629229,4.825179804885,-1.32938627277444,339.325846125675
738311.53556525078602135181,4.87441633350627,-1.39093193355103,339.227373068433
738311.53556534124072641134,4.81287067272968,-1.29245887630848,339.338155257831
738311.53556543181184679270,4.825179804885,-1.31707714061912,339.325846125675
738311.53556552226655185223,4.81287067272968,-1.32938627277444,339.215063936277
738311.53556561272125691175,4.825179804885,-1.34169540492976,339.276609597054
738311.53556570317596197128,4.825179804885,-1.32938627277444,339.325846125675
738311.53556579363066703081,4.825179804885,-1.31707714061912,339.301227861365
738311.53556588408537209034,4.81287067272968,-1.34169540492976,339.215063936277
738311.53556597465649247169,4.83748893704032,-1.37862280139571,339.251991332743
738311.53556606511119753122,4.81287067272968,-1.3047680084638,339.215063936277
738311.53556615556590259075,4.81287067272968,-1.37862280139571,339.10428174688
738311.53556624602060765028,4.81287067272968,-1.32938627277444,339.079663482569
738311.53556633647531270981,4.81287067272968,-1.34169540492976,339.202754804122
738311.53556642693001776934,4.80056154057436,-1.39093193355103,339.239682200588
738311.53556651750113815069,4.86210720135095,-1.32938627277444,339.12890001119
738311.53556660795584321022,4.73901587979776,-1.39093193355103,339.276609597054
738311.53556669841054826975,4.77594327626372,-1.39093193355103,339.288918729209
738311.53556678886525332928,4.78825240841904,-1.42785933001699,339.251991332743
738311.53556687931995838881,4.78825240841904,-1.36631366924039,339.239682200588
738311.53556696989107877016,4.80056154057436,-1.29245887630848,339.338155257831
738311.53556706034578382969,4.80056154057436,-1.32938627277444,339.276609597054
738311.53556715080048888922,4.77594327626372,-1.39093193355103,339.227373068433
738311.53556724125519394875,4.7636341441084,-1.36631366924039,339.31353699352
738311.53556733170989900827,4.825179804885,-1.32938627277444,339.301227861365
738311.53556742216460406780,4.78825240841904,-1.37862280139571,339.338155257831
738311.53556751273572444916,4.78825240841904,-1.36631366924039,339.215063936277
738311.53556760319042950869,4.80056154057436,-1.42785933001699,339.215063936277
738311.53556769364513456821,4.83748893704032,-1.35400453708508,339.178136539811
738311.53556778409983962774,4.84979806919563,-1.21860408337657,339.288918729209
738311.53556787455454468727,4.83748893704032,-1.36631366924039,339.264300464899
738311.53556796500924974680,4.81287067272968,-1.25553147984252,339.227373068433
738311.53556805558037012815,4.81287067272968,-1.26784061199784,339.288918729209
738311.53556814603507518768,4.77594327626372,-1.36631366924039,339.239682200588
738311.53556823648978024721,4.78825240841904,-1.35400453708508,339.239682200588
738311.53556832694448530674,4.75132501195308,-1.35400453708508,339.227373068433
738311.53556841739919036627,4.75132501195308,-1.31707714061912,339.276609597054
738311.53556850785389542580,4.71439761548713,-1.40324106570635,339.31353699352
738311.53556859842501580715,4.73901587979776,-1.36631366924039,339.288918729209
738311.53556868887972086668,4.72670674764244,-1.46478672648295,339.215063936277
738311.53556877933442592621,4.75132501195308,-1.31707714061912,339.301227861365
738311.53556886978913098574,4.72670674764244,-1.34169540492976,339.276609597054
738311.53556896024383604527,4.81287067272968,-1.37862280139571,339.202754804122
738311.53556905081495642662,4.92365286212755,-1.20629495122125,339.338155257831
738311.53556914126966148615,5.13290810876797,-0.775475325785089,339.461246579384
738311.53556923172436654568,5.63758252713604,-0.147709585863826,339.178136539811
738311.53556932217907160521,5.68681905575732,0.135400453708508,339.005808689637
738311.53556941263377666473,5.4160181483403,-0.11078218939787,339.079663482569
738311.53556950308848172426,4.77594327626372,-0.935494043804234,339.055045218258
738311.53556959365960210562,4.45590584022543,-1.77251503036592,338.858099103773
738311.53556968411430716515,4.32050538651692,-1.78482416252124,338.907335632394
738311.53556977456901222467,4.52976063315734,-1.62480544450209,338.895026500239
738311.53556986502371728420,4.70208848333181,-1.47709585863826,339.215063936277
738311.53556995547842234373,4.7636341441084,-1.40324106570635,339.239682200588
738311.53557004593312740326,4.73901587979776,-1.42785933001699,339.239682200588
738311.53557013650424778461,4.75132501195308,-1.41555019786167,339.264300464899
738311.53557022695895284414,4.77594327626372,-1.42785933001699,339.264300464899
738311.53557031741365790367,4.7636341441084,-1.44016846217231,339.227373068433
738311.53557040786836296320,4.7636341441084,-1.40324106570635,339.264300464899
738311.53557049832306802273,4.77594327626372,-1.42785933001699,339.251991332743
738311.53557058889418840408,4.77594327626372,-1.36631366924039,339.215063936277
738311.53557067934889346361,4.80056154057436,-1.39093193355103,339.227373068433
738311.53557076980359852314,4.80056154057436,-1.35400453708508,339.190445671967
738311.53557086025830358267,4.80056154057436,-1.37862280139571,339.190445671967
738311.53557095071300864220,4.825179804885,-1.39093193355103,339.251991332743
738311.53557104116771370173,4.84979806919563,-1.36631366924039,339.251991332743
738311.53557113173883408308,4.84979806919563,-1.31707714061912,339.190445671967
738311.53557122219353914261,4.86210720135095,-1.32938627277444,339.239682200588
738311.53557131264824420214,4.88672546566159,-1.31707714061912,339.264300464899
738311.53557140310294926167,4.88672546566159,-1.3047680084638,339.276609597054
738311.53557149355765432119,4.88672546566159,-1.29245887630848,339.215063936277
738311.53557158401235938072,4.89903459781691,-1.3047680084638,339.288918729209
738311.53557167458347976208,4.93596199428287,-1.21860408337657,339.301227861365
738311.53557176503818482161,4.9605802585935,-1.23091321553189,339.239682200588
738311.53557185549288988113,4.9605802585935,-1.20629495122125,339.227373068433
738311.53557194594759494066,4.94827112643818,-1.16936755475529,339.31353699352
738311.53557203640230000019,4.97288939074882,-1.18167668691061,339.31353699352
738311.53557212685700505972,5.00981678721478,-1.16936755475529,339.251991332743
738311.53557221742812544107,4.98519852290414,-1.20629495122125,339.301227861365
738311.53557230788283050060,4.99750765505946,-1.20629495122125,339.31353699352
738311.53557239833753556013,4.92365286212755,-1.29245887630848,339.239682200588
738311.53557248879224061966,4.93596199428287,-1.28014974415316,339.288918729209
738311.53557257924694567919,4.89903459781691,-1.37862280139571,339.276609597054
738311.53557266981806606054,4.89903459781691,-1.39093193355103,339.239682200588
738311.53557276027277112007,4.84979806919563,-1.37862280139571,339.251991332743
738311.53557285072747617960,4.86210720135095,-1.40324106570635,339.264300464899
738311.53557294118218123913,4.84979806919563,-1.41555019786167,339.227373068433
738311.53557303163688629866,4.87441633350627,-1.40324106570635,339.215063936277
738311.53557312209159135818,4.84979806919563,-1.40324106570635,339.239682200588
738311.53557321266271173954,4.84979806919563,-1.41555019786167,339.202754804122
738311.53557330311741679907,4.84979806919563,-1.45247759432763,338.993499557482
738311.53557339357212185860,4.84979806919563,-1.41555019786167,339.165827407656
738311.53557348402682691813,4.83748893704032,-1.42785933001699,339.251991332743
738311.53557357448153197765,4.84979806919563,-1.42785933001699,339.264300464899
738311.53557366493623703718,4.86210720135095,-1.44016846217231,339.264300464899
738311.53557375550735741854,4.83748893704032,-1.46478672648295,339.264300464899
738311.53557384596206247807,4.84979806919563,-1.44016846217231,339.276609597054
738311.53557393641676753759,4.87441633350627,-1.44016846217231,339.215063936277
738311.53557402687147259712,4.84979806919563,-1.47709585863826,339.239682200588
738311.53557411732617765665,4.86210720135095,-1.46478672648295,339.239682200588
738311.53557420789729803801,4.86210720135095,-1.46478672648295,339.153518275501
738311.53557429835200309753,4.86210720135095,-1.47709585863826,339.251991332743
738311.53557438880670815706,4.89903459781691,-1.45247759432763,339.215063936277
738311.53557447926141321659,4.89903459781691,-1.45247759432763,339.165827407656
738311.53557456971611827612,4.89903459781691,-1.44016846217231,339.178136539811
738311.53557466017082333565,4.86210720135095,-1.47709585863826,339.190445671967
738311.53557475074194371700,4.86210720135095,-1.48940499079358,339.165827407656
738311.53557484119664877653,4.89903459781691,-1.46478672648295,339.10428174688
738311.53557493165135383606,4.86210720135095,-1.47709585863826,339.202754804122
738311.53557502210605889559,4.87441633350627,-1.46478672648295,339.239682200588
738311.53557511256076395512,4.88672546566159,-1.45247759432763,339.239682200588
738311.53557520301546901464,4.87441633350627,-1.46478672648295,339.190445671967
738311.53557529358658939600,4.88672546566159,-1.44016846217231,339.239682200588
738311.53557538404129445553,4.89903459781691,-1.44016846217231,339.202754804122
738311.53557547449599951506,4.88672546566159,-1.45247759432763,339.239682200588
738311.53557556495070457458,4.88672546566159,-1.45247759432763,339.178136539811
738311.53557565540540963411,4.88672546566159,-1.44016846217231,339.251991332743
738311.53557574586011469364,4.87441633350627,-1.47709585863826,339.165827407656
738311.53557583643123507500,4.87441633350627,-1.46478672648295,339.239682200588
738311.53557592688594013453,4.89903459781691,-1.45247759432763,339.239682200588
738311.53557601734064519405,4.89903459781691,-1.46478672648295,339.141209143345
738311.53557610779535025358,4.91134372997223,-1.44016846217231,339.202754804122
738311.53557619825005531311,4.89903459781691,-1.44016846217231,339.215063936277
738311.53557628882117569447,4.87441633350627,-1.47709585863826,339.215063936277
738311.53557637927588075399,4.86210720135095,-1.48940499079358,339.264300464899
738311.53557646973058581352,4.87441633350627,-1.47709585863826,339.325846125675
738311.53557656018529087305,4.87441633350627,-1.47709585863826,339.338155257831
738311.53557665063999593258,4.88672546566159,-1.45247759432763,339.227373068433
738311.53557674109470099211,4.88672546566159,-1.46478672648295,339.005808689637
738311.53557683166582137346,4.88672546566159,-1.46478672648295,339.079663482569
738311.53557692212052643299,4.91134372997223,-1.44016846217231,339.178136539811
738311.53557701257523149252,4.89903459781691,-1.47709585863826,339.178136539811
738311.53557710302993655205,4.91134372997223,-1.48940499079358,339.165827407656
738311.53557719348464161158,4.92365286212755,-1.44016846217231,339.215063936277
738311.53557728393934667110,4.92365286212755,-1.45247759432763,339.251991332743
738311.53557737451046705246,4.93596199428287,-1.44016846217231,339.239682200588
738311.53557746496517211199,4.93596199428287,-1.42785933001699,339.288918729209
738311.53557755541987717152,4.93596199428287,-1.42785933001699,339.288918729209
738311.53557764587458223104,4.92365286212755,-1.44016846217231,339.251991332743
738311.53557773632928729057,4.89903459781691,-1.42785933001699,339.31353699352
738311.53557782690040767193,4.87441633350627,-1.46478672648295,339.301227861365
738311.53557791735511273146,4.87441633350627,-1.46478672648295,339.288918729209
738311.53557800780981779099,4.83748893704032,-1.51402325510422,339.251991332743
738311.53557809826452285051,4.84979806919563,-1.44016846217231,339.264300464899
738311.53557818871922791004,4.825179804885,-1.53864151941486,339.251991332743
738311.53557827917393296957,4.83748893704032,-1.55095065157018,339.227373068433
738311.53557836974505335093,4.84979806919563,-1.41555019786167,339.239682200588
738311.53557846019975841045,4.83748893704032,-1.48940499079358,339.264300464899
738311.53557855065446346998,4.87441633350627,-1.46478672648295,339.227373068433
738311.53557864110916852951,5.00981678721478,-1.3047680084638,339.276609597054
738311.53557873156387358904,5.08367158014669,-1.15705842259997,339.338155257831
738311.53557882201857864857,5.4160181483403,-0.677002268542538,339.288918729209
738311.53557891258969902992,5.85914690593178,-0.172327850174464,339.067354350414
738311.53557900304440408945,5.58834599851477,-0.307728303882972,339.116590879035
738311.53557909349910914898,4.89903459781691,-1.16936755475529,339.079663482569
738311.53557918395381420851,4.65285195471053,-1.90791548407442,338.882717368084
738311.53557927440851926804,4.50514236884671,-1.80944242683187,338.981190425326
738311.53557936486322432756,4.54206976531266,-1.73558763389996,338.956572161016
738311.53557945543434470892,4.71439761548713,-1.55095065157018,339.079663482569
738311.53557954588904976845,4.825179804885,-1.45247759432763,339.12890001119
738311.53557963634375482798,4.83748893704032,-1.45247759432763,339.165827407656
738311.53557972679845988750,4.86210720135095,-1.45247759432763,339.165827407656
738311.53557981725316494703,4.86210720135095,-1.42785933001699,339.12890001119
738311.53557990782428532839,4.86210720135095,-1.39093193355103,339.202754804122
738311.53557999827899038792,4.87441633350627,-1.42785933001699,339.202754804122
738311.53558008873369544744,4.87441633350627,-1.36631366924039,339.215063936277
738311.53558017918840050697,4.88672546566159,-1.45247759432763,339.178136539811
738311.53558026964310556650,4.89903459781691,-1.45247759432763,339.005808689637
738311.53558036009781062603,4.88672546566159,-1.34169540492976,339.091972614724
738311.53558045066893100739,4.88672546566159,-1.31707714061912,339.190445671967
738311.53558054112363606691,4.89903459781691,-1.35400453708508,339.190445671967
738311.53558063157834112644,4.89903459781691,-1.36631366924039,339.227373068433
738311.53558072203304618597,4.92365286212755,-1.34169540492976,339.178136539811
738311.53558081248775124550,4.92365286212755,-1.32938627277444,339.215063936277
738311.53558090294245630503,4.92365286212755,-1.35400453708508,339.251991332743
738311.53558099351357668638,4.94827112643818,-1.26784061199784,339.31353699352
738311.53558108396828174591,4.93596199428287,-1.29245887630848,339.239682200588
738311.53558117442298680544,4.9605802585935,-1.25553147984252,339.276609597054
738311.53558126487769186497,4.97288939074882,-1.21860408337657,339.264300464899
738311.53558135533239692450,4.98519852290414,-1.28014974415316,339.325846125675
738311.53558144590351730585,4.97288939074882,-1.16936755475529,339.375082654296
738311.53558153635822236538,4.99750765505946,-1.05858536535742,339.31353699352
738311.53558162681292742491,5.00981678721478,-1.12013102613402,339.288918729209
738311.53558171726763248444,4.99750765505946,-1.12013102613402,339.325846125675
738311.53558180772233754396,5.0221259193701,-1.25553147984252,339.325846125675
738311.53558189817704260349,4.9605802585935,-1.15705842259997,339.264300464899
738311.53558198874816298485,4.97288939074882,-1.21860408337657,339.288918729209
738311.53558207920286804438,4.89903459781691,-1.34169540492976,339.276609597054
738311.53558216965757310390,4.89903459781691,-1.35400453708508,339.276609597054
738311.53558226011227816343,4.89903459781691,-1.44016846217231,339.227373068433
738311.53558235056698322296,4.88672546566159,-1.39093193355103,339.239682200588
738311.53558244102168828249,4.88672546566159,-1.37862280139571,339.264300464899
738311.53558253159280866385,4.84979806919563,-1.39093193355103,339.288918729209
738311.53558262204751372337,4.83748893704032,-1.40324106570635,339.178136539811
738311.53558271250221878290,4.86210720135095,-1.52633238725954,339.239682200588
738311.53558280295692384243,4.81287067272968,-1.37862280139571,339.202754804122
738311.53558289341162890196,4.84979806919563,-1.41555019786167,339.12890001119
738311.53558298398274928331,4.83748893704032,-1.51402325510422,339.178136539811
738311.53558307443745434284,4.81287067272968,-1.42785933001699,339.165827407656
738311.53558316489215940237,4.81287067272968,-1.46478672648295,339.153518275501
738311.53558325534686446190,4.825179804885,-1.47709585863826,339.091972614724
738311.53558334580156952143,4.825179804885,-1.5017141229489,339.12890001119
738311.53558343625627458096,4.83748893704032,-1.45247759432763,339.190445671967
738311.53558352682739496231,4.83748893704032,-1.45247759432763,339.227373068433
738311.53558361728210002184,4.825179804885,-1.46478672648295,339.116590879035
738311.53558370773680508137,4.83748893704032,-1.45247759432763,339.153518275501
738311.53558379819151014090,4.83748893704032,-1.44016846217231,339.030426953948
738311.53558388864621520042,4.83748893704032,-1.47709585863826,339.116590879035
738311.53558397910092025995,4.825179804885,-1.47709585863826,339.239682200588
738311.53558406967204064131,4.83748893704032,-1.45247759432763,339.202754804122
738311.53558416012674570084,4.83748893704032,-1.45247759432763,339.153518275501
738311.53558425058145076036,4.84979806919563,-1.44016846217231,339.12890001119
738311.53558434103615581989,4.83748893704032,-1.46478672648295,339.141209143345
738311.53558443149086087942,4.825179804885,-1.46478672648295,339.153518275501
738311.53558452194556593895,4.83748893704032,-1.48940499079358,339.202754804122
738311.53558461251668632030,4.86210720135095,-1.41555019786167,339.091972614724
738311.53558470297139137983,4.80056154057436,-1.42785933001699,339.141209143345
738311.53558479342609643936,4.83748893704032,-1.42785933001699,339.091972614724
738311.53558488388080149889,4.825179804885,-1.44016846217231,339.091972614724
738311.53558497433550655842,4.83748893704032,-1.45247759432763,339.141209143345
738311.53558506490662693977,4.83748893704032,-1.42785933001699,339.12890001119
738311.53558515536133199930,4.825179804885,-1.55095065157018,339.12890001119
738311.53558524581603705883,4.80056154057436,-1.35400453708508,339.12890001119
738311.53558533627074211836,4.825179804885,-1.41555019786167,339.116590879035
738311.53558542672544717789,4.81287067272968,-1.41555019786167,339.165827407656
738311.53558551718015223742,4.81287067272968,-1.44016846217231,339.165827407656
738311.53558560775127261877,4.84979806919563,-1.40324106570635,339.153518275501
738311.53558569820597767830,4.78825240841904,-1.46478672648295,339.227373068433
738311.53558578866068273783,4.81287067272968,-1.45247759432763,339.202754804122
738311.53558587911538779736,4.80056154057436,-1.44016846217231,339.178136539811
738311.53558596957009285688,4.825179804885,-1.45247759432763,339.215063936277
738311.53558606002479791641,4.81287067272968,-1.42785933001699,339.251991332743
738311.53558615059591829777,4.81287067272968,-1.44016846217231,339.227373068433
738311.53558624105062335730,4.81287067272968,-1.42785933001699,339.165827407656
738311.53558633150532841682,4.80056154057436,-1.44016846217231,339.215063936277
738311.53558642196003347635,4.83748893704032,-1.41555019786167,339.264300464899
738311.53558651241473853588,4.80056154057436,-1.44016846217231,339.202754804122
738311.53558660298585891724,4.81287067272968,-1.44016846217231,339.215063936277
738311.53558669344056397676,4.825179804885,-1.41555019786167,339.239682200588
738311.53558678389526903629,4.81287067272968,-1.44016846217231,339.202754804122
738311.53558687434997409582,4.78825240841904,-1.45247759432763,339.202754804122
738311.53558696480467915535,4.81287067272968,-1.42785933001699,339.202754804122
738311.53558705525938421488,4.78825240841904,-1.45247759432763,339.190445671967
738311.53558714583050459623,4.81287067272968,-1.44016846217231,339.141209143345
738311.53558723628520965576,4.80056154057436,-1.45247759432763,339.202754804122
738311.53558732673991471529,4.81287067272968,-1.45247759432763,339.042736086103
738311.53558741719461977482,4.825179804885,-1.44016846217231,338.993499557482
738311.53558750764932483435,4.83748893704032,-1.45247759432763,339.190445671967
738311.53558759810402989388,4.83748893704032,-1.45247759432763,339.190445671967
738311.53558768867515027523,4.84979806919563,-1.41555019786167,339.153518275501
738311.53558777912985533476,4.86210720135095,-1.39093193355103,339.10428174688
738311.53558786958456039429,4.88672546566159,-1.35400453708508,339.079663482569
738311.53558796003926545382,4.86210720135095,-1.40324106570635,339.10428174688
738311.53558805049397051334,4.84979806919563,-1.41555019786167,339.10428174688
738311.53558814094867557287,4.84979806919563,-1.37862280139571,339.10428174688
738311.53558823151979595423,4.81287067272968,-1.40324106570635,339.10428174688
738311.53558832197450101376,4.81287067272968,-1.41555019786167,339.116590879035
738311.53558841242920607328,4.77594327626372,-1.44016846217231,339.116590879035
738311.53558850288391113281,4.77594327626372,-1.44016846217231,339.12890001119
738311.53558859333861619234,4.77594327626372,-1.44016846217231,339.12890001119
738311.53558868390973657370,4.77594327626372,-1.45247759432763,339.067354350414
738311.53558877436444163322,4.77594327626372,-1.45247759432763,339.12890001119
738311.53558886481914669275,4.77594327626372,-1.44016846217231,339.141209143345
738311.53558895527385175228,4.77594327626372,-1.46478672648295,339.12890001119
738311.53558904572855681181,4.83748893704032,-1.45247759432763,339.10428174688
738311.53558913618326187134,4.92365286212755,-1.36631366924039,339.215063936277
738311.53558922675438225269,5.12059897661265,-0.972421440270191,339.301227861365
738311.53558931720908731222,5.58834599851477,-0.43081962543616,339.12890001119
738311.53558940766379237175,5.88376517024242,0,338.833480839462
738311.53558949811849743128,5.31754509109775,-0.369273964659566,338.968881293171
738311.53558958857320249081,4.73901587979776,-1.34169540492976,338.94426302886
738311.53558967902790755033,4.41897844375947,-1.92022461622974,338.870408235928
738311.53558976959902793169,4.41897844375947,-1.82175155898719,339.018117821792
738311.53558986005373299122,4.59130629393394,-1.62480544450209,339.018117821792
738311.53558995050843805075,4.67747021902117,-1.52633238725954,339.141209143345
738311.53559004096314311028,4.7636341441084,-1.46478672648295,339.079663482569
738311.53559013141784816980,4.77594327626372,-1.46478672648295,339.202754804122
738311.53559022198896855116,4.78825240841904,-1.44016846217231,339.190445671967
738311.53559031244367361069,4.78825240841904,-1.44016846217231,339.190445671967
738311.53559040289837867022,4.78825240841904,-1.44016846217231,339.190445671967
738311.53559049335308372974,4.80056154057436,-1.41555019786167,339.215063936277
738311.53559058380778878927,4.81287067272968,-1.41555019786167,339.239682200588
738311.53559067426249384880,4.81287067272968,-1.42785933001699,339.116590879035
738311.53559076483361423016,4.81287067272968,-1.39093193355103,339.178136539811
738311.53559085528831928968,4.81287067272968,-1.39093193355103,339.10428174688
738311.53559094574302434921,4.825179804885,-1.40324106570635,339.042736086103
738311.53559103619772940874,4.825179804885,-1.37862280139571,339.178136539811
738311.53559112665243446827,4.825179804885,-1.39093193355103,339.190445671967
738311.53559121710713952780,4.87441633350627,-1.35400453708508,339.202754804122
738311.53559130767825990915,4.83748893704032,-1.37862280139571,339.153518275501
738311.53559139813296496868,4.86210720135095,-1.34169540492976,339.239682200588
738311.53559148858767002821,4.87441633350627,-1.32938627277444,339.215063936277
738311.53559157904237508774,4.91134372997223,-1.26784061199784,339.165827407656
738311.53559166949708014727,4.91134372997223,-1.28014974415316,339.227373068433
738311.53559175995178520679,4.93596199428287,-1.23091321553189,339.251991332743
738311.53559185052290558815,4.93596199428287,-1.20629495122125,339.264300464899
738311.53559194097761064768,4.94827112643818,-1.19398581906593,339.202754804122
738311.53559203143231570721,4.9605802585935,-1.16936755475529,339.276609597054
738311.53559212188702076674,4.9605802585935,-1.14474929044465,339.215063936277
738311.53559221234172582626,4.9605802585935,-1.16936755475529,339.165827407656
738311.53559230291284620762,4.9605802585935,-1.16936755475529,339.091972614724
738311.53559239336755126715,4.94827112643818,-1.20629495122125,339.10428174688
738311.53559248382225632668,4.91134372997223,-1.25553147984252,339.079663482569
738311.53559257427696138620,4.91134372997223,-1.28014974415316,339.12890001119
738311.53559266473166644573,4.86210720135095,-1.34169540492976,339.10428174688
738311.53559275518637150526,4.83748893704032,-1.36631366924039,339.091972614724
738311.53559284575749188662,4.81287067272968,-1.37862280139571,339.116590879035
738311.53559293621219694614,4.81287067272968,-1.39093193355103,339.079663482569
738311.53559302666690200567,4.80056154057436,-1.41555019786167,339.116590879035
738311.53559311712160706520,4.78825240841904,-1.42785933001699,339.12890001119
738311.53559320757631212473,4.77594327626372,-1.44016846217231,339.116590879035
738311.53559329803101718426,4.78825240841904,-1.41555019786167,339.12890001119
738311.53559338860213756561,4.78825240841904,-1.41555019786167,339.141209143345
738311.53559347905684262514,4.77594327626372,-1.42785933001699,339.165827407656
738311.53559356951154768467,4.78825240841904,-1.41555019786167,339.153518275501
738311.53559365996625274420,4.78825240841904,-1.42785933001699,339.079663482569
738311.53559375042095780373,4.77594327626372,-1.44016846217231,339.116590879035
738311.53559384099207818508,4.77594327626372,-1.42785933001699,339.116590879035
738311.53559393144678324461,4.78825240841904,-1.42785933001699,339.12890001119
738311.53559402190148830414,4.77594327626372,-1.45247759432763,339.141209143345
738311.53559411235619336367,4.78825240841904,-1.44016846217231,339.178136539811
738311.53559420281089842319,4.77594327626372,-1.44016846217231,339.190445671967
738311.53559429326560348272,4.78825240841904,-1.44016846217231,339.190445671967
738311.53559438383672386408,4.78825240841904,-1.42785933001699,339.030426953948
738311.53559447429142892361,4.78825240841904,-1.44016846217231,339.018117821792
738311.53559456474613398314,4.78825240841904,-1.44016846217231,339.178136539811
738311.53559465520083904266,4.78825240841904,-1.44016846217231,339.079663482569
738311.53559474565554410219,4.80056154057436,-1.42785933001699,339.190445671967
738311.53559483611024916172,4.77594327626372,-1.45247759432763,339.202754804122
738311.53559492668136954308,4.77594327626372,-1.41555019786167,339.12890001119
738311.53559501713607460260,4.77594327626372,-1.41555019786167,339.178136539811
738311.53559510759077966213,4.77594327626372,-1.42785933001699,339.202754804122
738311.53559519804548472166,4.77594327626372,-1.42785933001699,339.190445671967
738311.53559528850018978119,4.77594327626372,-1.42785933001699,339.153518275501
738311.53559537895489484072,4.7636341441084,-1.42785933001699,339.190445671967
738311.53559546952601522207,4.7636341441084,-1.44016846217231,339.190445671967
738311.53559555998072028160,4.7636341441084,-1.42785933001699,339.165827407656
738311.53559565043542534113,4.7636341441084,-1.44016846217231,339.190445671967
738311.53559574089013040066,4.75132501195308,-1.45247759432763,339.178136539811
738311.53559583134483546019,4.75132501195308,-1.44016846217231,339.215063936277
738311.53559592191595584154,4.7636341441084,-1.42785933001699,339.178136539811
738311.53559601237066090107,4.75132501195308,-1.44016846217231,339.202754804122
738311.53559610282536596060,4.7636341441084,-1.42785933001699,339.227373068433
738311.53559619328007102013,4.73901587979776,-1.45247759432763,339.116590879035
738311.53559628373477607965,4.73901587979776,-1.44016846217231,339.215063936277
738311.53559637418948113918,4.73901587979776,-1.44016846217231,339.215063936277
738311.53559646476060152054,4.73901587979776,-1.42785933001699,339.116590879035
738311.53559655521530658007,4.73901587979776,-1.42785933001699,339.202754804122
738311.53559664567001163960,4.75132501195308,-1.41555019786167,339.239682200588
738311.53559673612471669912,4.73901587979776,-1.42785933001699,339.165827407656
738311.53559682657942175865,4.73901587979776,-1.42785933001699,339.190445671967
738311.53559691703412681818,4.73901587979776,-1.42785933001699,339.202754804122
738311.53559700760524719954,4.72670674764244,-1.44016846217231,339.12890001119
738311.53559709805995225906,4.73901587979776,-1.42785933001699,339.190445671967
738311.53559718851465731859,4.75132501195308,-1.42785933001699,339.215063936277
738311.53559727896936237812,4.71439761548713,-1.45247759432763,339.153518275501
738311.53559736942406743765,4.72670674764244,-1.45247759432763,339.12890001119
738311.53559745999518781900,4.72670674764244,-1.44016846217231,339.215063936277
738311.53559755044989287853,4.73901587979776,-1.44016846217231,339.190445671967
738311.53559764090459793806,4.72670674764244,-1.42785933001699,339.091972614724
738311.53559773135930299759,4.72670674764244,-1.45247759432763,339.067354350414
738311.53559782181400805712,4.73901587979776,-1.42785933001699,339.091972614724
738311.53559791226871311665,4.72670674764244,-1.44016846217231,338.993499557482
738311.53559800283983349800,4.72670674764244,-1.44016846217231,338.907335632394
738311.53559809329453855753,4.72670674764244,-1.45247759432763,339.079663482569
738311.53559818374924361706,4.71439761548713,-1.45247759432763,339.079663482569
738311.53559827420394867659,4.72670674764244,-1.44016846217231,339.067354350414
738311.53559836465865373611,4.73901587979776,-1.42785933001699,339.10428174688
738311.53559845511335879564,4.72670674764244,-1.42785933001699,339.165827407656
738311.53559854568447917700,4.73901587979776,-1.42785933001699,339.202754804122
738311.53559863613918423653,4.72670674764244,-1.44016846217231,339.10428174688
738311.53559872659388929605,4.71439761548713,-1.45247759432763,339.165827407656
738311.53559881704859435558,4.72670674764244,-1.42785933001699,339.178136539811
738311.53559890750329941511,4.70208848333181,-1.45247759432763,339.190445671967
738311.53559899795800447464,4.70208848333181,-1.42785933001699,339.153518275501
738311.53559908852912485600,4.71439761548713,-1.44016846217231,339.215063936277
738311.53559917898382991552,4.73901587979776,-1.41555019786167,339.227373068433
738311.53559926943853497505,4.73901587979776,-1.41555019786167,339.227373068433
738311.53559935989324003458,4.71439761548713,-1.44016846217231,339.190445671967
738311.53559945034794509411,4.70208848333181,-1.45247759432763,339.215063936277
738311.53559954091906547546,4.71439761548713,-1.45247759432763,339.251991332743
738311.53559963137377053499,4.71439761548713,-1.44016846217231,339.178136539811
738311.53559972182847559452,4.72670674764244,-1.42785933001699,339.227373068433
738311.53559981228318065405,4.71439761548713,-1.45247759432763,339.239682200588
738311.53559990273788571358,4.70208848333181,-1.45247759432763,339.190445671967
738311.53559999319259077311,4.70208848333181,-1.44016846217231,339.202754804122
738311.53560008376371115446,4.72670674764244,-1.44016846217231,339.178136539811
738311.53560017421841621399,4.72670674764244,-1.45247759432763,339.153518275501
738311.53560026467312127352,4.75132501195308,-1.42785933001699,339.165827407656
738311.53560035512782633305,4.75132501195308,-1.41555019786167,339.153518275501
738311.53560044558253139257,4.77594327626372,-1.39093193355103,339.153518275501
738311.53560053603723645210,4.80056154057436,-1.37862280139571,339.165827407656
738311.53560062660835683346,4.7636341441084,-1.39093193355103,339.178136539811
738311.53560071706306189299,4.75132501195308,-1.39093193355103,339.190445671967
738311.53560080751776695251,4.73901587979776,-1.39093193355103,339.190445671967
738311.53560089797247201204,4.73901587979776,-1.40324106570635,339.12890001119
738311.53560098842717707157,4.70208848333181,-1.44016846217231,339.116590879035
738311.53560107899829745293,4.68977935117649,-1.45247759432763,339.116590879035
738311.53560116945300251245,4.66516108686585,-1.46478672648295,339.12890001119
738311.53560125990770757198,4.68977935117649,-1.45247759432763,339.079663482569
738311.53560135036241263151,4.67747021902117,-1.44016846217231,339.091972614724
738311.53560144081711769104,4.67747021902117,-1.44016846217231,339.079663482569
738311.53560153127182275057,4.68977935117649,-1.44016846217231,338.981190425326
738311.53560162184294313192,4.68977935117649,-1.45247759432763,339.190445671967
738311.53560171229764819145,4.75132501195308,-1.46478672648295,339.202754804122
738311.53560180275235325098,4.87441633350627,-1.28014974415316,339.215063936277
738311.53560189320705831051,5.12059897661265,-0.837020986561683,339.350464389986
738311.53560198366176337004,5.62527339498072,-0.233873510951058,339.055045218258
738311.53560207411646842957,5.72374645222327,0.0861639250872321,338.956572161016
738311.53560216468758881092,5.05905331583605,-0.492365286212755,339.042736086103
738311.53560225514229387045,4.64054282255521,-1.47709585863826,338.956572161016
738311.53560234559699892998,4.33281451867224,-1.87098808760847,338.931953896705
738311.53560243605170398951,4.40666931160415,-1.74789676605528,338.968881293171
738311.53560252650640904903,4.57899716177862,-1.55095065157018,339.153518275501
738311.53560261696111410856,4.67747021902117,-1.46478672648295,339.067354350414
738311.53560270753223448992,4.70208848333181,-1.44016846217231,339.202754804122
738311.53560279798693954945,4.71439761548713,-1.44016846217231,339.239682200588
738311.53560288844164460897,4.71439761548713,-1.42785933001699,339.202754804122
738311.53560297889634966850,4.71439761548713,-1.42785933001699,339.12890001119
738311.53560306935105472803,4.73901587979776,-1.41555019786167,339.227373068433
738311.53560315992217510939,4.73901587979776,-1.41555019786167,339.251991332743
738311.53560325037688016891,4.72670674764244,-1.41555019786167,339.251991332743
738311.53560334083158522844,4.73901587979776,-1.40324106570635,339.215063936277
738311.53560343128629028797,4.73901587979776,-1.37862280139571,339.276609597054
738311.53560352174099534750,4.73901587979776,-1.40324106570635,339.239682200588
738311.53560361219570040703,4.75132501195308,-1.40324106570635,339.239682200588
738311.53560370276682078838,4.73901587979776,-1.39093193355103,339.276609597054
738311.53560379322152584791,4.7636341441084,-1.39093193355103,339.239682200588
738311.53560388367623090744,4.77594327626372,-1.37862280139571,339.215063936277
738311.53560397413093596697,4.78825240841904,-1.35400453708508,339.239682200588
738311.53560406458564102650,4.80056154057436,-1.35400453708508,339.239682200588
738311.53560415504034608603,4.81287067272968,-1.32938627277444,339.239682200588
738311.53560424561146646738,4.83748893704032,-1.3047680084638,339.264300464899
738311.53560433606617152691,4.84979806919563,-1.28014974415316,339.264300464899
738311.53560442652087658644,4.86210720135095,-1.25553147984252,339.264300464899
738311.53560451697558164597,4.84979806919563,-1.24322234768721,339.239682200588
738311.53560460743028670549,4.87441633350627,-1.20629495122125,339.288918729209
738311.53560469800140708685,4.88672546566159,-1.20629495122125,339.276609597054
738311.53560478845611214638,4.86210720135095,-1.21860408337657,339.276609597054
738311.53560487891081720591,4.86210720135095,-1.21860408337657,339.251991332743
738311.53560496936552226543,4.87441633350627,-1.20629495122125,339.251991332743
738311.53560505982022732496,4.86210720135095,-1.24322234768721,339.10428174688
738311.53560515027493238449,4.83748893704032,-1.29245887630848,339.165827407656
738311.53560524084605276585,4.81287067272968,-1.34169540492976,339.264300464899
738311.53560533130075782537,4.80056154057436,-1.35400453708508,339.239682200588
738311.53560542175546288490,4.77594327626372,-1.40324106570635,339.178136539811
738311.53560551221016794443,4.7636341441084,-1.42785933001699,339.227373068433
738311.53560560266487300396,4.73901587979776,-1.44016846217231,339.215063936277
738311.53560569311957806349,4.72670674764244,-1.46478672648295,339.141209143345
738311.53560578369069844484,4.71439761548713,-1.46478672648295,339.153518275501
738311.53560587414540350437,4.71439761548713,-1.45247759432763,339.141209143345
738311.53560596460010856390,4.70208848333181,-1.47709585863826,339.141209143345
738311.53560605505481362343,4.71439761548713,-1.46478672648295,339.153518275501
738311.53560614550951868296,4.71439761548713,-1.47709585863826,339.165827407656
738311.53560623596422374249,4.70208848333181,-1.47709585863826,339.227373068433
738311.53560632653534412384,4.71439761548713,-1.48940499079358,339.202754804122
738311.53560641699004918337,4.70208848333181,-1.47709585863826,339.153518275501
738311.53560650744475424290,4.70208848333181,-1.5017141229489,339.178136539811
738311.53560659789945930243,4.70208848333181,-1.5017141229489,339.178136539811
738311.53560668835416436195,4.71439761548713,-1.47709585863826,339.153518275501
738311.53560677892528474331,4.72670674764244,-1.47709585863826,339.202754804122
738311.53560686937998980284,4.72670674764244,-1.48940499079358,339.165827407656
738311.53560695983469486237,4.71439761548713,-1.48940499079358,339.215063936277
738311.53560705028939992189,4.71439761548713,-1.48940499079358,339.264300464899
738311.53560714074410498142,4.72670674764244,-1.48940499079358,339.288918729209
738311.53560723119881004095,4.72670674764244,-1.48940499079358,339.153518275501
738311.53560732176993042231,4.71439761548713,-1.5017141229489,339.251991332743
738311.53560741222463548183,4.72670674764244,-1.48940499079358,339.264300464899
738311.53560750267934054136,4.72670674764244,-1.48940499079358,339.190445671967
738311.53560759313404560089,4.71439761548713,-1.48940499079358,339.239682200588
738311.53560768358875066042,4.71439761548713,-1.48940499079358,339.276609597054
738311.53560777404345571995,4.71439761548713,-1.5017141229489,339.239682200588
738311.53560786461457610130,4.72670674764244,-1.48940499079358,339.227373068433
738311.53560795506928116083,4.71439761548713,-1.48940499079358,339.288918729209
738311.53560804552398622036,4.71439761548713,-1.48940499079358,339.264300464899
738311.53560813597869127989,4.71439761548713,-1.5017141229489,339.202754804122
738311.53560822643339633942,4.71439761548713,-1.48940499079358,339.251991332743
738311.53560831700451672077,4.70208848333181,-1.48940499079358,339.165827407656
738311.53560840745922178030,4.68977935117649,-1.5017141229489,339.141209143345
738311.53560849791392683983,4.67747021902117,-1.51402325510422,338.956572161016
738311.53560858836863189936,4.70208848333181,-1.51402325510422,339.042736086103
738311.53560867882333695889,4.68977935117649,-1.5017141229489,339.165827407656
738311.53560876927804201841,4.70208848333181,-1.5017141229489,339.178136539811
738311.53560885984916239977,4.67747021902117,-1.5017141229489,339.153518275501
738311.53560895030386745930,4.68977935117649,-1.5017141229489,339.227373068433
738311.53560904075857251883,4.70208848333181,-1.47709585863826,339.215063936277
738311.53560913121327757835,4.68977935117649,-1.45247759432763,339.227373068433
738311.53560922166798263788,4.71439761548713,-1.42785933001699,339.239682200588
738311.53560931212268769741,4.72670674764244,-1.42785933001699,339.153518275501
738311.53560940269380807877,4.73901587979776,-1.41555019786167,339.264300464899
738311.53560949314851313829,4.73901587979776,-1.41555019786167,339.301227861365
738311.53560958360321819782,4.73901587979776,-1.41555019786167,339.301227861365
738311.53560967405792325735,4.70208848333181,-1.42785933001699,339.251991332743
738311.53560976451262831688,4.70208848333181,-1.44016846217231,339.276609597054
738311.53560985508374869823,4.68977935117649,-1.47709585863826,339.264300464899
738311.53560994553845375776,4.65285195471053,-1.52633238725954,339.239682200588
738311.53561003599315881729,4.65285195471053,-1.52633238725954,339.264300464899
738311.53561012644786387682,4.66516108686585,-1.51402325510422,339.264300464899
738311.53561021690256893635,4.66516108686585,-1.5017141229489,339.153518275501
738311.53561030735727399588,4.66516108686585,-1.51402325510422,339.227373068433
738311.53561039792839437723,4.66516108686585,-1.51402325510422,339.227373068433
738311.53561048838309943676,4.66516108686585,-1.52633238725954,339.178136539811
738311.53561057883780449629,4.71439761548713,-1.52633238725954,339.202754804122
738311.53561066929250955582,4.86210720135095,-1.34169540492976,339.239682200588
738311.53561075974721461535,5.09598071230201,-0.935494043804234,339.31353699352
738311.53561085020191967487,5.57603686635945,-0.369273964659566,339.055045218258
738311.53561094077304005623,5.53910946989349,-0.233873510951058,339.091972614724
738311.53561103122774511576,4.89903459781691,-0.984730572425509,339.079663482569
738311.53561112168245017529,4.50514236884671,-1.89560635191911,338.94426302886
738311.53561121213715523481,4.35743278298288,-2.03100680562761,338.968881293171
738311.53561130259186029434,4.35743278298288,-1.88329721976379,339.067354350414
738311.53561139304656535387,4.50514236884671,-1.73558763389996,339.055045218258
738311.53561148361768573523,4.65285195471053,-1.58787804803613,339.227373068433
738311.53561157407239079475,4.67747021902117,-1.53864151941486,339.239682200588
738311.53561166452709585428,4.68977935117649,-1.53864151941486,339.202754804122
738311.53561175498180091381,4.70208848333181,-1.52633238725954,339.227373068433
738311.53561184543650597334,4.70208848333181,-1.51402325510422,339.239682200588
738311.53561193600762635469,4.70208848333181,-1.5017141229489,339.264300464899
738311.53561202646233141422,4.71439761548713,-1.48940499079358,339.005808689637
738311.53561211691703647375,4.72670674764244,-1.47709585863826,339.202754804122
738311.53561220737174153328,4.73901587979776,-1.47709585863826,339.288918729209
738311.53561229782644659281,4.72670674764244,-1.46478672648295,339.239682200588
738311.53561238828115165234,4.72670674764244,-1.45247759432763,339.251991332743
738311.53561247885227203369,4.73901587979776,-1.45247759432763,339.251991332743
738311.53561256930697709322,4.73901587979776,-1.44016846217231,339.276609597054
738311.53561265976168215275,4.75132501195308,-1.42785933001699,339.202754804122
738311.53561275021638721228,4.75132501195308,-1.41555019786167,339.301227861365
738311.53561284067109227180,4.7636341441084,-1.39093193355103,339.301227861365
738311.53561293112579733133,4.7636341441084,-1.37862280139571,339.288918729209
738311.53561302169691771269,4.78825240841904,-1.35400453708508,339.276609597054
738311.53561311215162277222,4.78825240841904,-1.31707714061912,339.31353699352
738311.53561320260632783175,4.81287067272968,-1.28014974415316,339.239682200588
738311.53561329306103289127,4.825179804885,-1.25553147984252,339.239682200588
738311.53561338351573795080,4.825179804885,-1.23091321553189,339.264300464899
738311.53561347408685833216,4.825179804885,-1.23091321553189,339.251991332743
738311.53561356454156339169,4.83748893704032,-1.21860408337657,339.215063936277
738311.53561365499626845121,4.83748893704032,-1.21860408337657,339.301227861365
738311.53561374545097351074,4.83748893704032,-1.23091321553189,339.31353699352
738311.53561383590567857027,4.825179804885,-1.26784061199784,339.227373068433
738311.53561392636038362980,4.78825240841904,-1.32938627277444,339.276609597054
738311.53561401693150401115,4.77594327626372,-1.36631366924039,339.227373068433
738311.53561410738620907068,4.75132501195308,-1.40324106570635,339.215063936277
738311.53561419784091413021,4.75132501195308,-1.42785933001699,339.239682200588
738311.53561428829561918974,4.71439761548713,-1.45247759432763,339.202754804122
738311.53561437875032424927,4.70208848333181,-1.47709585863826,339.251991332743
738311.53561446920502930880,4.68977935117649,-1.48940499079358,339.239682200588
738311.53561455977614969015,4.67747021902117,-1.48940499079358,339.153518275501
738311.53561465023085474968,4.67747021902117,-1.48940499079358,339.239682200588
738311.53561474068555980921,4.67747021902117,-1.5017141229489,339.251991332743
738311.53561483114026486874,4.66516108686585,-1.5017141229489,339.239682200588
738311.53561492159496992826,4.66516108686585,-1.5017141229489,339.215063936277
738311.53561501204967498779,4.67747021902117,-1.51402325510422,339.276609597054
738311.53561510262079536915,4.66516108686585,-1.52633238725954,339.239682200588
738311.53561519307550042868,4.66516108686585,-1.52633238725954,339.12890001119
738311.53561528353020548820,4.66516108686585,-1.53864151941486,339.116590879035
738311.53561537398491054773,4.66516108686585,-1.52633238725954,339.227373068433
738311.53561546443961560726,4.65285195471053,-1.53864151941486,339.239682200588
738311.53561555501073598862,4.65285195471053,-1.52633238725954,339.067354350414
738311.53561564546544104815,4.66516108686585,-1.51402325510422,339.079663482569
738311.53561573592014610767,4.67747021902117,-1.51402325510422,339.251991332743
738311.53561582637485116720,4.66516108686585,-1.51402325510422,339.288918729209
738311.53561591682955622673,4.67747021902117,-1.5017141229489,339.288918729209
738311.53561600728426128626,4.66516108686585,-1.5017141229489,339.276609597054
738311.53561609785538166761,4.66516108686585,-1.5017141229489,339.215063936277
738311.53561618831008672714,4.67747021902117,-1.5017141229489,339.251991332743
738311.53561627876479178667,4.66516108686585,-1.5017141229489,339.251991332743
738311.53561636921949684620,4.66516108686585,-1.5017141229489,339.215063936277
738311.53561645967420190573,4.66516108686585,-1.5017141229489,339.276609597054
738311.53561655012890696526,4.66516108686585,-1.48940499079358,339.276609597054
738311.53561664070002734661,4.65285195471053,-1.5017141229489,339.288918729209
738311.53561673115473240614,4.66516108686585,-1.48940499079358,339.227373068433
738311.53561682160943746567,4.66516108686585,-1.5017141229489,339.239682200588
738311.53561691206414252520,4.66516108686585,-1.5017141229489,339.239682200588
738311.53561700251884758472,4.65285195471053,-1.5017141229489,339.12890001119
738311.53561709308996796608,4.65285195471053,-1.48940499079358,339.116590879035
738311.53561718354467302561,4.64054282255521,-1.51402325510422,339.165827407656
738311.53561727399937808514,4.64054282255521,-1.5017141229489,339.12890001119
738311.53561736445408314466,4.65285195471053,-1.5017141229489,339.116590879035
738311.53561745490878820419,4.65285195471053,-1.5017141229489,339.190445671967
738311.53561754536349326372,4.65285195471053,-1.5017141229489,339.153518275501
738311.53561763593461364508,4.65285195471053,-1.5017141229489,339.202754804122
738311.53561772638931870461,4.65285195471053,-1.5017141229489,339.178136539811
738311.53561781684402376413,4.64054282255521,-1.51402325510422,339.227373068433
738311.53561790729872882366,4.65285195471053,-1.5017141229489,339.239682200588
738311.53561799775343388319,4.64054282255521,-1.51402325510422,339.190445671967
738311.53561808820813894272,4.64054282255521,-1.5017141229489,339.251991332743
738311.53561817877925932407,4.65285195471053,-1.48940499079358,339.288918729209
738311.53561826923396438360,4.62823369039989,-1.52633238725954,339.215063936277
738311.53561835968866944313,4.66516108686585,-1.47709585863826,339.251991332743
738311.53561845014337450266,4.62823369039989,-1.5017141229489,339.264300464899
738311.53561854059807956219,4.62823369039989,-1.5017141229489,339.264300464899
738311.53561863105278462172,4.64054282255521,-1.48940499079358,339.202754804122
738311.53561872162390500307,4.64054282255521,-1.5017141229489,339.264300464899
738311.53561881207861006260,4.62823369039989,-1.5017141229489,339.276609597054
738311.53561890253331512213,4.64054282255521,-1.47709585863826,339.190445671967
738311.53561899298802018166,4.64054282255521,-1.47709585863826,339.251991332743
738311.53561908344272524118,4.64054282255521,-1.47709585863826,339.091972614724
738311.53561917401384562254,4.64054282255521,-1.48940499079358,339.116590879035
738311.53561926446855068207,4.64054282255521,-1.47709585863826,339.227373068433
738311.53561935492325574160,4.64054282255521,-1.47709585863826,339.264300464899
738311.53561944537796080112,4.64054282255521,-1.48940499079358,339.190445671967
738311.53561953583266586065,4.64054282255521,-1.47709585863826,339.227373068433
738311.53561962628737092018,4.64054282255521,-1.47709585863826,339.251991332743
738311.53561971685849130154,4.64054282255521,-1.47709585863826,339.264300464899
738311.53561980731319636106,4.65285195471053,-1.47709585863826,339.227373068433
738311.53561989776790142059,4.64054282255521,-1.47709585863826,339.276609597054
738311.53561998822260648012,4.64054282255521,-1.46478672648295,339.276609597054
738311.53562007867731153965,4.64054282255521,-1.47709585863826,339.288918729209
738311.53562016913201659918,4.64054282255521,-1.48940499079358,339.276609597054
738311.53562025970313698053,4.62823369039989,-1.48940499079358,339.264300464899
738311.53562035015784204006,4.64054282255521,-1.46478672648295,339.178136539811
738311.53562044061254709959,4.64054282255521,-1.47709585863826,339.178136539811
738311.53562053106725215912,4.64054282255521,-1.47709585863826,339.153518275501
738311.53562062152195721865,4.66516108686585,-1.46478672648295,339.165827407656
738311.53562071209307760000,4.66516108686585,-1.47709585863826,339.165827407656
738311.53562080254778265953,4.68977935117649,-1.45247759432763,339.276609597054
738311.53562089300248771906,4.70208848333181,-1.44016846217231,339.276609597054
738311.53562098345719277859,4.71439761548713,-1.42785933001699,339.202754804122
738311.53562107391189783812,4.70208848333181,-1.42785933001699,339.251991332743
738311.53562116436660289764,4.68977935117649,-1.41555019786167,339.325846125675
738311.53562125493772327900,4.65285195471053,-1.44016846217231,339.215063936277
738311.53562134539242833853,4.66516108686585,-1.44016846217231,339.251991332743
738311.53562143584713339806,4.62823369039989,-1.47709585863826,339.264300464899
738311.53562152630183845758,4.61592455824458,-1.48940499079358,339.239682200588
738311.53562161675654351711,4.61592455824458,-1.47709585863826,339.227373068433
738311.53562170721124857664,4.61592455824458,-1.47709585863826,339.251991332743
738311.53562179778236895800,4.61592455824458,-1.47709585863826,339.251991332743
738311.53562188823707401752,4.60361542608926,-1.48940499079358,339.227373068433
738311.53562197869177907705,4.61592455824458,-1.47709585863826,339.251991332743
738311.53562206914648413658,4.61592455824458,-1.48940499079358,339.12890001119
738311.53562215960118919611,4.68977935117649,-1.5017141229489,339.141209143345
738311.53562225005589425564,4.825179804885,-1.26784061199784,339.288918729209
738311.53562234062701463699,5.13290810876797,-0.824711854406364,339.325846125675
738311.53562243108171969652,5.68681905575732,-0.258491775261696,338.968881293171
738311.53562252153642475605,5.68681905575732,-0.0492365286212755,338.931953896705
738311.53562261199112981558,4.92365286212755,-0.738547929319132,338.907335632394
738311.53562270244583487511,4.48052410453607,-1.67404197312337,338.821171707307
738311.53562279301695525646,4.19741406496373,-1.89560635191911,338.981190425326
738311.53562288347166031599,4.34512365082756,-1.74789676605528,339.005808689637
738311.53562297392636537552,4.52976063315734,-1.5632597837255,339.178136539811
738311.53562306438107043505,4.61592455824458,-1.48940499079358,339.239682200588
738311.53562315483577549458,4.62823369039989,-1.47709585863826,339.202754804122
738311.53562324529048055410,4.62823369039989,-1.46478672648295,339.264300464899
738311.53562333586160093546,4.62823369039989,-1.47709585863826,339.301227861365
