time_dn,ecg_projection_ll_ra_mV,ecg_projection_la_ra_mV,ecg_projection_vx_rl_mV
738193.82719589944463223219,1.29751618276233,-2.84024590336234,740.479013182205
738193.82719592237845063210,1.27636050498809,-2.85668963472322,740.668741146971
738193.82719594542868435383,1.26568650392928,-2.8362070921509,740.671914498637
738193.82719596836250275373,1.2407805014587,-2.84390006588698,740.662202119295
738193.82719599141273647547,1.22827941913757,-2.8366879030094,740.640180981976
738193.82719601434655487537,1.22549071615824,-2.84101520073595,740.65345136167
738193.82719603739678859711,1.2316450951471,-2.83159130790925,740.656913199851
738193.82719606033060699701,1.21414357989751,-2.85736276992513,740.642392711925
738193.82719608338084071875,1.22577920267334,-2.84851585012863,740.653643686014
738193.82719610631465911865,1.20548898444442,-2.84841968795693,740.661625146265
738193.82719612936489284039,1.19366103732519,-2.84120752507935,740.63421892733
738193.82719615229871124029,1.20587363313122,-2.83514930826219,740.645566063591
738193.82719617534894496202,1.22087493191659,-2.82899492927332,740.623641088443
738193.82719619828276336193,1.23251055469241,-2.84139984942275,740.626718277937
738193.82719622133299708366,1.21087406605968,-2.83851498427172,740.627679899654
738193.82719624438323080540,1.20827768742375,-2.84697725538142,740.61950611506
738193.82719626731704920530,1.16385076409786,-2.86784444664054,740.441702259585
738193.82719629036728292704,1.16115822329023,-2.85332395871369,740.302267110618
738193.82719631330110132694,1.14759935708038,-2.85909368901575,740.349386574752
738193.82719633635133504868,1.13211724743651,-2.85976682421766,740.517574213057
738193.82719635928515344858,1.13692535602157,-2.86986385224627,740.507284860685
738193.82719638233538717031,1.130674814861,-2.86024763507616,740.513727726189
738193.82719640526920557022,1.11326946178311,-2.85697812123833,740.609120600516
738193.82719642831943929195,1.10288394723939,-2.86197855416678,740.628737683543
738193.82719645125325769186,1.10423021764321,-2.87486428517472,740.597773464255
738193.82719647430349141359,1.09124832446357,-2.86822909532735,740.455549612309
738193.82719649723730981350,1.06874637628552,-2.8817879615372,740.60479330279
738193.82719652028754353523,1.03845529219969,-2.87005617658967,740.616621249909
738193.82719654322136193514,1.04028237346201,-2.86265168936869,740.592869193499
738193.82719656627159565687,1.0301853454334,-2.88351888062782,740.502861400786
738193.82719658920541405678,1.04095550866391,-2.87861460987106,740.42843187989
738193.82719661225564777851,1.06018794300412,-2.87207558219539,740.564405190675
738193.82719663518946617842,1.05566832093418,-2.86611352754993,740.526421132853
738193.82719665823969990015,1.06990032234593,-2.85957449987425,740.434874745394
738193.82719668117351830006,1.05634145613608,-2.86111309462147,740.594119301731
738193.82719670422375202179,1.0578800508833,-2.88073017764849,740.385062740453
738193.82719672715757042170,1.03816680568458,-2.8910195300205,740.578348705572
738193.82719675020780414343,1.04018621129031,-2.8633248245706,740.57257897527
738193.82719677314162254333,1.02355015558602,-2.88842315138457,740.578637192087
738193.82719679619185626507,1.02662734508046,-2.88428817800142,740.160620231702
738193.82719681912567466497,1.02710815593896,-2.8727487173973,740.288708244408
738193.82719684217590838671,1.01710729008205,-2.89505834123194,740.441894583928
738193.82719686510972678661,0.993259071500191,-2.88755769183926,740.207643533664
738193.82719688815996050835,1.00499085644772,-2.91130974824942,740.440452151352
738193.82719691109377890825,1.00960664068937,-2.88409585365802,740.339001060208
738193.82719693414401262999,1.03008918326169,-2.87822996118426,740.527863565429
738193.82719695707783102989,1.03845529219969,-2.89159650305071,740.50872729326
738193.82719698012806475163,1.03383950795804,-2.91794493809679,740.343039871419
738193.82719700306188315153,1.05403356401526,-2.90092423370571,740.513439239674
738193.82719702611211687326,1.06076491603433,-2.9181372624402,740.523920916389
738193.82719704916235059500,1.08817113496913,-2.91371380254195,740.508823455432
738193.82719707209616899490,1.11019227228867,-2.90428990971524,740.515266320936
738193.82719709514640271664,1.10596113673383,-2.89909715244339,740.41150733767
738193.82719711808022111654,1.12827076056847,-2.90515536926055,740.415065338023
738193.82719714113045483828,1.12884773359868,-2.92179142496484,740.527478916742
738193.82719716406427323818,1.14086800506131,-2.91650250552128,740.460261558723
738193.82719718711450695992,1.15192665480693,-2.89380823299983,740.304959651426
738193.82719721004832535982,1.17356314343967,-2.89938563895849,740.35102133167
738193.82719723309855908155,1.18106379283235,-2.90313596365483,740.551423297495
738193.82719725603237748146,1.17971752242854,-2.90784791006818,740.551807946182
738193.82719727908261120319,1.18029449545874,-2.88909628658648,740.569117137088
738193.82719730201642960310,1.1673126022791,-2.91169439693623,740.214374885683
738193.82719732506666332483,1.18654503661931,-2.89775088203957,740.156966069178
738193.82719734800048172474,1.19991157848576,-2.89755855769617,740.425450852567
738193.82719737105071544647,1.21625914767494,-2.90313596365483,740.493341345788
738193.82719739398453384638,1.28213023529016,-2.8818841237089,740.500649670837
738193.82719741703476756811,1.31194050851748,-2.89803936855468,740.432278366758
738193.82719743996858596802,1.31126737331558,-2.8818841237089,740.59806195077
738193.82719746301881968975,1.32501856386883,-2.90342445016993,740.508631131088
738193.82719748595263808966,1.33790429487677,-2.9182334246119,740.60652422188
738193.82719750900287181139,1.34213543043162,-2.89169266522241,740.605274113648
738193.82719753193669021130,1.35800218876229,-2.89592380077725,740.455838098825
738193.82719755498692393303,1.36684910855879,-2.89900099027169,740.608447465314
738193.82719757792074233294,1.35502116143956,-2.90525153143225,740.546134378052
738193.82719760097097605467,1.37242651451745,-2.89159650305071,740.484686750335
738193.82719762390479445457,1.37588835269869,-2.88746152966756,740.630949413492
738193.82719764695502817631,1.37636916355719,-2.90082807153401,740.641911901066
738193.82719766988884657621,1.35790602659059,-2.88534596189014,740.63537287339
738193.82719769293908029795,1.34800132290538,-2.88063401547678,740.621140871979
738193.82719771587289869785,1.3585791617925,-2.90188585542272,740.629410818745
738193.82719773892313241959,1.36127170260013,-2.88861547572797,740.487475453314
738193.82719776185695081949,1.36925316285131,-2.87688369078044,740.561039514666
738193.82719778490718454123,1.35319408017724,-2.88332655628441,740.589022706631
738193.82719780795741826296,1.3495399176526,-2.87207558219539,740.295631920771
738193.82719783089123666286,1.36011775653971,-2.89371207082813,740.307748354405
738193.82719785394147038460,1.37608067704209,-2.88332655628441,740.504592319877
738193.82719787687528878450,1.3680030546192,-2.88861547572797,740.431509069384
738193.82719789992552250624,1.38915873239343,-2.87034466310477,740.515939456138
738193.82719792285934090614,1.40002505779565,-2.87794147466916,740.489302534577
738193.82719794590957462788,1.4040638690071,-2.86563271669142,740.616332763394
738193.82719796884339302778,1.40973743713746,-2.88092250199189,740.606331897537
738193.82719799189362674952,1.40867965324875,-2.89178882739411,740.60710119491
738193.82719801482744514942,1.41473787006591,-2.88928861092988,740.55113481098
738193.82719803787767887115,1.42445024940772,-2.87832612335596,740.430643609839
738193.82719806081149727106,1.42435408723602,-2.89544298991875,740.610178384405
738193.82719808386173099279,1.40877581542045,-2.88496131320333,740.611332330465
738193.82719810679554939270,1.40848732890534,-2.89005790830349,740.615851952535
738193.82719812984578311443,1.4046408420373,-2.87784531249745,740.599792869861
738193.82719815277960151434,1.40579478809771,-2.85976682421766,740.610851519607
738193.82719817582983523607,1.38079262345544,-2.89880866592828,740.480359452608
738193.82719819876365363598,1.37367662274956,-2.88274958325421,740.597965788599
738193.82719822181388735771,1.3588676483076,-2.87188325785199,740.602870059355
738193.82719824474770575762,1.37540754184018,-2.8634209867423,740.501130481696
738193.82719826779793947935,1.37261883886085,-2.85947833770255,740.6285453592
738193.82719829073175787926,1.38098494779884,-2.89784704421127,740.597677302084
738193.82719831378199160099,1.40771803153174,-2.8727487173973,740.290919974357
738193.82719833671581000090,1.40531397723921,-2.86736363578204,740.386312848685
738193.82719835976604372263,1.39473613835209,-2.87101779830668,740.380831604898
738193.82719838269986212254,1.39733251698802,-2.86178622982338,740.379869983181
738193.82719840575009584427,1.41089138319787,-2.88438434017313,740.514977834421
738193.82719842868391424417,1.43839376430437,-2.882172610224,740.603158545871
738193.82719845173414796591,1.41185300491488,-2.86303633805549,740.607197357082
738193.82719847466796636581,1.40694873415813,-2.86140158113657,740.599215896831
738193.82719849771820008755,1.38492759683859,-2.85813206729874,740.60200459981
738193.82719852065201848745,1.38713932678771,-2.86159390547998,740.601523788952
738193.82719854370225220919,1.3956015978974,-2.87053698744817,740.61440951996
738193.82719856663607060909,1.38944721890853,-2.86832525749905,740.627776061826
738193.82719858968630433083,1.38887024587833,-2.87130628482178,740.627199088796
738193.82719861273653805256,1.40771803153174,-2.88111482633529,740.605081789305
738193.82719863567035645247,1.41618030264143,-2.8909233678488,740.616621249909
738193.82719865872059017420,1.43281635834571,-2.86649817623673,740.603639356729
738193.82719868165440857410,1.41589181612632,-2.86669050058013,740.462761775187
738193.82719870470464229584,1.40925662627895,-2.87909542072957,740.538922215174
738193.82719872763846069574,1.40098667951266,-2.89515450340364,740.607005032739
738193.82719875068869441748,1.38492759683859,-2.88130715067869,740.614024871273
738193.82719877362251281738,1.39848646304843,-2.89342358431303,740.617294385111
738193.82719879667274653912,1.38906257022173,-2.86274785154039,740.581329732894
738193.82719881960656493902,1.40339073380519,-2.86101693244977,740.291689271731
738193.82719884265679866076,1.404737004209,-2.87044082527647,740.403814363934
738193.82719886559061706066,1.38790862416132,-2.8731333660841,740.541710918154
738193.82719888864085078239,1.40146749037117,-2.86534423017632,740.542961026386
738193.82719891157466918230,1.40137132819947,-2.86601736537822,740.543057188557
738193.82719893462490290403,1.38560073204049,-2.8634209867423,740.594215463902
738193.82719895755872130394,1.38694700244431,-2.87121012265008,740.58219519244
738193.82719898060895502567,1.39069732714065,-2.88121098850699,740.562193460726
738193.82719900354277342558,1.38386981294987,-2.87159477133689,740.467954532459
738193.82719902659300714731,1.37906170436482,-2.86957536573116,740.57373292133
738193.82719904952682554722,1.35963694568121,-2.86717131143864,740.56075102815
738193.82719907257705926895,1.35165548543002,-2.85361244522879,740.565943785422
738193.82719909551087766886,1.34617424164306,-2.86043995941956,740.574502218704
738193.82719911856111139059,1.37358046057786,-2.86428644628761,740.574021407845
738193.82719914149492979050,1.38819711067642,-2.87563358254833,740.579598813804
738193.82719916454516351223,1.37935019087992,-2.86765212229714,740.584503084561
738193.82719918747898191214,1.37810008264781,-2.86294017588379,740.558250811686
738193.82719921052921563387,1.35954078350951,-2.84341925502848,740.584887733247
738193.82719923346303403378,1.36915700067961,-2.85140071527966,740.57767557037
738193.82719925651326775551,1.38223505603096,-2.85515103997601,740.574021407845
738193.82719927944708615541,1.39377451663508,-2.84899666098714,740.547480648456
738193.82719930249731987715,1.41156451839978,-2.84640028235121,740.52228615947
738193.82719932543113827705,1.41954597865096,-2.85091990442116,740.254570673454
738193.82719934848137199879,1.42733511455875,-2.86130541896487,740.371407712071
738193.82719937153160572052,1.42666197935684,-2.85178536396647,740.497380156999
738193.82719939446542412043,1.41848819476225,-2.85601649952132,740.51209296927
738193.82719941751565784216,1.40858349107704,-2.8544779047741,740.5680593532
738193.82719944044947624207,1.40348689597689,-2.8641902841159,740.620467736777
738193.82719946349970996380,1.3957939222408,-2.87226790653879,740.639988657632
738193.82719948643352836370,1.39646705744271,-2.8548625534609,740.637680765511
738193.82719950948376208544,1.39108197582745,-2.8549587156326,740.617871358141
738193.82719953241758048534,1.36992629805322,-2.86861374401415,740.62066006112
738193.82719955546781420708,1.37406127143637,-2.86092077027807,740.610851519607
738193.82719957840163260698,1.36396424340776,-2.86476725714611,740.634699738189
738193.82719960145186632872,1.33905824093718,-2.86226704068188,740.52170918644
738193.82719962438568472862,1.35117467457152,-2.87726833946725,740.538537566488
738193.82719964743591845036,1.35396337755085,-2.87746066381065,740.639988657632
738193.82719967036973685026,1.37444592012317,-2.86188239199508,740.627199088796
738193.82719969341997057199,1.39300521926147,-2.86284401371209,740.633738116472
738193.82719971635378897190,1.36867618982111,-2.85909368901575,740.641527252379
738193.82719973940402269363,1.37588835269869,-2.8730372039124,740.641238765864
738193.82719976233784109354,1.37829240699121,-2.8547663912892,740.629795467432
738193.82719978538807481527,1.37444592012317,-2.86774828446884,740.647296982681
738193.82719980832189321518,1.38983186759534,-2.85409325608729,740.557096865626
738193.82719983137212693691,1.41733424870184,-2.845823309321,740.32553835617
738193.82719985430594533682,1.45474133349355,-2.85168920179477,740.47026242458
738193.82719987735617905855,1.44031700773839,-2.8548625534609,740.557673838656
738193.82719990028999745846,1.41704576218674,-2.85620882386472,740.572771299613
738193.82719992334023118019,1.42156538425669,-2.85111222876456,740.427951069031
738193.82719994627404958010,1.41425705920741,-2.84601563366441,740.639411684602
738193.82719996932428330183,1.40637176112792,-2.85159303962307,740.672587633839
738193.82719999225810170174,1.38242738037436,-2.85688195906662,740.653739848185
738193.82720001530833542347,1.38185040734415,-2.87678752860874,740.652393577782
738193.82720003824215382338,1.38483143466688,-2.85803590512704,740.660663524548
738193.82720006129238754511,1.39858262522013,-2.85697812123833,740.63816157637
738193.82720008422620594501,1.39896727390694,-2.86726747361034,740.63479590036
738193.82720010727643966675,1.40589095026942,-2.85140071527966,740.639219360258
738193.82720013021025806665,1.41819970824715,-2.86890223052926,740.652778226468
738193.82720015326049178839,1.41993062733777,-2.85745893209683,740.649412550459
738193.82720017631072551012,1.42387327637751,-2.86294017588379,740.652970550812
738193.82720019924454391003,1.41041057233936,-2.86294017588379,740.647393144853
738193.82720022229477763176,1.38204273168755,-2.86245936502529,740.604889464961
738193.82720024522859603167,1.37040710891173,-2.8544779047741,740.488437075031
738193.82720026827882975340,1.34588575512796,-2.87678752860874,740.660375038033
738193.82720029121264815331,1.35742521573208,-2.87169093350859,740.651431956065
738193.82720031426288187504,1.37569602835528,-2.84909282315884,740.646143036621
738193.82720033719670027494,1.39425532749359,-2.85274698568348,740.351405980357
738193.82720036024693399668,1.39031267845384,-2.86524806800462,740.368234360405
738193.82720038318075239658,1.38944721890853,-2.84986212053245,740.568251677543
738193.82720040623098611832,1.41752657304524,-2.85245849916838,740.55113481098
738193.82720042916480451822,1.42762360107385,-2.84264995765487,740.541230107295
738193.82720045221503823996,1.43387414223442,-2.845823309321,740.61498649299
738193.82720047514885663986,1.4406054942535,-2.83361071351497,740.650662658691
738193.82720049819909036160,1.44954857622169,-2.84822736361353,740.635180549047
738193.82720052113290876150,1.42156538425669,-2.86457493280271,740.630180116119
738193.82720054418314248323,1.41541100526782,-2.85380476957219,740.619602277231
738193.82720056711696088314,1.41444938355081,-2.85034293139095,740.471801019327
738193.82720059016719460487,1.41031441016766,-2.86034379724786,740.632968819098
738193.82720061310101300478,1.40387154466369,-2.8637094732574,740.653547523842
738193.82720063615124672651,1.40877581542045,-2.8455348228059,740.660182713689
738193.82720065908506512642,1.41012208582426,-2.83332222699987,740.66306757884
738193.82720068213529884815,1.40310224729008,-2.84053438987745,740.668548822627
738193.82720070506911724806,1.40935278845065,-2.84726574189652,740.664221524901
738193.82720072811935096979,1.40887197759215,-2.84899666098714,740.651912766923
738193.82720075105316936970,1.37858089350632,-2.84611179583611,740.651335793893
738193.82720077410340309143,1.36319494603415,-2.85601649952132,740.653066712983
738193.82720079703722149134,1.38358132643477,-2.85957449987425,740.635853684249
738193.82720082008745521307,1.44416349460643,-2.82861028058651,740.35102133167
738193.82720084302127361298,1.45656841475587,-2.85005444487585,740.30919078698
738193.82720086607150733471,1.44781765713107,-2.84649644452291,740.444202476049
738193.82720088900532573462,1.44502895415174,-2.84947747184564,740.597100329053
738193.82720091205555945635,1.42829673627576,-2.8360147678075,740.585368544106
738193.82720093510579317808,1.42214235728689,-2.85601649952132,740.665375470961
738193.82720095803961157799,1.41916132996416,-2.84726574189652,740.663548389699
738193.82720098108984529972,1.42820057410406,-2.84803503927013,740.671145201263
738193.82720100402366369963,1.43031614188148,-2.85553568866281,740.678165039797
738193.82720102707389742136,1.43993235905159,-2.84418855240209,740.655374605104
738193.82720105000771582127,1.43877841299118,-2.85024676921925,740.658067145912
738193.82720107305794954300,1.44195176465731,-2.83841882210002,740.655759253791
738193.82720109599176794291,1.44377884591963,-2.85217001265327,740.664221524901
738193.82720111904200166464,1.43416262874953,-2.85976682421766,740.66643325485
738193.82720114197582006454,1.42973916885128,-2.86294017588379,740.60652422188
738193.82720116502605378628,1.42896987147767,-2.8730372039124,740.515939456138
738193.82720118795987218618,1.42762360107385,-2.86438260845931,740.644027468844
738193.82720121101010590792,1.41444938355081,-2.85563185083451,740.671337525607
738193.82720123394392430782,1.40531397723921,-2.85015060704755,740.679511310201
738193.82720125699415802956,1.41483403223761,-2.85130455310796,740.669221957829
738193.82720127992797642946,1.42493106026622,-2.85563185083451,740.66585628182
738193.82720130297821015120,1.41685343784334,-2.84120752507935,740.673356931212
738193.82720132591202855110,1.40262143643158,-2.8548625534609,740.665375470961
738193.82720134896226227283,1.3951207870389,-2.86486341931781,740.240819482901
738193.82720137189608067274,1.42156538425669,-2.83938044381703,740.231780238761
738193.82720139494631439447,1.41108370754127,-2.83707255169621,740.574406056532
738193.82720141788013279438,1.41762273521694,-2.84014974119064,740.612678600869
738193.82720144093036651611,1.41733424870184,-2.84813120144183,740.583445300672
738193.82720146386418491602,1.42502722243792,-2.83293757831306,740.467569883772
738193.82720148691441863775,1.42416176289262,-2.82101346902213,740.666914065708
738193.82720150984823703766,1.42377711420581,-2.84245763331147,740.677011093737
738193.82720153289847075939,1.41916132996416,-2.83716871386791,740.662105957123
738193.82720155583228915930,1.4048331663807,-2.84255379548317,740.687108121766
738193.82720157888252288103,1.38829327284812,-2.83764952472641,740.659124929801
738193.82720160181634128094,1.3951207870389,-2.83168747008095,740.511323671896
738193.82720162486657500267,1.40685257198643,-2.83534163260559,740.471127884125
738193.82720164780039340258,1.38983186759534,-2.85688195906662,740.709898556459
738193.82720167085062712431,1.38887024587833,-2.84063055204915,740.70884077257
738193.82720169378444552422,1.39752484133142,-2.84918898533054,740.712302610751
738193.82720171683467924595,1.40031354431075,-2.83716871386791,740.564501352847
738193.82720173988491296768,1.40646792329962,-2.85765125644023,740.601619951123
738193.82720176281873136759,1.41944981647926,-2.82611006412229,740.551519459667
738193.82720178586896508932,1.41781505956035,-2.84207298462466,740.698936068885
738193.82720180880278348923,1.42493106026622,-2.83976509250384,740.691146932977
738193.82720183185301721096,1.4227193303171,-2.84168833593786,740.544691945476
738193.82720185478683561087,1.43445111526463,-2.8361109299792,740.177737098265
738193.82720187783706933260,1.44175944031391,-2.8361109299792,740.456222747511
738193.82720190077088773251,1.45637609041247,-2.84178449810956,740.498822589575
738193.82720192382112145424,1.42675814152854,-2.83111049705074,740.357368035003
738193.82720194675493985415,1.43079695273999,-2.83322606482817,740.585368544106
738193.82720196980517357588,1.41560332961122,-2.84486168760399,740.680761418433
738193.82720199273899197578,1.41300695097529,-2.85255466134008,740.659990389346
738193.82720201578922569752,1.4413747916271,-2.83207211876775,740.655566929448
738193.82720203872304409742,1.44300954854602,-2.83572628129239,740.66191363278
738193.82720206177327781916,1.43675900738545,-2.84870817447203,740.532287025327
738193.82720208470709621906,1.42925835799277,-2.84024590336234,740.636142170764
738193.82720210775732994080,1.41425705920741,-2.84755422841162,740.678261201969
738193.82720213069114834070,1.41223765360168,-2.84851585012863,740.47651296574
738193.82720215374138206244,1.41464170789421,-2.86226704068188,740.634026602987
738193.82720217667520046234,1.41493019440931,-2.85592033734961,740.646335360964
738193.82720219972543418407,1.39637089527101,-2.84938130967394,740.6336419543
738193.82720222265925258398,1.41002592365256,-2.85620882386472,740.527478916742
738193.82720224570948630571,1.41858435693395,-2.84870817447203,740.447183503372
738193.82720226864330470562,1.41819970824715,-2.85543952649111,740.631622548694
738193.82720229169353842735,1.40290992294668,-2.84168833593786,740.656432388993
738193.82720231462735682726,1.40531397723921,-2.82899492927332,740.665760119648
738193.82720233767759054899,1.39329370577658,-2.83572628129239,740.654124496872
738193.82720236061140894890,1.40319840946179,-2.83514930826219,740.363522413992
738193.82720238366164267063,1.36598364901348,-2.82812946972801,740.392371065502
738193.82720240659546107054,1.3500207285111,-2.84697725538142,740.581522057238
738193.82720242964569479227,1.34636656598646,-2.82341752331466,740.453722531047
738193.82720245257951319218,1.34684737684497,-2.82928341578842,740.385639713483
738193.82720247562974691391,1.35165548543002,-2.82447530720337,740.659124929801
738193.82720249867998063564,1.36944548719472,-2.81985952296172,740.655374605104
738193.82720252161379903555,1.36559900032667,-2.83880347078683,740.666625579193
738193.82720254466403275728,1.359059972651,-2.82409065851657,740.515170158764
738193.82720256759785115719,1.36319494603415,-2.83245676745456,740.500265022151
738193.82720259064808487892,1.36732991941729,-2.82995655099033,740.650374172176
738193.82720261358190327883,1.37896554219312,-2.81966719861832,740.661432821921
738193.82720263663213700056,1.36540667598327,-2.83341838917157,740.65681703768
738193.82720265956595540047,1.37550370401188,-2.79937698038939,740.514400861391
738193.82720268261618912220,1.39194743537276,-2.81033946796331,740.5228631325
738193.82720270555000752211,1.41060289668277,-2.79697292609687,740.701532447521
738193.82720272860024124384,1.41079522102617,-2.80495438634806,740.697397474138
738193.82720275153405964375,1.40214062557307,-2.79562665569305,740.594792436933
738193.82720277458429336548,1.40550630158261,-2.78610660069465,740.518728159117
738193.82720279751811176538,1.41925749213586,-2.80341579160084,740.659413416316
738193.82720282056834548712,1.43070079056829,-2.78668357372485,740.488533237203
738193.82720284350216388702,1.42570035763983,-2.80216568336872,740.571232704866
738193.82720286655239760876,1.41810354607545,-2.82149427988064,740.270918242643
738193.82720288948621600866,1.42377711420581,-2.83784184906982,740.460838531753
738193.82720291253644973040,1.41877668127736,-2.83707255169621,740.571713515724
738193.82720293547026813030,1.43243170965891,-2.83764952472641,740.445164097766
738193.82720295852050185204,1.44002852122329,-2.82245590159765,740.443433178675
738193.82720298145432025194,1.41685343784334,-2.8272640101827,740.640180981976
738193.82720300450455397367,1.39877494956354,-2.84149601159446,740.66306757884
738193.82720302743837237358,1.40089051734096,-2.8457271471493,740.663548389699
738193.82720305048860609531,1.40185213905797,-2.83149514573755,740.669702768688
738193.82720307342242449522,1.41973830299437,-2.83832265992832,740.670183579546
738193.82720309647265821695,1.44397117026303,-2.82360984765806,740.701051636662
738193.82720311940647661686,1.44781765713107,-2.83091817270734,740.663548389699
738193.82720314245671033859,1.43656668304205,-2.81283968442754,740.679222823686
738193.82720316539052873850,1.45483749566525,-2.81976336079002,740.676914931565
738193.82720318844076246023,1.45147181965571,-2.80591600806507,740.687204283937
738193.82720321137458086014,1.43820143996097,-2.80822390018589,740.666337092678
738193.82720323442481458187,1.40848732890534,-2.82918725361672,740.67662644505
738193.82720325735863298178,1.41002592365256,-2.83591860563579,740.667875687425
738193.82720328040886670351,1.40358305814859,-2.82485995589017,740.671914498637
738193.82720330345910042524,1.42195003294349,-2.81870557690131,740.67037590389
738193.82720332639291882515,1.43906689950628,-2.83476465957538,740.682300013181
738193.82720334944315254688,1.4320470609721,-2.82553309109208,740.56353973113
738193.82720337237697094679,1.47849338990371,-2.82909109144502,740.348809601721
738193.82720339542720466852,1.51868917767475,-2.81264736008414,740.512285293613
738193.82720341836102306843,1.51109236611037,-2.82505228023358,740.597869626427
738193.82720344141125679016,1.48791728273041,-2.83813033558492,740.621140871979
738193.82720346434507519007,1.4778202547018,-2.83553395694899,740.621717845009
738193.82720348739530891180,1.46349209111835,-2.83745720038301,740.686050337877
738193.82720351032912731171,1.46301128025984,-2.8633248245706,740.689704500402
738193.82720353337936103344,1.44820230581788,-2.85563185083451,740.669125795658
738193.82720355631317943335,1.43772062910246,-2.8640941219442,740.671049039092
738193.82720357936341315508,1.42839289844746,-2.84716957972482,740.666625579193
738193.82720360229723155499,1.42877754713427,-2.84255379548317,740.672395309495
738193.82720362534746527672,1.42329630334731,-2.84851585012863,740.667394876567
738193.82720364828128367662,1.40329457163349,-2.83726487603961,740.660567362376
738193.82720367133151739836,1.4133915996621,-2.83880347078683,740.668741146971
738193.82720369426533579826,1.45214495485762,-2.84178449810956,740.6941279603
738193.82720371731556952000,1.4682040375317,-2.83024503750543,740.712110286408
738193.82720374024938791990,1.52869004353166,-2.80687762978208,740.761537642662
738193.82720376329962164164,1.57090523690842,-2.8003386021064,740.722880449638
738193.82720378623344004154,1.60369653745848,-2.79658827741006,740.833082298408
738193.82720380928367376328,1.59936923973194,-2.81389746831625,740.825197000328
738193.82720383221749216318,1.58321399488616,-2.82428298285997,740.845198732042
738193.82720385526772588491,1.55715404635517,-2.83697638952451,740.845487218557
738193.82720387820154428482,1.53946020676218,-2.86813293315565,740.531229241438
738193.82720390125177800655,1.51984312373516,-2.86063228376297,740.514208537047
738193.82720392418559640646,1.43704749390056,-2.87544125820493,740.653932172529
738193.82720394723583012819,1.3315575915445,-2.89246196259601,740.578348705572
738193.82720397016964852810,1.1675049266225,-2.89582763860555,740.473531938418
738193.82720399321988224983,1.01412626275932,-2.89428904385833,740.5228631325
738193.82720401615370064974,0.867190464400108,-2.88351888062782,740.472089505842
738193.82720403920393437147,0.644478874740467,-2.86130541896487,740.305632786628
738193.82720406225416809320,0.456866477751709,-2.87380650128601,740.147734500694
738193.82720408518798649311,0.293486948031618,-2.91765645158169,739.992817242084
738193.82720410823822021484,0.142223851945859,-2.95640980677722,739.825783549839
738193.82720413117203861475,0.00615437898886748,-2.99650943237656,739.565376388873
738193.82720415422227233648,-0.0465424911033103,-3.05334127585188,739.620861961944
738193.82720417715609073639,-0.0226942725214488,-3.02430029999816,739.649902937798
738193.82720420020632445812,0.0981815773067765,-2.97708467369294,739.718658890564
738193.82720422314014285803,0.201363587542008,-2.93410018294257,739.798761979591
738193.82720424619037657976,0.384937173319321,-2.87967239375977,739.926657667954
738193.82720426912419497967,0.57553059763081,-2.90554001794736,740.009453297788
738193.82720429217442870140,0.828533271376285,-2.94746672480902,740.030801299906
738193.82720431510824710131,1.03335869709953,-2.96717997000773,740.113693091912
738193.82720433815848082304,1.18721817182122,-2.91900272198551,740.186103207203
738193.82720436109229922295,1.26010909797062,-2.89486601688854,740.299478407639
738193.82720438414253294468,1.3499245663394,-2.86649817623673,740.112154497165
738193.82720440707635134459,1.45377971177654,-2.84928514750224,740.146099743775
738193.82720443012658506632,1.48378230934727,-2.82091730685043,740.324961383139
738193.82720445306040346622,1.51243863651418,-2.79687676392517,740.501803616898
738193.82720447611063718796,1.51638128555393,-2.81457060351816,740.449491395492
738193.82720449904445558786,1.51897766418985,-2.83207211876775,740.550173189263
738193.82720452209468930960,1.5142657177765,-2.83707255169621,740.663548389699
738193.82720454502850770950,1.50936144701975,-2.83187979442435,740.650470334348
738193.82720456807874143124,1.48070511985284,-2.83332222699987,740.652489739953
738193.82720459101255983114,1.42646965501344,-2.83928428164533,740.560558703807
738193.82720461406279355288,1.40867965324875,-2.8363994164943,740.657009362023
738193.82720463699661195278,1.38319667774797,-2.8456309849776,740.680376769747
738193.82720466004684567451,1.36367575689265,-2.82207125291084,740.5279597276
738193.82720468298066407442,1.37396510926466,-2.83187979442435,740.685569527018
738193.82720470603089779615,1.37838856916291,-2.83764952472641,740.684896391817
738193.82720472896471619606,1.39752484133142,-2.8367840651811,740.667875687425
738193.82720475201494991779,1.42108457339818,-2.85255466134008,740.685761851362
738193.82720477494876831770,1.44416349460643,-2.83553395694899,740.675184012475
738193.82720479799900203943,1.44810614364618,-2.84197682245296,740.68624266222
738193.82720482093282043934,1.44377884591963,-2.84236147113977,740.686531148735
738193.82720484398305416107,1.43627819652695,-2.82110963119383,740.538249079972
738193.82720486703328788280,1.42069992471138,-2.84765039058332,740.67268379601
738193.82720488996710628271,1.42089224905478,-2.83928428164533,740.367561225203
738193.82720491301734000444,1.40935278845065,-2.82409065851657,740.3312119243
738193.82720493595115840435,1.40954511279406,-2.82322519897126,740.589022706631
738193.82720495900139212608,1.4139685726923,-2.82159044205234,740.498149454373
738193.82720498193521052599,1.39175511102936,-2.8185132525579,740.573348272643
738193.82720500498544424772,1.39185127320106,-2.83264909179796,740.60200459981
738193.82720502791926264763,1.36194483780203,-2.85015060704755,740.619602277231
738193.82720505096949636936,1.38579305638389,-2.8273601723544,740.66249060581
738193.82720507390331476927,1.37415743360807,-2.84928514750224,740.612774763041
738193.82720509695354849100,1.36396424340776,-2.84197682245296,740.687492770452
738193.82720511988736689091,1.36396424340776,-2.8455348228059,740.6992245554
738193.82720514293760061264,1.32953818593878,-2.8360147678075,740.698839906713
738193.82720516587141901255,1.3319422402313,-2.84101520073595,740.682684661867
738193.82720518892165273428,1.32511472604053,-2.84938130967394,740.5884457336
738193.82720521185547113419,1.33540407841254,-2.84755422841162,740.471320208468
738193.82720523490570485592,1.31386375195151,-2.84216914679636,740.71393736767
738193.82720525783952325583,1.34319321432033,-2.83688022735281,740.705763583076
738193.82720528088975697756,1.3679068924475,-2.83726487603961,740.691050770805
738193.82720530382357537746,1.39088965148405,-2.82341752331466,740.692877852068
738193.82720532687380909920,1.3865623537575,-2.81899406341641,740.649604874802
738193.82720534980762749910,1.38963954325194,-2.82245590159765,740.531710052297
738193.82720537285786122084,1.36386808123605,-2.83332222699987,740.67941514803
738193.82720539579167962074,1.36146402694353,-2.82880260492992,740.205047155028
738193.82720541884191334248,1.36492586512477,-2.80130022382342,740.422854473931
738193.82720544177573174238,1.35377105320744,-2.83284141614136,740.599119734659
738193.82720546482596546412,1.3500207285111,-2.83082201053564,740.589022706631
738193.82720548775978386402,1.36463737860966,-2.81668617129558,740.59806195077
738193.82720551081001758575,1.36156018911523,-2.82312903679955,740.533729457902
738193.82720553374383598566,1.3592522969944,-2.82207125291084,740.677395742424
738193.82720555679406970739,1.33973137613909,-2.80841622452929,740.623160277584
738193.82720557972788810730,1.33828894356357,-2.82870644275822,740.655566929448
738193.82720560277812182903,1.32117207700079,-2.83361071351497,740.599696707689
738193.82720562582835555077,1.31145969765898,-2.82822563189971,740.563058920271
738193.82720564876217395067,1.2948236419547,-2.83466849740368,740.667298714395
738193.82720567181240767241,1.29280423634898,-2.83688022735281,740.610082222233
738193.82720569474622607231,1.28645753301671,-2.84726574189652,740.65854795677
738193.82720571779645979404,1.2952082906415,-2.84072671422085,740.620179250262
738193.82720574073027819395,1.32126823917249,-2.82447530720337,740.664894660103
738193.82720576378051191568,1.33626953795785,-2.82774482104121,740.641815738894
738193.82720578671433031559,1.32559553689903,-2.82784098321291,740.557770000828
738193.82720580976456403732,1.33078829417089,-2.82418682068827,740.650085685661
738193.82720583269838243723,1.30876715685135,-2.83043736184883,740.518920483461
738193.82720585574861615896,1.2855920734714,-2.82495611806187,740.649797199146
738193.82720587868243455887,1.27366796418047,-2.83216828093945,740.632295683896
738193.82720590173266828060,1.26510953089907,-2.82928341578842,740.222067859419
738193.82720592466648668051,1.25530098938556,-2.83370687568667,740.422277500901
738193.82720594771672040224,1.25116601600242,-2.82255206376935,740.45670355837
738193.82720597065053880215,1.25049288080051,-2.82053265816363,740.415353824538
738193.82720599370077252388,1.22154806711849,-2.81957103644662,740.549596216233
738193.82720601663459092379,1.21106639040308,-2.82918725361672,740.634603576017
738193.82720603968482464552,1.19279557777988,-2.81428211700306,740.570751894007
738193.82720606261864304543,1.21577833681643,-2.84120752507935,740.542384053356
738193.82720608566887676716,1.20712374136334,-2.81928254993151,740.569309461432
738193.82720610860269516706,1.19635357813282,-2.8186094147296,740.475262857508
738193.82720613165292888880,1.2128934716654,-2.8181286038711,740.571809677896
738193.82720615458674728870,1.19058384783075,-2.83418768654518,740.577579408198
738193.82720617763698101044,1.18337168495318,-2.83178363225265,740.582387516783
738193.82720620057079941034,1.15211897915033,-2.8546702291175,740.526421132853
738193.82720622362103313208,1.13307886915352,-2.83341838917157,740.475455181852
738193.82720624655485153198,1.14173346460662,-2.83005271316203,740.544499621133
738193.82720626960508525372,1.13827162642538,-2.81726314432579,740.594215463902
738193.82720629253890365362,1.11759675950965,-2.81428211700306,740.624987358847
738193.82720631558913737535,1.11826989471156,-2.83938044381703,740.627199088796
738193.82720633852295577526,1.10211464986578,-2.82822563189971,740.589984328348
738193.82720636157318949699,1.12057778683239,-2.82976422664693,740.556423730424
738193.82720638450700789690,1.09730654128073,-2.83736103821131,740.521997672955
738193.82720640755724161863,1.07249670098186,-2.83043736184883,740.188891910183
738193.82720643060747534037,1.03797448134118,-2.82072498250703,740.397852309289
738193.82720645354129374027,0.988547125086839,-2.84986212053245,740.488052426344
738193.82720647659152746201,0.99777869357014,-2.84995828270415,740.470550911095
738193.82720649952534586191,1.01008745154788,-2.85130455310796,740.501226643868
738193.82720652257557958364,1.04778302285469,-2.85572801300621,740.567290055826
738193.82720654550939798355,1.04999475280381,-2.83966893033214,740.603447032386
738193.82720656855963170528,1.04057085997711,-2.8636133110857,740.538056755629
738193.82720659149345010519,1.04509048204706,-2.85515103997601,740.579791138147
738193.82720661454368382692,1.03287788624103,-2.85082374224946,740.543537999416
738193.82720663747750222683,1.02566572336345,-2.85592033734961,740.584983895419
738193.82720666052773594856,1.03739750831097,-2.84774655275502,740.565174488049
738193.82720668346155434847,1.03864761654309,-2.85976682421766,740.608832114001
738193.82720670651178807020,1.04076318432051,-2.83389920003007,740.538922215174
738193.82720672944560647011,1.03287788624103,-2.85159303962307,740.545653567193
738193.82720675249584019184,1.00662561336664,-2.85265082351178,740.549884702748
738193.82720677542965859175,0.994413017560603,-2.85370860740049,740.528344376287
738193.82720679847989231348,1.00162518043818,-2.87928774507297,740.521228375581
738193.82720682141371071339,0.996047774479521,-2.87178709568029,740.517381888713
738193.82720684446394443512,0.988931773773643,-2.87217174436709,740.505457779422
738193.82720686739776283503,1.01681880356695,-2.88640374577885,740.555173622192
738193.82720689044799655676,1.01085674892148,-2.87111396047838,740.498726427403
738193.82720691338181495667,1.03797448134118,-2.88428817800142,740.121674552163
738193.82720693643204867840,1.03432031881654,-2.88794234052607,740.168217043267
738193.82720695936586707830,1.01037593806298,-2.90255899062463,740.461992477814
738193.82720698241610080004,1.01951134437458,-2.88255725891081,740.461127018268
738193.82720700534991919994,1.01133755977999,-2.88255725891081,740.481321074325
738193.82720702840015292168,1.01403010058762,-2.8914041787073,740.553442703101
738193.82720705133397132158,1.01681880356695,-2.89746239552447,740.392082578987
738193.82720707438420504332,1.07153507926485,-2.86697898709524,740.563058920271
738193.82720709731802344322,1.11798140819646,-2.86178622982338,740.574021407845
738193.82720712036825716496,1.13769465339517,-2.86082460810637,740.580271949006
738193.82720714330207556486,1.15586930384667,-2.88015320461828,740.553154216586
738193.82720716635230928659,1.18241006323616,-2.86534423017632,740.580848922036
738193.82720718940254300833,1.18894909091184,-2.88342271845612,740.484590588163
738193.82720721233636140823,1.195007307729,-2.89332742214132,740.48382129079
738193.82720723538659512997,1.18375633363998,-2.88601909709204,740.471608694984
738193.82720725832041352987,1.16827422399611,-2.89467369254514,740.611524654809
738193.82720728137064725161,1.16981281874333,-2.87034466310477,740.625564331877
738193.82720730430446565151,1.1951996320724,-2.88024936678998,740.611909303495
738193.82720732735469937325,1.20548898444442,-2.88553828623354,740.599215896831
738193.82720735028851777315,1.24289606923613,-2.86861374401415,740.617582871626
738193.82720737333875149488,1.26693661216139,-2.8639017976008,740.598831248144
738193.82720739627256989479,1.26203234140464,-2.86092077027807,740.615755790363
738193.82720741932280361652,1.27924537013913,-2.86572887886312,740.325634518341
738193.82720744225662201643,1.28213023529016,-2.85784358078364,740.347078682631
738193.82720746530685573816,1.3046321834682,-2.87534509603323,740.535075728306
738193.82720748824067413807,1.31145969765898,-2.8641902841159,740.537768269114
738193.82720751129090785980,1.33607721361445,-2.86111309462147,740.53074843058
738193.82720753422472625971,1.35386721537914,-2.86784444664054,740.446702692513
738193.82720755727495998144,1.36319494603415,-2.86034379724786,740.629410818745
738193.82720758020877838135,1.3775231096176,-2.86149774330828,740.642392711925
738193.82720760325901210308,1.37425359577977,-2.85255466134008,740.63758460334
738193.82720762619283050299,1.38685084027261,-2.84274611982657,740.645373739247
738193.82720764924306422472,1.38790862416132,-2.85736276992513,740.657874821568
738193.82720767217688262463,1.37954251522333,-2.84091903856425,740.659124929801
738193.82720769522711634636,1.35963694568121,-2.8641902841159,740.644989090561
738193.82720771816093474627,1.3771384609308,-2.84745806623992,740.665952443991
738193.82720774121116846800,1.36906083850791,-2.84851585012863,740.669606606516
738193.82720776414498686790,1.36444505426626,-2.86784444664054,740.656528551165
738193.82720778719522058964,1.39915959825034,-2.85765125644023,740.650854983034
738193.82720781012903898954,1.43031614188148,-2.84803503927013,740.613159411728
738193.82720783317927271128,1.41560332961122,-2.86592120320652,740.474974370993
738193.82720785611309111118,1.39627473309931,-2.85572801300621,740.641238765864
738193.82720787916332483292,1.40916046410725,-2.85188152613817,740.622198655867
738193.82720790209714323282,1.41675727567163,-2.86149774330828,740.617198222939
738193.82720792514737695456,1.4132954374904,-2.86534423017632,740.342078249702
738193.82720794808119535446,1.40050586865416,-2.86101693244977,740.376311982828
738193.82720797113142907619,1.37877321784972,-2.85245849916838,740.562770433756
738193.82720799418166279793,1.3768499744157,-2.87015233876137,740.551423297495
738193.82720801711548119783,1.37665765007229,-2.85707428341003,740.553442703101
738193.82720804016571491957,1.36031008088312,-2.86476725714611,740.630949413492
738193.82720806309953331947,1.38040797476864,-2.85947833770255,740.635757522077
738193.82720808614976704121,1.39108197582745,-2.84601563366441,740.630468602634
738193.82720810908358544111,1.40310224729008,-2.84418855240209,740.577387083855
738193.82720813213381916285,1.40358305814859,-2.86745979795374,740.462954099531
738193.82720815506763756275,1.42598884415494,-2.86015147290446,740.646239198793
738193.82720817811787128448,1.42127689774158,-2.86544039234802,740.651912766923
738193.82720820105168968439,1.40290992294668,-2.84870817447203,740.646046874449
738193.82720822410192340612,1.39435148966529,-2.8638056354291,740.638257738541
738193.82720824703574180603,1.40608327461282,-2.84313076851337,740.651431956065
738193.82720827008597552776,1.42618116849834,-2.85063141790606,740.639123198087
738193.82720829301979392767,1.42868138496257,-2.84649644452291,740.657778659397
738193.82720831607002764940,1.42502722243792,-2.86188239199508,740.647104658338
738193.82720833900384604931,1.42387327637751,-2.85995914856106,740.652201253438
738193.82720836205407977104,1.42416176289262,-2.87390266345771,740.643546657985
738193.82720838498789817095,1.42858522279086,-2.85717044558173,740.649797199146
738193.82720840803813189268,1.43002765536638,-2.85957449987425,740.647008496166
738193.82720843097195029259,1.40762186936003,-2.85226617482497,740.236011374316
738193.82720845402218401432,1.40502549072411,-2.85207385048157,740.387466794745
738193.82720847695600241423,1.38771629981792,-2.85765125644023,740.548730756688
738193.82720850000623613596,1.3775231096176,-2.85159303962307,740.557770000828
738193.82720852294005453587,1.359059972651,-2.85313163437028,740.554788973505
738193.82720854599028825760,1.36011775653971,-2.86303633805549,740.642488874096
738193.82720856892410665751,1.36954164936642,-2.85707428341003,740.64720082051
738193.82720859197434037924,1.3592522969944,-2.87101779830668,740.638642387228
738193.82720861490815877914,1.36194483780203,-2.86861374401415,740.547672972799
738193.82720863795839250088,1.38040797476864,-2.86197855416678,740.526901943712
738193.82720866089221090078,1.3951207870389,-2.84293844416997,740.643738982329
738193.82720868394244462252,1.40944895062235,-2.84149601159446,740.628353034856
738193.82720870687626302242,1.40598711244112,-2.86861374401415,740.481224912154
738193.82720872992649674416,1.41916132996416,-2.85745893209683,740.475743668367
738193.82720875297673046589,1.39617857092761,-2.86265168936869,740.64210422541
738193.82720877591054886580,1.38867792153493,-2.85245849916838,740.497380156999
738193.82720879896078258753,1.40127516602776,-2.85995914856106,740.613447898243
738193.82720882189460098743,1.39492846269549,-2.84197682245296,740.661528984093
738193.82720884494483470917,1.39752484133142,-2.84072671422085,740.667875687425
738193.82720886787865310907,1.38521608335369,-2.84495784977569,740.590753625721
738193.82720889092888683081,1.40791035587514,-2.82514844240528,740.511612158411
738193.82720891386270523071,1.37588835269869,-2.85418941825899,740.608832114001
738193.82720893691293895245,1.34213543043162,-2.85832439164214,740.332269708189
738193.82720895984675735235,1.34925143113749,-2.85399709391559,740.400448687925
738193.82720898289699107409,1.36079089174162,-2.85274698568348,740.511131347553
738193.82720900583080947399,1.38406213729328,-2.84793887709843,740.577771732542
738193.82720902888104319572,1.38435062380838,-2.84168833593786,740.483148155588
738193.82720905181486159563,1.40089051734096,-2.84774655275502,740.675568661161
738193.82720907486509531736,1.40040970648245,-2.8638056354291,740.685184878332
738193.82720909779891371727,1.40550630158261,-2.85091990442116,740.5228631325
738193.82720912084914743900,1.42175770860009,-2.85736276992513,740.478820857861
738193.82720914378296583891,1.42012295168117,-2.8545740669458,740.684896391817
738193.82720916683319956064,1.41079522102617,-2.83947660598873,740.67268379601
738193.82720918976701796055,1.39185127320106,-2.83707255169621,740.640854117177
738193.82720921281725168228,1.37540754184018,-2.84390006588698,740.473435776246
738193.82720923575107008219,1.36050240522652,-2.84101520073595,740.631526386522
738193.82720925880130380392,1.33665418664466,-2.85928601335915,740.664894660103
738193.82720928173512220383,1.3403083491693,-2.84178449810956,740.637680765511
738193.82720930478535592556,1.34925143113749,-2.82062882033533,740.411026526812
738193.82720932771917432547,1.38194656951585,-2.83495698391878,740.643931306672
738193.82720935076940804720,1.39973657128055,-2.84341925502848,740.665183146618
738193.82720937370322644711,1.4133915996621,-2.8092816840746,740.669991255203
738193.82720939675346016884,1.41291078880359,-2.83726487603961,740.556327568252
738193.82720941968727856874,1.41896900562076,-2.83793801124152,740.687973581311
738193.82720944273751229048,1.41810354607545,-2.83091817270734,740.382274037473
738193.82720946567133069038,1.41675727567163,-2.85168920179477,740.406699229085
738193.82720948872156441212,1.40819884239024,-2.83409152437347,740.444010151705
738193.82720951165538281202,1.39137046234256,-2.85130455310796,740.624121899301
738193.82720953470561653376,1.38800478633302,-2.85159303962307,740.598350437286
738193.82720955775585025549,1.38223505603096,-2.84736190406822,740.680184445403
738193.82720958068966865540,1.37415743360807,-2.84803503927013,740.523632429874
738193.82720960373990237713,1.41416089703571,-2.84899666098714,740.658259470255
738193.82720962667372077703,1.37867705567802,-2.85197768830987,740.692397041209
738193.82720964972395449877,1.38319667774797,-2.83716871386791,740.684607905301
738193.82720967265777289867,1.39060116496895,-2.82639855063739,740.662971416669
738193.82720969570800662041,1.39415916532189,-2.85755509426853,740.528825187146
738193.82720971864182502031,1.39415916532189,-2.84466936326059,740.678357364141
738193.82720974169205874205,1.3496360798243,-2.8452463362908,740.656528551165
738193.82720976462587714195,1.34809748507708,-2.87236406871049,740.620467736777
738193.82720978767611086369,1.33867359225038,-2.85543952649111,740.657009362023
738193.82720981060992926359,1.35127083674322,-2.85515103997601,740.684800229645
738193.82720983366016298532,1.39012035411044,-2.85717044558173,740.615467303848
738193.82720985659398138523,1.40675640981472,-2.83976509250384,740.634699738189
738193.82720987964421510696,1.422430843802,-2.85534336431941,740.668260336112
738193.82720990257803350687,1.42618116849834,-2.84716957972482,740.665471633133
738193.82720992562826722860,1.42137305991328,-2.84890049881544,740.522189997298
738193.82720994856208562851,1.43483576395143,-2.85563185083451,740.519978267349
738193.82720997161231935024,1.40916046410725,-2.85803590512704,740.551423297495
738193.82720999454613775015,1.41310311314699,-2.83995741684724,740.536518160882
738193.82721001759637147188,1.41646878915653,-2.84139984942275,740.603447032386
738193.82721004053018987179,1.39685170612952,-2.84149601159446,740.661048173235
738193.82721006358042359352,1.40858349107704,-2.83505314609049,740.649797199146
738193.82721008651424199343,1.41781505956035,-2.83255292962626,740.659221091972
738193.82721010956447571516,1.41589181612632,-2.85130455310796,740.642392711925
738193.82721013249829411507,1.4232001411756,-2.84986212053245,740.589215030974
738193.82721015554852783680,1.41435322137911,-2.84649644452291,740.673645417727
738193.82721017848234623671,1.41781505956035,-2.84476552543229,740.613640222586
738193.82721020153257995844,1.42021911385287,-2.84159217376616,740.652393577782
738193.82721022446639835835,1.41117986971297,-2.83591860563579,740.649604874802
738193.82721024751663208008,1.37848473133461,-2.86476725714611,740.658067145912
738193.82721027045045047998,1.3585791617925,-2.85313163437028,740.644219793187
738193.82721029350068420172,1.35232862063193,-2.84726574189652,740.649124063944
738193.82721031655091792345,1.37617683921379,-2.84976595836075,740.639796333289
738193.82721033948473632336,1.41483403223761,-2.83543779477729,740.651528118236
738193.82721036253497004509,1.48320533631706,-2.8268793614959,740.648643253085
738193.82721038546878844500,1.48791728273041,-2.81293584659924,740.712110286408
738193.82721040851902216673,1.48464776889258,-2.83572628129239,740.709898556459
738193.82721043145284056664,1.46387673980515,-2.83014887533373,740.70316720444
738193.82721045450307428837,1.44166327814221,-2.83149514573755,740.385832037826
738193.82721047743689268827,1.45522214435206,-2.84024590336234,740.419681122265
738193.82721050048712641001,1.45464517132185,-2.83034119967713,740.496514697454
738193.82721052342094480991,1.4502217114236,-2.83938044381703,740.624218061473
738193.82721054647117853165,1.42973916885128,-2.84034206553404,740.529402160176
738193.82721056940499693155,1.43406646657782,-2.83062968619224,740.484013615133
738193.82721059245523065329,1.42791208758896,-2.83995741684724,740.588638057944
738193.82721061538904905319,1.42743127673045,-2.8366879030094,740.596138707336
738193.82721063843928277493,1.44224025117241,-2.83216828093945,740.712494935095
738193.82721066137310117483,1.42733511455875,-2.84245763331147,740.632199521724
738193.82721068442333489656,1.42723895238705,-2.836495578666,740.670183579546
738193.82721070735715329647,1.39906343607864,-2.84601563366441,740.669125795658
738193.82721073040738701820,1.40742954501663,-2.86438260845931,740.507861833715
738193.82721075334120541811,1.43531657480994,-2.84803503927013,740.533921782246
738193.82721077639143913984,1.41819970824715,-2.84034206553404,740.673549255556
738193.82721079932525753975,1.41435322137911,-2.85168920179477,740.682684661867
738193.82721082237549126148,1.42752743890215,-2.83341838917157,740.665663957476
738193.82721084530930966139,1.422430843802,-2.83976509250384,740.652489739953
738193.82721086835954338312,1.42608500632664,-2.84938130967394,740.659221091972
738193.82721089129336178303,1.43848992647607,-2.83928428164533,740.665183146618
738193.82721091434359550476,1.44522127849515,-2.80803157584249,740.664029200557
738193.82721093727741390467,1.45281809005953,-2.8361109299792,740.663259903184
738193.82721096032764762640,1.43377798006272,-2.85620882386472,740.35323306162
738193.82721098326146602631,1.4230078168322,-2.85572801300621,740.41544998671
738193.82721100631169974804,1.431758574457,-2.83486082174708,740.562289622898
738193.82721102924551814795,1.43695133172886,-2.84130368725105,740.608158978799
738193.82721105229575186968,1.44926008970659,-2.84418855240209,740.597869626427
738193.82721107522957026958,1.45281809005953,-2.83312990265646,740.698455258026
738193.82721109827980399132,1.43858608864777,-2.84111136290765,740.653162875155
738193.82721112133003771305,1.43550889915334,-2.84341925502848,740.648162442227
738193.82721114426385611296,1.42714279021535,-2.83409152437347,740.671818336465
738193.82721116731408983469,1.4133915996621,-2.84005357901894,740.658451794599
738193.82721119024790823460,1.41483403223761,-2.83966893033214,740.671722174293
738193.82721121329814195633,1.41310311314699,-2.84486168760399,740.533152484872
738193.82721123623196035624,1.43021997970978,-2.8457271471493,740.552000270526
738193.82721125928219407797,1.43945154819308,-2.82620622629399,740.688454392169
738193.82721128221601247787,1.43666284521375,-2.83409152437347,740.642969684955
738193.82721130526624619961,1.44752917061597,-2.84014974119064,740.643065847127
738193.82721132820006459951,1.46406906414855,-2.82822563189971,740.582002868096
738193.82721135125029832125,1.46310744243154,-2.83091817270734,740.665567795305
738193.82721137418411672115,1.46541533455237,-2.82572541543548,740.563058920271
738193.82721139723435044289,1.45445284697845,-2.81370514397285,740.611332330465
738193.82721142016816884279,1.44329803506113,-2.82947574013182,740.636238332936
738193.82721144321840256453,1.43897073733458,-2.83197595659605,740.669029633486
738193.82721146615222096443,1.44320187288942,-2.8456309849776,740.367753549546
738193.82721148920245468616,1.43993235905159,-2.82534076674868,740.441606097413
738193.82721151213627308607,1.43945154819308,-2.82178276639574,740.577483246026
738193.82721153518650680780,1.40598711244112,-2.83784184906982,740.619986925918
738193.82721155812032520771,1.39637089527101,-2.83851498427172,740.593734653044
738193.82721158117055892944,1.37300348754765,-2.84024590336234,740.676530282879
738193.82721160410437732935,1.37617683921379,-2.85813206729874,740.691723906007
738193.82721162715461105108,1.38117727214224,-2.85322779654198,740.683453959241
738193.82721165008842945099,1.39964040910885,-2.85274698568348,740.666914065708
738193.82721167313866317272,1.41021824799596,-2.8366879030094,740.668164173941
738193.82721169607248157263,1.38973570542364,-2.85130455310796,740.675760985505
738193.82721171912271529436,1.39069732714065,-2.84043822770574,740.662779092325
738193.82721174205653369427,1.41194916708658,-2.84841968795693,740.57940648946
738193.82721176510676741600,1.43483576395143,-2.83813033558492,740.698262933683
738193.82721178804058581591,1.46483836152216,-2.8456309849776,740.690473797775
738193.82721181109081953764,1.47628165995459,-2.85803590512704,740.691435419492
738193.82721183402463793755,1.46983879445062,-2.83986125467554,740.693358662926
738193.82721185707487165928,1.45599144172566,-2.83688022735281,740.697878284996
738193.82721188012510538101,1.42887370930597,-2.83947660598873,740.677011093737
738193.82721190305892378092,1.42377711420581,-2.84168833593786,740.678549688484
738193.82721192610915750265,1.41848819476225,-2.83736103821131,740.693262500754
738193.82721194904297590256,1.38829327284812,-2.85236233699667,740.680376769747
738193.82721197209320962429,1.37829240699121,-2.84216914679636,740.366311116971
738193.82721199502702802420,1.37348429840616,-2.83832265992832,740.477955398316
738193.82721201807726174593,1.36569516249837,-2.82851411841481,740.588253409257
738193.82721204101108014584,1.35973310785291,-2.82582157760718,740.506323238968
738193.82721206406131386757,1.37309964971936,-2.83861114644342,740.552961892243
738193.82721208699513226748,1.37646532572889,-2.84178449810956,740.648835577429
738193.82721211004536598921,1.38425446163668,-2.83284141614136,740.647104658338
738193.82721213297918438911,1.39185127320106,-2.8186094147296,740.652682064297
738193.82721215602941811085,1.40954511279406,-2.82774482104121,740.654893794246
738193.82721217896323651075,1.40733338284493,-2.81726314432579,740.641431090208
738193.82721220201347023249,1.41675727567163,-2.82014800947682,740.658740281114
738193.82721222494728863239,1.40608327461282,-2.827167848011,740.666817903537
738193.82721224799752235413,1.4044485176939,-2.81360898180115,740.65797098374
738193.82721227093134075403,1.41993062733777,-2.81649384695218,740.665952443991
738193.82721229398157447577,1.41675727567163,-2.79610746655156,740.670760552576
738193.82721231691539287567,1.41964214082267,-2.80543519720656,740.658067145912
738193.82721233996562659740,1.40771803153174,-2.8087047110444,740.671433687778
738193.82721236289944499731,1.41291078880359,-2.81187806271053,740.526998105883
738193.82721238594967871904,1.40589095026942,-2.84101520073595,740.686627310907
738193.82721240888349711895,1.41521868092442,-2.83716871386791,740.673356931212
738193.82721243193373084068,1.4412786294554,-2.83880347078683,740.659124929801
738193.82721245486754924059,1.4408939807686,-2.83312990265646,740.611428492637
738193.82721247791778296232,1.43464343960803,-2.83399536220177,740.349675061267
738193.82721250085160136223,1.41569949178292,-2.83389920003007,740.475455181852
738193.82721252390183508396,1.41685343784334,-2.83284141614136,740.597773464255
738193.82721254683565348387,1.4223346816303,-2.82822563189971,740.61104384395
738193.82721256988588720560,1.44781765713107,-2.82611006412229,740.611332330465
738193.82721259281970560551,1.44377884591963,-2.8367840651811,740.677876553282
738193.82721261586993932724,1.45214495485762,-2.82562925326378,740.623641088443
738193.82721263880375772715,1.47685863298479,-2.84091903856425,740.582291354611
738193.82721266185399144888,1.45983792859371,-2.85332395871369,740.726630774335
738193.82721268490422517061,1.45493365783695,-2.85159303962307,740.666914065708
738193.82721270783804357052,1.4588763068767,-2.83168747008095,740.702494069238
738193.82721273088827729225,1.4321432231438,-2.83572628129239,740.711244826863
738193.82721275382209569216,1.431758574457,-2.82678319932419,740.6839347701
738193.82721277687232941389,1.45320273874633,-2.81966719861832,740.668260336112
738193.82721279980614781380,1.44762533278767,-2.83082201053564,740.705763583076
738193.82721282285638153553,1.43752830475906,-2.8270716858393,740.703936501813
738193.82721284579019993544,1.43752830475906,-2.8268793614959,740.598927410316
738193.82721286884043365717,1.44522127849515,-2.83072584836394,740.55844313603
738193.82721289177425205708,1.45618376606907,-2.83813033558492,740.693839473785
738193.82721291482448577881,1.45637609041247,-2.83505314609049,740.526709619368
738193.82721293775830417871,1.44454814329324,-2.83861114644342,740.683742445756
738193.82721296080853790045,1.42820057410406,-2.83264909179796,740.546807513254
738193.82721298374235630035,1.45156798182742,-2.84966979618905,740.304382678395
738193.82721300679259002209,1.46724241581469,-2.85928601335915,740.389774686866
738193.82721302972640842199,1.49387933737588,-2.84409239023038,740.582579841127
738193.82721305277664214373,1.51791988030114,-2.82130195553723,740.581329732894
738193.82721307571046054363,1.50897679833295,-2.84659260669461,740.458722963976
738193.82721309876069426537,1.49887977030433,-2.84745806623992,740.659124929801
738193.82721312169451266527,1.49714885121372,-2.84966979618905,740.666625579193
738193.82721314474474638700,1.46810787536,-2.85140071527966,740.56017405512
738193.82721316767856478691,1.46637695626938,-2.83841882210002,740.541614755982
738193.82721319072879850864,1.46685776712788,-2.84649644452291,740.669991255203
738193.82721321366261690855,1.46656928061278,-2.83986125467554,740.603831681073
738193.82721323671285063028,1.46599230758257,-2.84409239023038,740.511227509724
738193.82721325964666903019,1.45397203611994,-2.83255292962626,740.689512176058
738193.82721328269690275192,1.47185820005634,-2.84390006588698,740.49401448099
738193.82721330563072115183,1.50859214964614,-2.81620536043708,740.779039157912
738193.82721332868095487356,1.53936404459048,-2.82216741508254,740.7495173712
738193.82721335161477327347,1.57580950766518,-2.81293584659924,740.701917096208
738193.82721337466500699520,1.59686902326771,-2.83976509250384,740.842410029063
738193.82721339759882539511,1.5964843745809,-2.82870644275822,740.697493636309
738193.82721342064905911684,1.59686902326771,-2.85351628305709,740.825197000328
738193.82721344369929283857,1.56176983059682,-2.87467196083132,740.803945160382
738193.82721346663311123848,1.47647398429799,-2.91198288345133,740.735862342818
738193.82721348968334496021,1.44714452192917,-2.92227223582334,740.314575868596
738193.82721351261716336012,1.35829067527739,-2.91977201935911,740.400256363581
738193.82721353566739708185,1.18048681980214,-2.92996520955943,740.348521115206
738193.82721355860121548176,1.04941777977361,-2.92534942531778,740.451126152411
738193.82721358165144920349,0.879691546721245,-2.91563704597597,740.331500410815
738193.82721360458526760340,0.669096390695936,-2.91380996471365,740.099845739187
738193.82721362763550132513,0.461386099821659,-2.91736796506659,740.119366660043
738193.82721365056931972504,0.291082893739092,-2.94881299521283,739.953871562545
738193.82721367361955344677,0.124818498867969,-2.99775954060867,739.763278138234
738193.82721369655337184668,-0.0324066518632553,-3.04526365342899,739.62682401659
738193.82721371960360556841,-0.102605037205025,-3.08555560337173,739.561722226348
738193.82721374253742396832,-0.0588512490810453,-3.05295662716507,739.614803745127
738193.82721376558765769005,0.0470233019618156,-3.01641500191867,739.677212994561
738193.82721378852147608995,0.167418340931536,-2.97852710626846,739.731448459401
738193.82721381157170981169,0.369743550190554,-2.95285180642428,739.918003072501
738193.82721383450552821159,0.593897572425712,-2.96294883445289,739.909059990532
738193.82721385755576193333,0.86007446369423,-2.97996953884397,740.048591301671
738193.82721388048958033323,1.07288134966866,-2.99352840505382,740.092825900653
738193.82721390353981405497,1.23539541984345,-2.96852624041155,740.038782760157
738193.82721392647363245487,1.31011342725516,-2.93275391253876,740.208701317553
738193.82721394952386617661,1.39329370577658,-2.88496131320333,740.418142527518
738193.82721397245768457651,1.52013161025027,-2.84899666098714,740.366503441314
738193.82721399550791829824,1.49955290550624,-2.85245849916838,740.531806214468
738193.82721401844173669815,1.46224198288623,-2.85024676921925,740.56411670416
738193.82721404149197041988,1.42637349284174,-2.85207385048157,740.545653567193
738193.82721406442578881979,1.43060462839659,-2.84697725538142,740.530556106236
738193.82721408747602254152,1.42993149319468,-2.85534336431941,740.680665256262
738193.82721411040984094143,1.42627733067004,-2.84803503927013,740.536229674367
738193.82721413346007466316,1.44772149495937,-2.83284141614136,740.654412983387
738193.82721415639389306307,1.44406733243473,-2.84803503927013,740.644219793187
738193.82721417944412678480,1.45252960354443,-2.82966806447523,740.556519892596
738193.82721420237794518471,1.42973916885128,-2.8452463362908,740.672395309495
738193.82721422542817890644,1.40214062557307,-2.8634209867423,740.677395742424
738193.82721424847841262817,1.37886938002142,-2.87053698744817,740.686723473079
738193.82721427141223102808,1.36983013588152,-2.84899666098714,740.696243528077
738193.82721429446246474981,1.36607981118518,-2.8729410417407,740.544980431991
738193.82721431739628314972,1.41108370754127,-2.86601736537822,740.586810976681
738193.82721434044651687145,1.44368268374793,-2.86024763507616,740.650566496519
738193.82721436338033527136,1.47830106556031,-2.83447617306028,740.60200459981
738193.82721438643056899309,1.45118333314061,-2.86505574366121,740.668356498284
738193.82721440936438739300,1.43425879092123,-2.86188239199508,740.685184878332
738193.82721443241462111473,1.43502808829483,-2.87467196083132,740.627872223998
738193.82721445534843951464,1.40666024764302,-2.86688282492353,740.650085685661
738193.82721447839867323637,1.41166068057148,-2.87755682598235,740.622583304554
738193.82721450133249163628,1.40271759860328,-2.85543952649111,740.395159768481
738193.82721452438272535801,1.39925576042204,-2.84159217376616,740.376215820656
738193.82721454731654375792,1.39733251698802,-2.85120839093626,740.618640655514
738193.82721457036677747965,1.38935105673683,-2.86265168936869,740.616236601222
738193.82721459330059587955,1.39675554395781,-2.85688195906662,740.605274113648
738193.82721461635082960129,1.37954251522333,-2.86505574366121,740.683742445756
738193.82721463928464800119,1.36223332431714,-2.8550548778043,740.523728592046
738193.82721466233488172293,1.36713759507389,-2.85332395871369,740.542576377699
738193.82721468526870012283,1.37636916355719,-2.84659260669461,740.609505249203
738193.82721470831893384457,1.37906170436482,-2.85063141790606,740.661144335406
738193.82721473125275224447,1.39656321961441,-2.84870817447203,740.657682497225
738193.82721475430298596621,1.38011948825353,-2.84005357901894,740.656720875508
738193.82721477723680436611,1.37271500103255,-2.85793974295534,740.654509145559
738193.82721480028703808784,1.36367575689265,-2.8636133110857,740.633449629956
738193.82721482322085648775,1.33453861886723,-2.86274785154039,740.618736817686
738193.82721484627109020948,1.32915353725197,-2.86140158113657,740.606331897537
738193.82721486920490860939,1.31972964442527,-2.85515103997601,740.603158545871
738193.82721489225514233112,1.34001986265419,-2.86774828446884,740.620275412433
738193.82721491518896073103,1.35069386371301,-2.85063141790606,740.612967087384
738193.82721493823919445276,1.37175337931554,-2.86169006765168,740.627199088796
738193.82721496117301285267,1.38973570542364,-2.83716871386791,740.557866162999
738193.82721498422324657440,1.3772346231025,-2.83889963295853,740.610082222233
738193.82721500727348029613,1.35175164760172,-2.86794060881225,740.27187986436
738193.82721503020729869604,1.35348256669234,-2.8547663912892,740.441606097413
738193.82721505325753241777,1.35329024234894,-2.86524806800462,740.573059786128
738193.82721507619135081768,1.37108024411363,-2.8730372039124,740.567867028856
738193.82721509924158453941,1.37136873062874,-2.86659433840843,740.55902010906
738193.82721512217540293932,1.34665505250157,-2.85755509426853,740.613928709101
738193.82721514522563666105,1.32588402341414,-2.85572801300621,740.627776061826
738193.82721516815945506096,1.32790342901986,-2.8633248245706,740.627487575311
738193.82721519120968878269,1.31395991412321,-2.86140158113657,740.626045142736
738193.82721521414350718260,1.29145796594516,-2.86005531073276,740.629795467432
738193.82721523719374090433,1.29790083144913,-2.86101693244977,740.632488008239
738193.82721526012755930424,1.28876542513753,-2.87419114997281,740.616332763394
738193.82721528317779302597,1.28482277609779,-2.85515103997601,740.612486276526
738193.82721530611161142588,1.28751531690542,-2.86870990618585,740.614313357788
738193.82721532916184514761,1.29665072321702,-2.84082287639255,740.494206805333
738193.82721535209566354752,1.29174645246026,-2.8726525552256,740.640854117177
738193.82721537514589726925,1.28318801917887,-2.86236320285358,740.657297848538
738193.82721539807971566916,1.25568563807237,-2.86957536573116,740.676145634192
738193.82721542112994939089,1.2588589897385,-2.87784531249745,740.65739401071
738193.82721544406376779079,1.24520396135695,-2.87822996118426,740.688839040856
738193.82721546711400151253,1.22731779742056,-2.87524893386153,740.67604947202
738193.82721549004781991243,1.2129896338371,-2.89553915209045,740.55334654093
738193.82721551309805363417,1.2040465518689,-2.87784531249745,740.333135167734
738193.82721553603187203407,1.22260585100721,-2.85592033734961,740.453914855391
738193.82721555908210575581,1.21452822858432,-2.86265168936869,740.57709859734
738193.82721558201592415571,1.20096936237447,-2.86524806800462,740.493725994475
738193.82721560506615787745,1.21491287727112,-2.88073017764849,740.466415937712
738193.82721562799997627735,1.20577747095952,-2.86092077027807,740.614024871273
738193.82721565105020999908,1.20529666010102,-2.86870990618585,740.646143036621
738193.82721567398402839899,1.17952519808513,-2.87015233876137,740.664317687073
738193.82721569703426212072,1.17250535955096,-2.88303806976931,740.663452227527
738193.82721571996808052063,1.1490417896559,-2.87159477133689,740.663548389699
738193.82721574301831424236,1.12740530102316,-2.86476725714611,740.659413416316
738193.82721576595213264227,1.13644454516306,-2.8727487173973,740.661048173235
738193.82721578900236636400,1.12125092203429,-2.87390266345771,740.643065847127
738193.82721581205260008574,1.08028583688964,-2.86822909532735,740.614890330818
738193.82721583498641848564,1.06124572689284,-2.87726833946725,740.61556346602
738193.82721585803665220737,1.0492254554302,-2.88024936678998,740.626045142736
738193.82721588097047060728,1.05028323931892,-2.88880780007137,740.444394800392
738193.82721590402070432901,1.03624356225056,-2.88294190759761,740.622679466726
738193.82721592695452272892,1.03383950795804,-2.89198115173751,740.61498649299
738193.82721595000475645065,1.04076318432051,-2.89525066557535,740.606812708395
738193.82721597293857485056,1.04682140113768,-2.89727007118107,740.598350437286
738193.82721599598880857229,1.0308584806353,-2.88976942178839,740.510458212351
738193.82721601892262697220,1.03210858886742,-2.8910195300205,740.315537490313
738193.82721604197286069393,1.04566745507727,-2.88649990795055,740.333904465108
738193.82721606490667909384,1.04835999588489,-2.88380736714292,740.502188265585
738193.82721608795691281557,1.05230264492464,-2.88986558396009,740.504496157705
738193.82721611089073121548,1.04393653598665,-2.88851931355627,740.481513398669
738193.82721613394096493721,1.04672523896598,-2.87351801477091,740.559116271232
738193.82721615687478333712,1.00181750478158,-2.91669482986468,740.591619085267
738193.82721617992501705885,0.99229744978318,-2.91304066734004,740.374869550252
738193.82721620285883545876,0.986046908622612,-2.88698071880905,740.5680593532
738193.82721622590906918049,0.966045176908792,-2.91207904562303,740.561616487696
738193.82721624884288758039,0.955948148880182,-2.90217434193782,740.577387083855
738193.82721627189312130213,0.968641555544721,-2.91092509956262,740.584695408904
738193.82721629482693970203,0.98046950266395,-2.8910195300205,740.58161821941
738193.82721631787717342377,1.01749193876886,-2.90400142320014,740.584791571076
738193.82721634081099182367,1.04797534719809,-2.9003472606755,740.587580274055
738193.82721636386122554541,1.04999475280381,-2.90544385577566,740.579598813804
738193.82721638679504394531,1.04278258992623,-2.91275218082494,740.588638057944
738193.82721640984527766705,1.03114696715041,-2.90544385577566,740.579310327289
738193.82721643277909606695,1.03191626452401,-2.93217693950855,740.567867028856
738193.82721645582932978868,1.02931988588809,-2.92304153319695,740.582483678955
738193.82721647876314818859,1.05480286138887,-2.93506180465958,740.359772089295
738193.82721650181338191032,1.04970626628871,-2.92131061410633,740.586810976681
738193.82721652474720031023,1.05576448310588,-2.92525326314607,740.283900135823
738193.82721654779743403196,1.04489815770366,-2.9187142354704,740.321211058443
738193.82721657084766775370,1.03220475103912,-2.92852277698391,740.504496157705
738193.82721659378148615360,1.04691756330938,-2.93342704774066,740.509208104119
738193.82721661683171987534,1.07672783653671,-2.92246456016674,740.515362483108
738193.82721663976553827524,1.12836692274017,-2.92496477663097,740.584887733247
738193.82721666281577199697,1.16933200788482,-2.92833045264051,740.589599679661
738193.82721668574959039688,1.18846828005333,-2.91429077557215,740.607774330112
738193.82721670879982411861,1.18481411752869,-2.92563791183288,740.600754491578
738193.82721673173364251852,1.19269941560818,-2.91275218082494,740.609697573546
738193.82721675478387624025,1.20020006500086,-2.90717477486628,740.524401727247
738193.82721677771769464016,1.24279990706443,-2.9187142354704,740.45670355837
738193.82721680076792836189,1.26385942266696,-2.91217520779473,740.404872147823
738193.82721682370174676180,1.27761061322021,-2.92515710097437,740.634122765158
738193.82721684675198048353,1.29742002059063,-2.92967672304432,740.633930440815
738193.82721686968579888344,1.31434456281001,-2.92419547925736,740.6438351445
738193.82721689273603260517,1.33069213199919,-2.91198288345133,740.657105524195
738193.82721691566985100508,1.30020872356996,-2.91534855946087,740.643738982329
738193.82721693872008472681,1.304055210438,-2.91275218082494,740.640565630662
738193.82721696165390312672,1.32953818593878,-2.91467542425896,740.636334495107
738193.82721698470413684845,1.35569429664146,-2.91794493809679,740.625948980564
738193.82721700763795524836,1.37338813623446,-2.91380996471365,740.626910602281
738193.82721703068818897009,1.36963781153812,-2.92179142496484,740.305825110971
738193.82721705362200737000,1.36031008088312,-2.92352234405546,740.347174844802
738193.82721707667224109173,1.36319494603415,-2.90544385577566,740.516324104825
738193.82721709960605949163,1.34261624129012,-2.91506007294576,740.523055456844
738193.82721712265629321337,1.35617510749997,-2.9182334246119,740.569982596634
738193.82721714559011161327,1.38310051557627,-2.90102039587741,740.640373306319
738193.82721716864034533501,1.3862738672424,-2.89467369254514,740.685858013534
738193.82721719157416373491,1.38223505603096,-2.90188585542272,740.649124063944
738193.82721721462439745665,1.39329370577658,-2.90246282845292,740.643354333642
738193.82721723755821585655,1.37906170436482,-2.89842401724148,740.628064548341
738193.82721726060844957829,1.34155845740141,-2.90188585542272,740.629603143088
738193.82721728354226797819,1.32136440134419,-2.91534855946087,740.642585036268
738193.82721730659250169992,1.31117121114388,-2.92477245228757,740.655759253791
738193.82721732952632009983,1.29270807417727,-2.92073364107612,740.668164173941
738193.82721735257655382156,1.27328331549366,-2.91361764037025,740.664702335759
738193.82721737562678754330,1.32405694215182,-2.92679185789329,740.577964056885
738193.82721739856060594320,1.34319321432033,-2.92419547925736,740.69076228429
738193.82721742161083966494,1.34588575512796,-2.94121618364845,740.635565197734
738193.82721744454465806484,1.32867272639347,-2.92631104703479,740.707494502166
738193.82721746759489178658,1.34348170083543,-2.91217520779473,740.692974014239
738193.82721749052871018648,1.33328851063512,-2.90880953178519,740.686819635251
738193.82721751357894390821,1.34665505250157,-2.91582937031937,740.517478050885
738193.82721753651276230812,1.39358219229168,-2.88832698921287,740.344289979651
738193.82721755956299602985,1.40916046410725,-2.90361677451334,740.379004523635
738193.82721758249681442976,1.42695046587195,-2.9097711535022,740.512285293613
738193.82721760554704815149,1.41637262698483,-2.92044515456102,740.554596649162
738193.82721762848086655140,1.43772062910246,-2.91284834299664,740.440355989181
738193.82721765153110027313,1.44252873768752,-2.91361764037025,740.634411251673
738193.82721767446491867304,1.39252440840297,-2.92352234405546,740.639507846774
738193.82721769751515239477,1.40040970648245,-2.91611785683447,740.618736817686
738193.82721772044897079468,1.37281116320425,-2.93352320991236,740.654124496872
738193.82721774349920451641,1.35790602659059,-2.93900445369932,740.660663524548
738193.82721776643302291632,1.34242391694672,-2.93342704774066,740.644315955359
738193.82721778948325663805,1.36656062204368,-2.92179142496484,740.652201253438
738193.82721781241707503796,1.4044485176939,-2.90746326138138,740.524690213763
738193.82721783546730875969,1.40531397723921,-2.89246196259601,740.646431523136
738193.82721785840112715960,1.41464170789421,-2.86986385224627,740.614698006475
738193.82721788145136088133,1.4864748501549,-2.863517148914,740.607870492284
738193.82721790438517928123,1.51013074439336,-2.87592206906343,740.649508712631
738193.82721792743541300297,1.48378230934727,-2.89505834123194,740.49516842705
738193.82721795036923140287,1.45849165818989,-2.93429250728597,740.646720009651
738193.82721797341946512461,1.42810441193236,-2.99391305374063,740.612101627839
738193.82721799635328352451,1.35530964795466,-3.01247235287893,740.463146423874
738193.82721801940351724625,1.29597758801511,-3.00314462222393,740.625275845362
738193.82721804233733564615,1.29905477750954,-3.00689494692027,740.301209326729
738193.82721806538756936789,1.33953905179569,-2.94910148172794,740.317749220262
738193.82721808832138776779,1.37858089350632,-2.93217693950855,740.565174488049
738193.82721811137162148952,1.43291252051741,-2.93765818329551,740.560558703807
738193.82721813442185521126,1.42445024940772,-2.91957969501571,740.539114539518
738193.82721815735567361116,1.35348256669234,-2.95131321167706,740.557193027798
738193.82721818040590733290,1.33280769977661,-2.9276573174386,740.6438351445
738193.82721820333972573280,1.37204186583064,-2.91736796506659,740.637007630309
738193.82721822638995945454,1.39185127320106,-2.93871596718422,740.642777360611
738193.82721824932377785444,1.39040884062555,-2.96602602394732,740.656336226821
738193.82721827237401157618,1.41435322137911,-2.97141110556258,740.666817903537
738193.82721829530782997608,1.43387414223442,-3.03795532837971,740.668741146971
738193.82721831835806369781,1.42377711420581,-3.07988203524137,740.648643253085
738193.82721834129188209772,1.39175511102936,-3.03295489545126,740.655278442933
738193.82721836434211581945,1.34761667421858,-2.93736969678041,740.631045575664
738193.82721838727593421936,1.3312691050294,-2.83014887533373,740.655566929448
738193.82721841032616794109,1.34607807947136,-2.76648951766763,740.675760985505
738193.82721843325998634100,1.36906083850791,-2.75831573307304,740.681242229292
738193.82721845631022006273,1.35675208053018,-2.80562752154996,740.579694975976
738193.82721847924403846264,1.3226145095763,-2.83187979442435,740.678453526313
738193.82721850229427218437,1.25520482721386,-2.85361244522879,740.687011959594
738193.82721852522809058428,1.23193358166221,-2.84601563366441,740.682588499696
738193.82721854827832430601,1.22952952736968,-2.8640941219442,740.682300013181
738193.82721857121214270592,1.19731519984983,-2.84938130967394,740.569886434462
738193.82721859426237642765,1.25578180024407,-2.85524720214771,740.469973938065
738193.82721861719619482756,1.31424840063831,-2.85207385048157,740.687300446109
738193.82721864024642854929,1.43531657480994,-2.85399709391559,740.553731189616
738193.82721866318024694920,1.51936231287666,-2.85995914856106,740.673068444697
738193.82721868623048067093,1.55109582953801,-2.87967239375977,740.672779958182
738193.82721870916429907084,1.54763399135677,-2.87572974472003,740.387274470402
738193.82721873221453279257,1.49089831005315,-2.87178709568029,740.662298281467
738193.82721875514835119247,1.47541620040928,-2.87419114997281,740.582002868096
738193.82721877819858491421,1.44839463016128,-2.8641902841159,740.645181414904
738193.82721880113240331411,1.41541100526782,-2.87101779830668,740.515650969623
738193.82721882418263703585,1.33838510573527,-2.87371033911431,740.626045142736
738193.82721884711645543575,1.24366536660974,-2.88044169113338,740.495264589222
738193.82721887016668915749,1.18923757742694,-2.92082980324783,740.632199521724
738193.82721889310050755739,1.23193358166221,-2.92265688451015,740.474012749276
738193.82721891615074127913,1.26703277433309,-2.90207817976612,740.656047740306
738193.82721893920097500086,1.36732991941729,-2.92698418223669,740.65172044258
738193.82721896213479340076,1.48070511985284,-2.92227223582334,740.673933904243
738193.82721898518502712250,1.55542312726455,-2.93813899415402,740.654701469902
738193.82721900811884552240,1.5135925825746,-2.97871943061186,740.532287025327
738193.82721903116907924414,1.48849425576062,-2.98458532308562,740.562770433756
738193.82721905410289764404,1.47176203788464,-2.97468061940042,740.205624128059
738193.82721907715313136578,1.46955030793551,-2.9454473192033,740.525555673308
738193.82721910008694976568,1.44541360283855,-2.90390526102844,740.592292220468
738193.82721912313718348742,1.40906430193555,-2.88928861092988,740.584503084561
738193.82721914607100188732,1.37040710891173,-2.86101693244977,740.575560002592
738193.82721916912123560905,1.32799959119156,-2.83803417341322,740.570463407492
738193.82721919205505400896,1.28020699185614,-2.8637094732574,740.658451794599
738193.82721921510528773069,1.27799526190701,-2.88486515103163,740.690473797775
738193.82721923803910613060,1.27597585630129,-2.93313856122556,740.61671741208
738193.82721926108933985233,1.31742175230444,-2.94669742743541,740.545365080678
738193.82721928402315825224,1.36415656775116,-2.95400575248469,740.666240930507
738193.82721930707339197397,1.37646532572889,-2.96631451046242,740.648162442227
738193.82721933000721037388,1.33530791624084,-2.95910234758485,740.504111509019
738193.82721935305744409561,1.32453775301032,-2.9181372624402,740.393525011562
738193.82721937599126249552,1.3129982924062,-2.89553915209045,740.632295683896
738193.82721939904149621725,1.3407891600278,-2.88361504279952,740.628930007887
738193.82721942197531461716,1.40579478809771,-2.87582590689173,740.626910602281
738193.82721944502554833889,1.46272279374474,-2.86870990618585,740.456222747511
738193.82721946795936673880,1.45426052263505,-2.87197942002369,740.621140871979
738193.82721949100960046053,1.41646878915653,-2.86438260845931,740.650951145206
738193.82721951394341886044,1.38281202906116,-2.86996001441797,740.649316388287
738193.82721953699365258217,1.34213543043162,-2.88649990795055,740.575752326936
738193.82721955992747098207,1.37502289315338,-2.89871250375658,740.339193384551
738193.82721958297770470381,1.39435148966529,-2.89957796330189,740.29899759678
738193.82721960591152310371,1.47156971354124,-2.89611612512065,740.580079624662
738193.82721962896175682545,1.50368787888939,-2.89563531426215,740.560077892949
738193.82721965189557522535,1.46349209111835,-2.89534682774705,740.569117137088
738193.82721967494580894709,1.41598797829803,-2.89678926032256,740.625083521018
738193.82721969799604266882,1.37781159613271,-2.90996347784561,740.505842428109
738193.82721972092986106873,1.34232775477502,-2.90371293668504,740.661240497578
738193.82721974398009479046,1.30472834563991,-2.88332655628441,740.664413849244
738193.82721976691391319036,1.28453428958268,-2.86005531073276,740.641431090208
738193.82721978996414691210,1.29915093968124,-2.85515103997601,740.607774330112
738193.82721981289796531200,1.34473180906754,-2.86717131143864,740.592003733953
738193.82721983594819903374,1.4131992753187,-2.85842055381384,740.583445300672
738193.82721985888201743364,1.42964300667958,-2.89400055734323,740.619409952888
738193.82721988193225115538,1.39896727390694,-2.9186180732987,740.563443568958
738193.82721990486606955528,1.40262143643158,-2.91977201935911,740.603447032386
738193.82721992791630327702,1.39444765183699,-2.91063661304751,740.594503950418
738193.82721995085012167692,1.36156018911523,-2.91092509956262,740.548442270173
738193.82721997390035539865,1.39300521926147,-2.90227050410952,740.577194759511
738193.82721999683417379856,1.30626694038712,-2.88063401547678,740.60537027582
738193.82722001988440752029,1.20318109232359,-2.88467282668823,740.619313790716
738193.82722004281822592020,1.18048681980214,-2.88419201582972,740.605754924507
738193.82722006586845964193,1.17337081909627,-2.87717217729555,740.317268409403
738193.82722008880227804184,1.25549331372897,-2.89294277345452,740.37246549596
738193.82722011185251176357,1.42146922208499,-2.95746759066593,740.542191729012
738193.82722013478633016348,1.58609886003719,-2.96900705127005,740.523343943359
738193.82722015783656388521,1.57927134584642,-2.97920024147037,740.534402593104
738193.82722018077038228512,1.5139772312614,-2.97929640364207,740.610370708748
738193.82722020382061600685,1.45714538778608,-2.97006483515877,740.608639789658
738193.82722022675443440676,1.43772062910246,-2.93429250728597,740.610851519607
738193.82722024980466812849,1.4320470609721,-2.85332395871369,740.566424596281
738193.82722027273848652840,1.43291252051741,-2.83062968619224,740.483628966446
738193.82722029578872025013,1.43781679127417,-2.86620968972163,740.621717845009
738193.82722031872253865004,1.44762533278767,-2.87053698744817,740.61498649299
738193.82722034177277237177,1.44599057586875,-2.89409671951493,740.631718710866
738193.82722036470659077168,1.41512251875272,-2.90525153143225,740.678357364141
738193.82722038775682449341,1.41060289668277,-2.88140331285039,740.667779525254
738193.82722041069064289331,1.40944895062235,-2.87572974472003,740.69018531126
738193.82722043374087661505,1.38358132643477,-2.89611612512065,740.703359528783
738193.82722045667469501495,1.33819278139187,-2.91217520779473,740.690089149088
738193.82722047972492873669,1.31444072498171,-2.93496564248788,740.696243528077
738193.82722050277516245842,1.30520915649841,-3.019203704898,740.689896824745
738193.82722052570898085833,1.29136180377346,-3.06276516867858,740.70316720444
738193.82722054875921458006,1.27107158554454,-3.07084279110147,740.666240930507
738193.82722057169303297997,1.25539715155726,-3.00804889298068,740.220048453814
738193.82722059474326670170,1.25030055645711,-2.8907310435054,740.456318909683
738193.82722061767708510160,1.2586666653951,-2.80524287286316,740.622390980211
738193.82722064072731882334,1.27520655892768,-2.79418422311754,740.603254708042
738193.82722066366113722324,1.32174905003099,-2.84245763331147,740.608158978799
738193.82722068671137094498,1.39781332784653,-2.8820764480523,740.694512608987
738193.82722070964518934488,1.47570468692438,-2.94006223758804,740.687396608281
738193.82722073269542306662,1.47522387606588,-2.91986818153082,740.675280174646
738193.82722075562924146652,1.47685863298479,-2.89246196259601,740.703071042268
738193.82722077867947518826,1.45676073909927,-2.85284314785518,740.726246125648
738193.82722080161329358816,1.43598971001185,-2.8276486588695,740.729130990799
738193.82722082466352730989,1.45464517132185,-2.84716957972482,740.727688558223
738193.82722084759734570980,1.43348949354762,-2.8544779047741,740.660855848891
738193.82722087064757943153,1.41127603188467,-2.87380650128601,740.536806647397
738193.82722089358139783144,1.42685430370024,-2.83168747008095,740.660086551518
738193.82722091663163155317,1.39069732714065,-2.82168660422404,740.694224122471
738193.82722093956544995308,1.37983100173843,-2.81322433311435,740.693647149441
738193.82722096261568367481,1.3592522969944,-2.84188066028126,740.678165039797
738193.82722098554950207472,1.36473354078136,-2.84841968795693,740.649412550459
738193.82722100859973579645,1.39137046234256,-2.86726747361034,740.654220659044
738193.82722103153355419636,1.42348862769071,-2.86553655451972,740.650085685661
738193.82722105458378791809,1.45791468515969,-2.82543692892038,740.602485410669
738193.82722107751760631800,1.46445371283536,-2.84053438987745,740.310056246526
738193.82722110056784003973,1.45522214435206,-2.9001549363321,740.393717335906
738193.82722112350165843964,1.4408939807686,-2.9641027805133,740.54430729679
738193.82722114655189216137,1.40367922032029,-3.06180354696157,740.548634594516
738193.82722116948571056128,1.38838943501982,-3.09459484751163,740.425643176911
738193.82722119253594428301,1.36463737860966,-3.05920716832564,740.600562167235
738193.82722121546976268291,1.34636656598646,-2.94852450869773,740.675568661161
738193.82722123851999640465,1.33982753831079,-2.87755682598235,740.629891629604
738193.82722126157023012638,1.31030575159857,-2.79370341225903,740.625275845362
738193.82722128450404852629,1.2679943960501,-2.83216828093945,740.504592319877
738193.82722130755428224802,1.30126650745867,-2.91688715420808,740.649508712631
738193.82722133048810064793,1.34530878209775,-2.98025802535908,740.643642820157
738193.82722135353833436966,1.40617943678452,-2.99612478368975,740.645181414904
738193.82722137647215276957,1.43935538602138,-3.00141370313331,740.545076594163
738193.82722139952238649130,1.45801084733139,-2.98025802535908,740.637776927683
738193.82722142245620489120,1.46541533455237,-2.91929120850061,740.654893794246
738193.82722144550643861294,1.38810094850472,-2.92486861445927,740.568540164058
738193.82722146844025701284,1.37569602835528,-2.87447963648792,740.63758460334
738193.82722149149049073458,1.35617510749997,-2.9097711535022,740.641623414551
738193.82722151442430913448,1.34665505250157,-2.95650596894892,740.634026602987
738193.82722153747454285622,1.31972964442527,-2.94679358960711,740.625083521018
738193.82722156040836125612,1.31434456281001,-2.97448829505701,740.447375827715
738193.82722158345859497786,1.31444072498171,-2.96583369960392,740.294189488195
738193.82722160639241337776,1.32088359048568,-2.99968278404269,740.449106746806
738193.82722162944264709949,1.33511559189744,-2.99035505338769,740.5731559483
738193.82722165237646549940,1.37925402870822,-2.94804369783922,740.557481514313
738193.82722167542669922113,1.41531484309612,-2.83101433487904,740.370638414698
738193.82722169836051762104,1.42723895238705,-2.76485476074872,740.649797199146
738193.82722172141075134277,1.42743127673045,-2.77466330226222,740.652393577782
738193.82722174434456974268,1.44637522455556,-2.80380044028764,740.599696707689
738193.82722176739480346441,1.45531830652376,-2.84082287639255,740.440644475696
738193.82722179032862186432,1.41300695097529,-2.85370860740049,740.660663524548
738193.82722181337885558605,1.39204359754446,-2.86870990618585,740.632295683896
738193.82722183631267398596,1.37579219052698,-2.89303893562622,740.49401448099
738193.82722185936290770769,1.34492413341095,-2.87890309638617,740.646527685308
738193.82722188229672610760,1.30790169730604,-2.87726833946725,740.600081356376
738193.82722190534695982933,1.29559293932831,-2.87217174436709,740.554596649162
738193.82722192828077822924,1.28549591129969,-2.84120752507935,740.577194759511
738193.82722195133101195097,1.30857483250795,-2.88284574542591,740.478820857861
738193.82722197426483035088,1.31549850887042,-2.94987077910154,740.648162442227
738193.82722199731506407261,1.3407891600278,-3.01776127232249,740.416603932771
738193.82722202036529779434,1.3588676483076,-3.03949392312693,740.62796838617
738193.82722204329911619425,1.36252181083224,-3.05814938443693,740.626814440109
738193.82722206634934991598,1.36511818946817,-3.01189537984872,740.551423297495
738193.82722208928316831589,1.37348429840616,-2.94131234582015,740.162447312965
738193.82722211233340203762,1.39156278668596,-2.84418855240209,740.328711707836
738193.82722213526722043753,1.35405953972255,-2.81899406341641,740.550750162294
738193.82722215831745415926,1.34117380871461,-2.86188239199508,740.458145990945
738193.82722218125127255917,1.31847953619316,-2.91775261375339,740.55334654093
738193.82722220430150628090,1.28789996559222,-2.95352494162618,740.508246482402
738193.82722222723532468081,1.25664725978938,-2.97948872798547,740.546711351082
738193.82722225028555840254,1.22789477045076,-2.95814072586783,740.663452227527
738193.82722227321937680244,1.25328158377984,-2.9819889444497,740.613159411728
738193.82722229626961052418,1.29655456104532,-3.00179835182011,740.670664390405
738193.82722231920342892408,1.33761580836167,-2.9916051616198,740.544211134618
738193.82722234225366264582,1.36194483780203,-2.93063834476133,740.694512608987
738193.82722236518748104572,1.37011862239662,-2.94804369783922,740.697108987623
738193.82722238823771476746,1.31395991412321,-2.96506440223031,740.699897690602
738193.82722241117153316736,1.27366796418047,-2.9279458039537,740.687781256968
738193.82722243422176688910,1.26347477398015,-2.84678493103801,740.680280607575
738193.82722245715558528900,1.27472574806918,-2.8639017976008,740.523920916389
738193.82722248020581901073,1.29992023705485,-2.85091990442116,740.671914498637
738193.82722250313963741064,1.37406127143637,-2.89784704421127,740.598158112942
738193.82722252618987113237,1.41598797829803,-2.90592466663416,740.535460376993
738193.82722254912368953228,1.40829500456194,-2.91775261375339,740.663259903184
738193.82722257217392325401,1.39848646304843,-2.94092769713335,740.464877342965
738193.82722259510774165392,1.40627559895622,-2.95727526632253,740.353329223791
738193.82722261815797537565,1.42839289844746,-2.92265688451015,740.492475886243
738193.82722264109179377556,1.46781938884489,-2.89371207082813,740.448145125089
738193.82722266414202749729,1.46435755066366,-2.83832265992832,740.548346108001
738193.82722268707584589720,1.42425792506432,-2.81524373872007,740.47478204665
738193.82722271012607961893,1.40906430193555,-2.82101346902213,740.534883403963
738193.82722273305989801884,1.38838943501982,-2.91900272198551,740.691723906007
738193.82722275611013174057,1.36704143290219,-2.95689061763572,740.656143902478
738193.82722277904395014048,1.35348256669234,-2.93477331814448,740.44824128726
738193.82722280209418386221,1.3588676483076,-2.98016186318738,740.657297848538
738193.82722282514441758394,1.37810008264781,-3.02151159701883,740.654989956417
738193.82722284807823598385,1.38944721890853,-3.05968797918415,740.532671674014
738193.82722287112846970558,1.42021911385287,-3.03372419282486,740.619986925918
738193.82722289406228810549,1.4136800861772,-2.96217953707928,740.627583737483
738193.82722291711252182722,1.37300348754765,-2.84053438987745,740.608735951829
738193.82722294004634022713,1.35059770154131,-2.75591167878052,740.604889464961
738193.82722296309657394886,1.33809661922017,-2.76187373342598,740.62402573713
738193.82722298603039234877,1.32165288785929,-2.87178709568029,740.557481514313
738193.82722300908062607050,1.33675034881636,-2.97554607894573,740.615948114707
738193.82722303201444447041,1.395409273554,-3.01968451575651,740.656336226821
738193.82722305506467819214,1.40954511279406,-3.02737748949259,740.650278010004
738193.82722307799849659204,1.39935192259374,-2.96237186142268,740.525363348964
738193.82722310104873031378,1.35425186406595,-2.927849641782,740.254570673454
738193.82722312398254871368,1.34386634952223,-2.91631018117788,740.293131704306
738193.82722314703278243542,1.32549937472733,-2.91015580218901,740.561039514666
738193.82722316996660083532,1.30540148084181,-2.94506267051649,740.444490962564
738193.82722319301683455706,1.30001639922655,-3.0007405679314,740.529594484519
738193.82722321595065295696,1.3046321834682,-2.98006570101568,740.642777360611
738193.82722323900088667870,1.34405867386564,-2.94410104879948,740.64210422541
738193.82722326193470507860,1.3677145681041,-2.96583369960392,740.646912333995
738193.82722328498493880033,1.39954424693715,-2.97968105232887,740.576233137794
738193.82722330791875720024,1.44675987324236,-3.04084019353074,740.637392278996
738193.82722333096899092197,1.49185993177016,-3.08863279286617,740.499014913918
738193.82722335390280932188,1.49185993177016,-3.11469274139715,740.658932605457
738193.82722337695304304361,1.47551236258098,-3.05574533014441,740.683261634898
738193.82722339988686144352,1.45387587394824,-2.97650770066274,740.752786885037
738193.82722342293709516525,1.43579738566844,-2.84284228199827,740.641334928036
738193.82722344587091356516,1.43300868268911,-2.81476292786156,740.791828726748
738193.82722346892114728689,1.44512511632345,-2.76052746302217,740.836447974417
738193.82722349185496568680,1.45502982000865,-2.78610660069465,740.850199164971
738193.82722351490519940853,1.50253393282897,-2.85563185083451,740.839717488255
738193.82722353783901780844,1.51638128555393,-2.86794060881225,740.769230616398
738193.82722356088925153017,1.47560852475268,-2.88121098850699,740.785674347759
738193.82722358393948525190,1.37838856916291,-2.91900272198551,740.62912233223
738193.82722360687330365181,1.31588315755723,-2.96958402430026,740.341116627985
738193.82722362992353737354,1.12625135496275,-3.0461291129743,740.334866086825
738193.82722365285735577345,0.983354367814982,-3.06863106115235,740.438336583575
738193.82722367590758949518,0.864497923592479,-3.07545857534312,740.381889388786
738193.82722369884140789509,0.707561259376358,-3.01266467722233,740.27409159431
738193.82722372189164161682,0.604283086969426,-2.94217780536546,740.141387797362
738193.82722374482546001673,0.479272263758055,-2.9186180732987,739.996952215467
738193.82722376787569373846,0.247906078645318,-3.02593505691708,739.8874235019
738193.82722379080951213837,0.0261561107026868,-3.14969577189634,739.682405751833
738193.82722381385974586010,-0.119048768565905,-3.26768675657353,739.515852870447
738193.82722383679356426001,-0.18790088350386,-3.34346254787396,739.520276330345
738193.82722385984379798174,-0.139050500279725,-3.26682129702822,739.445077512075
738193.82722388277761638165,-0.0407727608012471,-3.12988636452592,739.671058615572
738193.82722390582785010338,0.00605821681716643,-3.02103078616032,739.762701165203
738193.82722392876166850328,0.124626174524566,-2.95285180642428,739.871845230084
738193.82722395181190222502,0.317912139643686,-2.99247062116511,739.967238104412
738193.82722397474572062492,0.593320599395506,-3.00497170348625,740.056380437578
738193.82722399779595434666,0.877575978943822,-3.00247148702202,740.080517142675
738193.82722402072977274656,1.17279384606606,-2.94487034617309,740.320153274554
738193.82722404378000646830,1.27732212670511,-2.91909888415721,740.390063173381
738193.82722406671382486820,1.32713413164625,-2.96227569925098,740.41544998671
738193.82722408976405858994,1.41993062733777,-3.00708727126367,740.461511666955
738193.82722411269787698984,1.5322480438846,-3.08805581983596,740.183314504224
738193.82722413574811071157,1.54628772095295,-3.09276776624931,740.205239479372
738193.82722415868192911148,1.48166674156985,-3.05612997883121,740.48555220988
738193.82722418173216283321,1.40021738213905,-2.9093865048154,740.485071399022
738193.82722420466598123312,1.34175078174481,-2.81707081998239,740.495264589222
738193.82722422771621495485,1.32501856386883,-2.75831573307304,740.613928709101
738193.82722425065003335476,1.30068953442846,-2.80139638599512,740.490841129324
738193.82722427370026707649,1.34232775477502,-2.86620968972163,740.609024438344
738193.82722429663408547640,1.34627040381476,-2.863517148914,740.620756223292
738193.82722431968431919813,1.33396164583703,-2.9272726687518,740.634603576017
738193.82722434261813759804,1.33944288962399,-2.97535375460232,740.622967953241
738193.82722436566837131977,1.34713586336007,-3.07574706185822,740.608639789658
738193.82722438871860504150,1.34559726861285,-3.12488593159746,740.60931292486
738193.82722441165242344141,1.35761754007549,-3.04968711332724,740.593830815216
738193.82722443470265716314,1.36290645951904,-3.01439559631295,740.623641088443
738193.82722445763647556305,1.35655975618677,-3.0003559192446,740.629795467432
738193.82722448068670928478,1.32665332078775,-2.98131580924779,740.630083953947
738193.82722450362052768469,1.28847693862243,-3.00304846005223,740.595177085619
738193.82722452667076140642,1.23808796065108,-2.92515710097437,740.546711351082
738193.82722454960457980633,1.16942817005652,-2.98468148525733,740.567770866685
738193.82722457265481352806,1.17760195465111,-3.01766511015079,740.597100329053
738193.82722459558863192797,1.16577400753188,-2.98679705303475,740.56979027229
738193.82722461863886564970,1.10548032587532,-2.95256331990917,740.267552566634
738193.82722464157268404961,1.07990118820284,-3.0003559192446,740.339770357581
738193.82722466462291777134,1.07980502603114,-3.04939862681214,740.481994209527
738193.82722468755673617125,1.15086887091822,-2.9639104561699,740.464011883419
738193.82722471060696989298,1.28915007382434,-2.89467369254514,740.481994209527
738193.82722473354078829288,1.41310311314699,-2.88524979971844,740.566713082796
738193.82722475659102201462,1.386081542899,-2.88399969148632,740.585176219763
738193.82722477952484041452,1.36444505426626,-2.97843094409676,740.586426327995
738193.82722480257507413626,1.31703710361764,-3.06526538514281,740.564020541988
738193.82722482550889253616,1.31636396841573,-3.09411403665313,740.564212866332
738193.82722484855912625790,1.35780986441889,-2.96814159172474,740.567386217998
738193.82722487149294465780,1.39608240875591,-2.87371033911431,740.581425895066
738193.82722489454317837954,1.39098581365575,-2.96285267228119,740.589215030974
738193.82722491747699677944,1.37050327108343,-3.02853143555301,740.591715247438
738193.82722494052723050117,1.34703970118837,-3.09574879357204,740.558635460373
738193.82722496346104890108,1.35598278315657,-3.05161035676126,740.548153783658
738193.82722498651128262281,1.34453948472414,-2.91717564072319,740.607485843597
738193.82722500944510102272,1.27587969412959,-2.83716871386791,740.650181847832
738193.82722503249533474445,1.22587536484504,-2.85880520250065,740.668164173941
738193.82722505542915314436,1.176351846419,-3.02641586777558,740.647681631368
738193.82722507847938686609,1.1217317328928,-3.18017918032557,740.641623414551
738193.82722510141320526600,1.14846481662569,-3.15710025911732,740.594600112589
738193.82722512446343898773,1.22837558130927,-3.1374831760903,740.301401651073
738193.82722514751367270947,1.29309272286408,-3.06218819564838,740.429489663779
738193.82722517044749110937,1.33357699715022,-2.9182334246119,740.541999404669
738193.82722519349772483110,1.33646186230125,-2.85332395871369,740.39564057934
738193.82722521643154323101,1.2307796356018,-2.81341665745775,740.571425029209
738193.82722523948177695274,1.17827508985302,-2.76572022029403,740.655086118589
738193.82722526241559535265,1.10817286668295,-2.76081594953727,740.619217628545
738193.82722528546582907438,1.08480545895959,-2.83053352402054,740.631814873038
738193.82722530839964747429,1.10134535249218,-2.92448396577247,740.577002435168
738193.82722533144988119602,1.2038542275255,-3.05766857357843,740.479974803922
738193.82722535438369959593,1.25433936766855,-3.10440338902514,740.625852818392
738193.82722537743393331766,1.33607721361445,-3.13402133790906,740.595080923448
738193.82722540036775171757,1.34761667421858,-3.03516662540038,740.550269351435
738193.82722542341798543930,1.29116947943006,-2.90688628835117,740.63421892733
738193.82722544635180383921,1.16856271051121,-2.78091384342279,740.497380156999
738193.82722546940203756094,1.08845962148423,-2.75283448928608,740.610755357435
738193.82722549233585596085,1.03749367048268,-2.7361984335818,740.629891629604
738193.82722551538608968258,1.03883994088649,-2.78581811417955,740.624121899301
738193.82722553831990808249,1.02220388518221,-2.83149514573755,740.536806647397
738193.82722556137014180422,1.03557042704865,-2.88986558396009,740.640469468491
738193.82722558430396020412,1.14654157319167,-2.9006357471906,740.569886434462
738193.82722560735419392586,1.2307796356018,-2.97112261904748,740.587003301025
738193.82722563028801232576,1.29568910150001,-3.1004607399854,740.316595274202
738193.82722565333824604750,1.32742261816135,-3.19469966825243,740.372657820303
738193.82722567627206444740,1.26943682862562,-3.22518307668166,740.52738275457
738193.82722569932229816914,1.14971492485781,-3.17075528749887,740.521228375581
738193.82722572225611656904,1.06451524073067,-3.07295835887889,740.539210701689
738193.82722574530635029078,1.03345485927123,-2.89034639481859,740.595273247791
738193.82722576824016869068,1.07297751184036,-2.77399016706032,740.607966654456
738193.82722579129040241241,1.10923065057166,-2.74148735302536,740.600177518548
738193.82722581422422081232,1.17202454869245,-2.72369735126066,740.610082222233
738193.82722583727445453405,1.17904438722663,-2.76379697686,740.616044276879
738193.82722586020827293396,1.1584656824826,-2.75600784095222,740.600177518548
738193.82722588325850665569,1.13202108526481,-2.81966719861832,740.609120600516
738193.82722590619232505560,1.04701372548108,-2.90784791006818,740.575463840421
738193.82722592924255877733,1.00979896503277,-2.98304672833841,740.577964056885
738193.82722595229279249907,0.972488042412763,-3.06565003382961,740.546999837597
738193.82722597522661089897,0.960756257465234,-3.07199673716188,740.398813931006
738193.82722599827684462070,0.920560469694194,-3.02718516514919,740.576521624309
738193.82722602121066302061,0.890365547780062,-2.98333521485351,740.565078325877
738193.82722604426089674234,0.826417703598861,-2.90784791006818,740.549115405375
738193.82722606719471514225,0.801896349815093,-2.89034639481859,740.55844313603
738193.82722609024494886398,0.803627268905711,-2.89755855769617,740.443817827362
738193.82722611317876726389,0.842284461929535,-2.92967672304432,740.50699637417
738193.82722613622900098562,0.947485877770489,-2.89659693597916,740.176390827861
738193.82722615916281938553,1.0119145328102,-2.93986991324463,740.411795824186
738193.82722618221305310726,1.05066788800572,-3.0191075427263,740.451318476755
738193.82722620514687150717,1.03508961619015,-3.11171171407442,740.437086475343
738193.82722622819710522890,1.02749280462577,-3.14709939326041,740.514977834421
738193.82722625113092362881,1.00527934296282,-3.16171604335897,740.487763939829
738193.82722627418115735054,1.00412539690241,-3.06314981736539,740.536037350023
738193.82722629711497575045,0.968449231201319,-3.03843613923822,740.525747997651
738193.82722632016520947218,0.934119335904042,-3.02699284080579,740.507669509371
738193.82722634309902787209,0.880172357579751,-3.04911014029703,740.481801885184
738193.82722636614926159382,0.835360785567059,-2.99410537808403,740.450741503724
738193.82722638908307999372,0.841707488899329,-2.90794407223988,740.478340047003
738193.82722641213331371546,0.858920517633818,-2.85534336431941,740.368330522577
738193.82722643506713211536,0.851419868241135,-2.84957363401734,740.469012316348
738193.82722645811736583710,0.79256861916009,-2.85938217553085,740.304190354052
738193.82722648105118423700,0.804781214966124,-2.92246456016674,740.381889388786
738193.82722650410141795874,0.807569917945455,-2.9189065598138,740.526901943712
738193.82722652703523635864,0.86093992323954,-2.9097711535022,740.511323671896
738193.82722655008547008038,0.868921383490727,-2.89246196259601,740.446125719483
738193.82722657301928848028,0.919887334492286,-2.981892782278,740.235145914771
738193.82722659606952220201,0.970853285493845,-3.02458878651326,740.491033453667
738193.82722661900334060192,1.00854885680066,-3.06093808741626,740.361791494901
738193.82722664205357432365,1.05461053704546,-3.06122657393137,740.040609841419
738193.82722666498739272356,1.02278085821241,-3.04478284257049,740.126386498577
738193.82722668803762644529,1.02287702038412,-3.00227916267862,740.412565121559
738193.82722671108786016703,0.997874855741841,-2.96477591571521,740.397083011915
738193.82722673402167856693,0.984796800390498,-2.94756288698072,740.296593542488
738193.82722675707191228867,0.989412584632149,-2.93890829152762,740.485263723365
738193.82722678000573068857,1.00902966765916,-2.92477245228757,740.410641878125
738193.82722680305596441031,0.975180583220392,-2.92006050587422,740.512381455785
738193.82722682598978281021,0.921041280552699,-3.00843354166749,740.525171024621
738193.82722684904001653194,0.913348306816614,-3.06266900650688,740.555942919565
738193.82722687197383493185,0.91931036146208,-3.0915176580172,740.536133512195
738193.82722689502406865358,0.962006365697348,-3.08805581983596,740.488725561546
738193.82722691795788705349,1.01691496573865,-3.03776300403631,740.522766970329
738193.82722694100812077522,1.11451957001522,-2.96602602394732,740.537960593457
738193.82722696394193917513,1.14634924884827,-2.93313856122556,740.496995508313
738193.82722698699217289686,1.1761595220756,-2.93111915561984,740.566809244968
738193.82722700992599129677,1.14250276198023,-3.01189537984872,740.547288324112
738193.82722703297622501850,1.06172653775134,-3.11238484927633,740.448145125089
738193.82722705591004341841,0.974507448018485,-3.18941074880887,740.575079191734
738193.82722707896027714014,0.94575495867987,-3.26585967531121,740.597965788599
738193.82722710189409554005,0.908828684746665,-3.27162940561327,740.481801885184
738193.82722712494432926178,0.903347440959705,-3.22710632011568,740.613063249556
738193.82722714787814766169,0.988450962915138,-3.11738528220478,740.26168667416
738193.82722717092838138342,1.1033647580979,-3.12517441811257,740.390351659896
738193.82722719386219978333,1.30809402164944,-3.10671128114596,740.578348705572
738193.82722721691243350506,1.48099360636794,-2.97891175495526,740.332750519047
738193.82722723984625190496,1.54619155878125,-2.76773962589975,740.511131347553
738193.82722726289648562670,1.50849598747444,-2.67484696803653,740.62402573713
738193.82722728583030402660,1.41291078880359,-2.63330490986167,740.618832979858
738193.82722730888053774834,1.30770937296264,-2.75927735479005,740.438913556605
738193.82722733181435614824,1.25607028675917,-2.83091817270734,740.592196058297
738193.82722735486458986998,1.23385682509623,-2.90236666628122,740.643065847127
738193.82722737779840826988,1.24318455575123,-3.03093548984553,740.63537287339
738193.82722740084864199162,1.28270720832036,-3.12325117467855,740.496418535282
738193.82722742378246039152,1.31453688715341,-3.16248534073258,740.524497889419
738193.82722744683269411325,1.37588835269869,-3.10344176730813,740.641911901066
738193.82722746976651251316,1.3684838654777,-3.04410970736858,740.64662384748
738193.82722749281674623489,1.3681953789626,-2.92111828976293,740.644700604046
738193.82722751586697995663,1.3134791032647,-2.8452463362908,740.503149887302
738193.82722753880079835653,1.2588589897385,-2.83841882210002,740.477474587457
738193.82722756185103207827,1.23818412282278,-2.85880520250065,740.685184878332
738193.82722758478485047817,1.23645320373216,-2.89390439517153,740.669029633486
738193.82722760783508419991,1.18260238757957,-2.93304239905386,740.659990389346
738193.82722763076890259981,1.14202195112172,-2.9639104561699,740.656143902478
738193.82722765381913632154,1.09038286491826,-3.01045294727321,740.244281321082
738193.82722767675295472145,1.02037680391989,-3.06218819564838,740.30178629976
738193.82722769980318844318,0.996336260994624,-3.09949911826838,740.530267619721
738193.82722772273700684309,1.021626912152,-3.17325550396309,740.423623771305
738193.82722774578724056482,1.06845788977042,-3.19133399224289,740.543441837244
738193.82722776872105896473,1.18721817182122,-3.16335080027788,740.470550911095
738193.82722779177129268646,1.31020958942687,-3.05786089792183,740.644027468844
738193.82722781470511108637,1.42445024940772,-2.96843007823985,740.596427193852
738193.82722783775534480810,1.48935971530593,-2.84726574189652,740.572675137441
738193.82722786068916320801,1.42464257375112,-2.75889270610325,740.624795034503
738193.82722788373939692974,1.33655802447295,-2.75033427282186,740.474685884478
738193.82722790667321532965,1.26299396312165,-2.80168487251022,740.614698006475
738193.82722792972344905138,1.21395125555411,-2.84668876886631,740.614505682131
738193.82722795265726745129,1.24501163701355,-2.88919244875818,740.619986925918
738193.82722797570750117302,1.22597152701674,-2.89313509779792,740.548346108001
738193.82722799864131957293,1.23847260933788,-2.92429164142906,740.457953666602
738193.82722802169155329466,1.24626174524566,-2.94275477839567,740.644700604046
738193.82722804462537169456,1.32713413164625,-3.00160602747671,740.655086118589
738193.82722806767560541630,1.35579045881317,-3.02180008353393,740.640565630662
738193.82722809060942381620,1.35963694568121,-3.02054997530182,740.585945517136
738193.82722811365965753794,1.35165548543002,-3.03622440928909,740.516324104825
738193.82722813659347593784,1.36627213552858,-3.09699890180416,740.637873089855
738193.82722815964370965958,1.3679068924475,-3.16969750361015,740.328327059149
738193.82722818257752805948,1.33925056528058,-3.26941767566415,740.40525679651
738193.82722820562776178122,1.30232429134738,-3.2920157860139,740.568732488402
738193.82722822856158018112,1.2858805599865,-3.24460783536528,740.437182637515
738193.82722825161181390285,1.22029795888638,-3.1011338751873,740.538441404316
738193.82722827466204762459,1.11096156966228,-2.91784877592509,740.570751894007
738193.82722829759586602449,1.01479939796123,-2.76216221994109,740.639411684602
738193.82722832064609974623,0.951428526810232,-2.7633161660015,740.630757089149
738193.82722834357991814613,0.973449664129774,-2.80995481927651,740.455453450138
738193.82722836663015186787,1.01797274962736,-2.86601736537822,740.593157680014
738193.82722838956397026777,1.14269508632363,-2.95429423899979,740.59296535567
738193.82722841261420398951,1.30847867033625,-2.99631710803315,740.589888166176
738193.82722843554802238941,1.43772062910246,-3.02353100262455,740.465358153823
738193.82722845859825611115,1.46416522632025,-3.02603121908878,740.617294385111
738193.82722848153207451105,1.46964647010721,-2.99410537808403,740.628737683543
738193.82722850458230823278,1.43752830475906,-2.9730458624815,740.614890330818
738193.82722852751612663269,1.30184348048887,-2.92352234405546,740.523632429874
738193.82722855056636035442,1.17029362960183,-2.91015580218901,740.614505682131
738193.82722857350017875433,1.08932508102954,-2.93592726420489,740.594696274761
738193.82722859655041247606,0.966237501252194,-2.96804542955304,740.592003733953
738193.82722861948423087597,0.891327169497073,-2.96266034793778,740.61498649299
738193.82722864253446459770,0.859305166320622,-2.90477072057375,740.586426327995
738193.82722866546828299761,0.947774364285592,-2.9090018561286,740.276303324259
738193.82722868851851671934,1.15259979000884,-2.95131321167706,740.403429715248
738193.82722871145233511925,1.3046321834682,-3.05574533014441,740.527671241085
738193.82722873450256884098,1.4407978185969,-3.21652848122857,740.525074862449
738193.82722875743638724089,1.46387673980515,-3.33586573630958,740.512477617957
738193.82722878048662096262,1.40714105850153,-3.28711151525714,740.627391413139
738193.82722880342043936253,1.34117380871461,-3.12728998588999,740.621717845009
738193.82722882647067308426,1.26212850357634,-2.93736969678041,740.647296982681
738193.82722884940449148417,1.22039412105808,-2.72562059469469,740.644892928389
738193.82722887245472520590,1.20558514661612,-2.6354204776391,740.635757522077
738193.82722889538854360580,1.17981368460024,-2.67532777889503,740.636142170764
738193.82722891843877732754,1.16192752066384,-2.72898627070422,740.633930440815
738193.82722894137259572744,1.17923671157003,-2.81082027882182,740.639988657632
738193.82722896442282944918,1.15086887091822,-2.92438780360076,740.624121899301
738193.82722898735664784908,1.24606942090226,-2.9913166751047,740.553442703101
738193.82722901040688157082,1.29674688538872,-3.04545597777239,740.600562167235
738193.82722903334069997072,1.31530618452702,-3.07199673716188,740.589022706631
738193.82722905639093369246,1.37386894709296,-3.05132187024616,740.592773031327
738193.82722907944116741419,1.39175511102936,-3.0283391112096,740.603639356729
738193.82722910237498581409,1.37569602835528,-2.94737056263732,740.60988989789
738193.82722912542521953583,1.34155845740141,-2.90275131496803,740.603254708042
738193.82722914835903793573,1.28770764124882,-2.86688282492353,740.571328867038
738193.82722917140927165747,1.19183395606287,-2.87467196083132,740.297074353346
738193.82722919434309005737,1.10884600188486,-2.8907310435054,740.407757012974
738193.82722921739332377911,1.06605383547789,-2.95544818506021,740.53247934967
738193.82722924032714217901,1.04220561689603,-3.02247321873584,740.550269351435
738193.82722926337737590075,1.05537983441907,-3.10574965942895,740.556808379111
738193.82722928631119430065,1.08845962148423,-3.1008453886722,740.62402573713
738193.82722930936142802238,1.17837125202472,-3.05853403312374,740.619025304201
738193.82722933229524642229,1.2680905582218,-3.05036024852915,740.630564764805
738193.82722935534548014402,1.28299569483547,-3.06488073645601,740.527190430227
738193.82722937827929854393,1.26828288256521,-3.08507479251323,740.621333196322
738193.82722940132953226566,1.16846654833951,-3.27509124379451,740.630083953947
738193.82722942426335066557,1.11596200259074,-3.32471092439225,740.61104384395
738193.82722944731358438730,1.0306661562919,-3.19643058734305,740.590849787893
738193.82722947024740278721,0.926330199996257,-2.98016186318738,740.519208969976
738193.82722949329763650894,0.907674738686252,-2.74869951590294,740.608639789658
738193.82722951623145490885,0.987297016854725,-2.68984826682189,740.580848922036
738193.82722953928168863058,1.07990118820284,-2.66648085909854,740.614794168646
738193.82722956221550703049,1.19394952384029,-2.79514584483455,740.641142603693
738193.82722958526574075222,1.29886245316614,-2.87784531249745,740.633353467785
738193.82722960819955915213,1.39252440840297,-2.9275611552669,740.615371141677
738193.82722963124979287386,1.46291511808814,-2.98545078263093,740.593253842185
738193.82722965418361127377,1.41627646481313,-3.02228089439244,740.468339181146
738193.82722967723384499550,1.38713932678771,-2.92458012794417,740.264186890624
738193.82722970016766339540,1.38704316461601,-2.84120752507935,740.512958428815
738193.82722972321789711714,1.38223505603096,-2.84216914679636,740.573636759158
738193.82722974615171551704,1.44377884591963,-2.8454386606342,740.571040380523
738193.82722976920194923878,1.44012468339499,-2.87486428517472,740.538345242144
738193.82722979213576763868,1.43358565571932,-2.87822996118426,740.599023572487
738193.82722981518600136042,1.37540754184018,-2.9189065598138,740.584695408904
738193.82722983823623508215,1.27607201847299,-2.92900358784242,740.511804482755
738193.82722986117005348206,1.21702844504854,-2.96958402430026,740.645373739247
738193.82722988422028720379,1.13932941031409,-2.94535115703159,740.653547523842
738193.82722990715410560369,1.1492341139993,-2.95660213112062,740.56017405512
738193.82722993020433932543,1.16000427722982,-2.92275304668185,740.608735951829
738193.82722995313815772533,1.21183568777669,-2.94227396753716,740.592099896125
738193.82722997618839144707,1.23174125731881,-2.93496564248788,740.649027901772
738193.82722999912220984697,1.26174385488953,-2.99843267581058,740.651143469549
738193.82723002217244356871,1.17087060263204,-3.05930333049734,740.611140006122
738193.82723004510626196861,1.08326686421238,-3.2099894535529,740.664990822274
738193.82723006815649569035,1.06191886209474,-3.34798216994391,740.679511310201
738193.82723009109031409025,1.03710902179587,-3.42712363725388,740.651047307378
738193.82723011414054781199,1.0218192364954,-3.33442330373406,740.447568152058
738193.82723013707436621189,1.09220994618058,-3.15613863740031,740.550750162294
738193.82723016012459993362,1.21154720126158,-2.89284661128282,740.439009718777
738193.82723018305841833353,1.30713239993243,-2.67898194141967,740.336789330259
738193.82723020610865205526,1.36300262169074,-2.55810609159145,740.306786732688
738193.82723022904247045517,1.3772346231025,-2.51098662745793,740.366311116971
738193.82723025209270417690,1.41781505956035,-2.60589869092687,740.544211134618
738193.82723027502652257681,1.40877581542045,-2.76456627423361,740.521036051238
738193.82723029807675629854,1.36232948648884,-2.83380303785837,740.417373230144
738193.82723032101057469845,1.37184954148724,-2.85322779654198,740.603543194557
738193.82723034406080842018,1.36540667598327,-2.90140504456421,740.559789406433
738193.82723036699462682009,1.3585791617925,-2.96237186142268,740.595177085619
738193.82723039004486054182,1.32963434811048,-3.02862759772471,740.606908870567
738193.82723041297867894173,1.29386202023769,-3.03910927444012,740.451703125441
738193.82723043602891266346,1.22693314873375,-3.07853576483756,740.601042978093
