time_dn,ecg_projection_ll_ra_mV,ecg_projection_la_ra_mV,ecg_projection_vx_rl_mV
738504.44851307757198810577,-1.75405133213294,-4.06201361125523,-296.785485396893
738504.44851316802669316530,-1.78174687948241,-4.07124546037172,-296.739326151311
738504.44851325848139822483,-1.7909787285989,-4.06201361125523,-296.748558000427
738504.44851334893610328436,-1.80021057771538,-4.06201361125523,-296.757789849544
738504.44851343939080834389,-1.81867427594836,-4.04354991302225,-296.776253547777
738504.44851352984551340342,-1.83713797418134,-4.07124546037172,-296.813180944243
738504.44851362030021846294,-1.8740653706473,-4.09894100772118,-296.730094302194
738504.44851371063850820065,-1.90176091799676,-4.11740470595416,-296.757789849544
738504.44851380109321326017,-1.89252906888028,-4.10817285683767,-296.730094302194
738504.44851389154791831970,-1.8740653706473,-4.0804773094882,-296.730094302194
738504.44851398200262337923,-1.85560167241432,-4.07124546037172,-296.739326151311
738504.44851407245732843876,-1.86483352153081,-4.07124546037172,-296.76702169866
738504.44851416291203349829,-1.82790612506485,-4.02508621478927,-296.748558000427
738504.44851425336673855782,-1.89252906888028,-4.10817285683767,-296.776253547777
738504.44851434382144361734,-1.8740653706473,-4.09894100772118,-296.803949095126
738504.44851443427614867687,-1.88329721976379,-4.10817285683767,-296.757789849544
738504.44851452461443841457,-1.93868831446272,-4.16356395153661,-296.813180944243
738504.44851461506914347410,-1.92945646534623,-4.14510025330363,-296.822412793359
738504.44851470552384853363,-1.86483352153081,-4.0804773094882,-296.803949095126
738504.44851479597855359316,-1.83713797418134,-4.04354991302225,-296.757789849544
738504.44851488643325865269,-1.64326914273507,-3.81275368511002,-296.76702169866
738504.44851497688796371222,-1.45863216040529,-3.6558122501297,-296.720862453078
738504.44851506734266877174,-1.12628559221168,-3.76659443952757,-296.628543961913
738504.44851515779737383127,-0.526215399639882,-4.08970915860469,-296.683935056612
738504.44851524825207889080,-0.276955473494675,-4.37589648121586,-296.702398754845
738504.44851533870678395033,-0.932416760765404,-4.56976531266213,-296.831644642476
738504.44851542904507368803,-1.42170476393933,-4.92057557908872,-297.043977172155
738504.44851551949977874756,-1.49555955687124,-4.97596667378765,-297.127063814203
738504.44851560995448380709,-1.55095065157018,-4.70824304940947,-296.923963133641
738504.44851570040918886662,-1.65250099185156,-4.53283791619617,-296.896267586291
738504.44851579086389392614,-1.97561571092868,-4.61592455824457,-296.905499435408
738504.44851588131859898567,-1.91099276711325,-4.41282387768181,-296.868572038942
738504.44851597177330404520,-1.94792016357921,-4.32050538651692,-296.877803888058
738504.44851606222800910473,-1.97561571092868,-4.29280983916745,-296.840876491592
738504.44851615268271416426,-1.89252906888028,-4.18202764976959,-296.79471724601
738504.44851624313741922379,-1.75405133213294,-4.03431806390576,-296.822412793359
738504.44851633347570896149,-1.7909787285989,-4.0804773094882,-296.831644642476
738504.44851642393041402102,-1.71712393566698,-4.00662251655629,-296.757789849544
738504.44851651438511908054,-1.76328318124943,-4.07124546037172,-296.79471724601
738504.44851660483982414007,-1.80944242683187,-4.12663655507065,-296.831644642476
738504.44851669529452919960,-1.73558763389996,-4.05278176213874,-296.831644642476
738504.44851678574923425913,-1.67096469008454,-3.9973906674398,-296.730094302194
738504.44851687620393931866,-1.65250099185156,-3.98815881832331,-296.748558000427
738504.44851696665864437819,-1.5324869533372,-3.87737662892544,-296.674703207495
738504.44851705711334943771,-1.6155735953856,-3.96969512009033,-296.683935056612
738504.44851714756805449724,-1.55095065157018,-3.92353587450789,-296.656239509262
738504.44851723790634423494,-1.39400921658986,-3.77582628864406,-296.647007660146
738504.44851732836104929447,-1.52325510422071,-3.92353587450789,-296.637775811029
738504.44851741881575435400,-1.50479140598773,-3.93276772362438,-296.637775811029
738504.44851750927045941353,-1.36631366924039,-3.80352183599353,-296.591616565447
738504.44851759972516447306,-1.20937223426008,-3.68350779747917,-296.563921018097
738504.44851769017986953259,-1.1909085360271,-3.70197149571215,-296.563921018097
738504.44851778063457459211,-1.17244483779412,-3.72966704306162,-296.58238471633
738504.44851787108927965164,-1.16321298867763,-3.72966704306162,-296.61008026368
738504.44851796154398471117,-0.987807855464339,-3.59118930631428,-296.563921018097
738504.44851805199868977070,-1.04319895016327,-3.67427594836268,-296.619312112796
738504.44851814233697950840,-0.877025666066469,-3.52656636249886,-296.61008026368
738504.44851823279168456793,-0.886257515182958,-3.54503006073183,-296.554689168981
738504.44851832324638962746,-1.1078218939787,-3.76659443952757,-296.61008026368
738504.44851841370109468699,-1.08935819574572,-3.72043519394513,-296.637775811029
738504.44851850415579974651,-1.17244483779412,-3.76659443952757,-296.628543961913
738504.44851859461050480604,-1.36631366924039,-3.89584032715842,-296.711630603961
738504.44851868506520986557,-1.4494003112888,-3.90507217627491,-296.748558000427
738504.44851877551991492510,-1.51402325510422,-3.90507217627491,-296.730094302194
738504.44851886597461998463,-1.65250099185156,-3.98815881832331,-296.785485396893
738504.44851895631290972233,-1.71712393566698,-4.01585436567278,-296.776253547777
738504.44851904676761478186,-1.80944242683187,-4.08970915860469,-296.813180944243
738504.44851913722231984138,-1.91099276711325,-4.18202764976959,-296.656239509262
738504.44851922767702490091,-1.94792016357921,-4.20972319711905,-296.720862453078
738504.44851931813172996044,-1.76328318124943,-4.02508621478927,-296.813180944243
738504.44851940858643501997,-1.78174687948241,-4.03431806390576,-296.79471724601
738504.44851949904114007950,-1.80944242683187,-4.04354991302225,-296.803949095126
738504.44851958949584513903,-1.77251503036592,-4.00662251655629,-296.803949095126
738504.44851967995055019855,-1.98484756004517,-4.23741874446852,-296.850108340709
738504.44851977040525525808,-1.93868831446272,-4.1727958006531,-296.785485396893
738504.44851986074354499578,-1.98484756004517,-4.24665059358501,-296.813180944243
738504.44851995119825005531,-1.85560167241432,-4.10817285683767,-296.831644642476
738504.44852004165295511484,-1.8740653706473,-4.12663655507065,-296.739326151311
738504.44852013210766017437,-1.92022461622974,-4.1727958006531,-296.831644642476
738504.44852022256236523390,-1.90176091799676,-4.14510025330363,-296.813180944243
738504.44852031301707029343,-1.82790612506485,-4.0804773094882,-296.813180944243
738504.44852040347177535295,-1.97561571092868,-4.20972319711905,-296.76702169866
738504.44852049392648041248,-1.7909787285989,-4.02508621478927,-296.79471724601
738504.44852058438118547201,-1.93868831446272,-4.18202764976959,-296.831644642476
738504.44852067483589053154,-1.90176091799676,-4.13586840418714,-296.748558000427
738504.44852076517418026924,-1.94792016357921,-4.18202764976959,-296.822412793359
738504.44852085562888532877,-1.97561571092868,-4.20972319711905,-296.822412793359
738504.44852094608359038830,-1.76328318124943,-3.97892696920682,-296.730094302194
738504.44852103653829544783,-1.92022461622974,-4.14510025330363,-296.711630603961
738504.44852112699300050735,-1.99407940916166,-4.22818689535203,-296.720862453078
738504.44852121744770556688,-1.94792016357921,-4.1727958006531,-296.730094302194
738504.44852130790241062641,-1.88329721976379,-4.08970915860469,-296.683935056612
738504.44852139835711568594,-1.82790612506485,-4.04354991302225,-296.674703207495
738504.44852148881182074547,-2.01254310739463,-4.21895504623554,-296.720862453078
738504.44852157926652580500,-1.89252906888028,-4.08970915860469,-296.730094302194
738504.44852166960481554270,-1.85560167241432,-4.07124546037172,-296.739326151311
738504.44852176005952060223,-2.00331125827815,-4.20049134800256,-296.730094302194
738504.44852185051422566175,-1.9571520126957,-4.15433210242012,-296.776253547777
738504.44852194096893072128,-2.03100680562761,-4.22818689535203,-296.785485396893
738504.44852203142363578081,-1.91099276711325,-4.12663655507065,-296.776253547777
738504.44852212187834084034,-1.94792016357921,-4.15433210242012,-296.76702169866
738504.44852221233304589987,-1.98484756004517,-4.18202764976959,-296.76702169866
738504.44852230278775095940,-1.93868831446272,-4.13586840418714,-296.76702169866
738504.44852239324245601892,-1.86483352153081,-4.06201361125523,-296.748558000427
738504.44852248369716107845,-1.89252906888028,-4.08970915860469,-296.757789849544
738504.44852257403545081615,-1.97561571092868,-4.18202764976959,-296.730094302194
738504.44852266449015587568,-1.92945646534623,-4.12663655507065,-296.693166905728
738504.44852275494486093521,-1.96638386181219,-4.16356395153661,-296.665471358379
738504.44852284539956599474,-2.02177495651112,-4.23741874446852,-296.840876491592
738504.44852293585427105427,-1.99407940916166,-4.19125949888607,-296.803949095126
738504.44852302630897611380,-1.7909787285989,-3.98815881832331,-296.702398754845
738504.44852311676368117332,-1.80021057771538,-3.98815881832331,-296.776253547777
738504.44852320721838623285,-2.15102084414197,-4.34820093386639,-296.803949095126
738504.44852329767309129238,-2.04947050386059,-4.24665059358501,-296.785485396893
738504.44852338801138103008,-1.9571520126957,-4.16356395153661,-296.813180944243
738504.44852347846608608961,-1.98484756004517,-4.18202764976959,-296.803949095126
738504.44852356892079114914,-2.00331125827815,-4.20049134800256,-296.785485396893
738504.44852365937549620867,-1.92022461622974,-4.12663655507065,-296.79471724601
738504.44852374983020126820,-1.81867427594836,-4.05278176213874,-296.785485396893
738504.44852384028490632772,-1.94792016357921,-4.1727958006531,-296.822412793359
738504.44852393073961138725,-2.00331125827815,-4.24665059358501,-296.76702169866
738504.44852402119431644678,-1.94792016357921,-4.20049134800256,-296.813180944243
738504.44852411164902150631,-1.73558763389996,-4.01585436567278,-296.831644642476
738504.44852420210372656584,-1.85560167241432,-4.16356395153661,-296.785485396893
738504.44852429244201630354,-1.68942838831751,-3.96046327097385,-296.813180944243
738504.44852438289672136307,-1.94792016357921,-4.20972319711905,-296.803949095126
738504.44852447335142642260,-1.96638386181219,-4.20049134800256,-296.822412793359
738504.44852456380613148212,-1.96638386181219,-4.18202764976959,-296.720862453078
738504.44852465426083654165,-1.97561571092868,-4.18202764976959,-296.822412793359
738504.44852474471554160118,-1.92945646534623,-4.11740470595416,-296.776253547777
738504.44852483517024666071,-1.97561571092868,-4.15433210242012,-296.711630603961
738504.44852492562495172024,-1.9571520126957,-4.12663655507065,-296.785485396893
738504.44852501607965677977,-1.83713797418134,-3.9973906674398,-296.76702169866
738504.44852510653436183929,-2.03100680562761,-4.19125949888607,-296.739326151311
738504.44852519687265157700,-2.05870235297708,-4.21895504623554,-296.76702169866
738504.44852528732735663652,-2.09562974944304,-4.2558824427015,-296.730094302194
738504.44852537778206169605,-2.03100680562761,-4.19125949888607,-296.76702169866
738504.44852546823676675558,-1.9571520126957,-4.11740470595416,-296.730094302194
738504.44852555869147181511,-2.00331125827815,-4.16356395153661,-296.739326151311
738504.44852564914617687464,-2.03100680562761,-4.19125949888607,-296.776253547777
738504.44852573960088193417,-2.05870235297708,-4.22818689535203,-296.711630603961
738504.44852583005558699369,-2.03100680562761,-4.20049134800256,-296.776253547777
738504.44852592051029205322,-1.99407940916166,-4.16356395153661,-296.803949095126
738504.44852601096499711275,-2.02177495651112,-4.15433210242012,-296.803949095126
738504.44852610130328685045,-1.9571520126957,-4.09894100772118,-296.720862453078
738504.44852619175799190998,-1.92022461622974,-4.04354991302225,-296.693166905728
738504.44852628221269696951,-1.67096469008454,-3.80352183599353,-296.619312112796
738504.44852637266740202904,-1.36631366924039,-3.88660847804193,-296.591616565447
738504.44852646312210708857,-0.729316080202643,-4.16356395153661,-296.619312112796
738504.44852655357681214809,-0.341578417310099,-4.3389690847499,-296.656239509262
738504.44852664403151720762,-1.01550340281381,-4.56976531266213,-296.76702169866
738504.44852673448622226715,-1.55095065157018,-5.00366222113712,-296.923963133641
738504.44852682494092732668,-1.75405133213294,-5.23445844904935,-296.988586077456
738504.44852691539563238621,-1.81867427594836,-4.97596667378765,-296.914731284524
738504.44852700573392212391,-1.82790612506485,-4.68977935117649,-296.896267586291
738504.44852709618862718344,-1.83713797418134,-4.44975127414777,-296.905499435408
738504.44852718664333224297,-1.93868831446272,-4.39436017944884,-296.923963133641
738504.44852727709803730249,-1.92022461622974,-4.23741874446852,-296.785485396893
738504.44852736755274236202,-1.96638386181219,-4.21895504623554,-296.813180944243
738504.44852745800744742155,-1.96638386181219,-4.20049134800256,-296.822412793359
738504.44852754846215248108,-1.96638386181219,-4.20049134800256,-296.831644642476
738504.44852763891685754061,-1.84636982329783,-4.08970915860469,-296.76702169866
738504.44852772937156260014,-1.75405133213294,-3.9973906674398,-296.76702169866
738504.44852781970985233784,-1.90176091799676,-4.15433210242012,-296.831644642476
738504.44852791016455739737,-1.83713797418134,-4.09894100772118,-296.813180944243
738504.44852800061926245689,-1.83713797418134,-4.10817285683767,-296.711630603961
738504.44852809107396751642,-1.81867427594836,-4.10817285683767,-296.776253547777
738504.44852818152867257595,-1.76328318124943,-4.05278176213874,-296.79471724601
738504.44852827198337763548,-1.74481948301645,-4.05278176213874,-296.702398754845
738504.44852836243808269501,-1.66173284096805,-3.98815881832331,-296.748558000427
738504.44852845289278775454,-1.73558763389996,-4.06201361125523,-296.776253547777
738504.44852854334749281406,-1.62480544450209,-3.96969512009033,-296.702398754845
738504.44852863380219787359,-1.60634174626911,-3.96969512009033,-296.720862453078
738504.44852872414048761129,-1.50479140598773,-3.88660847804193,-296.720862453078
738504.44852881459519267082,-1.51402325510422,-3.92353587450789,-296.757789849544
738504.44852890504989773035,-1.39400921658986,-3.84044923245949,-296.683935056612
738504.44852899550460278988,-1.30169072542497,-3.77582628864406,-296.711630603961
738504.44852908595930784941,-1.14474929044465,-3.6558122501297,-296.683935056612
738504.44852917641401290894,-1.21860408337657,-3.76659443952757,-296.600848414563
738504.44852926686871796846,-1.14474929044465,-3.72043519394513,-296.600848414563
738504.44852935732342302799,-1.12628559221168,-3.72043519394513,-296.58238471633
738504.44852944777812808752,-1.09859004486221,-3.72043519394513,-296.600848414563
738504.44852953823283314705,-1.1078218939787,-3.73889889217811,-296.628543961913
738504.44852962857112288475,-1.17244483779412,-3.80352183599353,-296.647007660146
738504.44852971902582794428,-1.20014038514359,-3.80352183599353,-296.591616565447
738504.44852980948053300381,-1.28322702719199,-3.84968108157598,-296.526993621632
738504.44852989993523806334,-1.44016846217231,-3.93276772362438,-296.665471358379
738504.44852999038994312286,-1.54171880245369,-3.96046327097385,-296.637775811029
738504.44853008084464818239,-1.68019653920103,-4.04354991302225,-296.656239509262
738504.44853017129935324192,-1.74481948301645,-4.06201361125523,-296.674703207495
738504.44853026175405830145,-1.8740653706473,-4.14510025330363,-296.720862453078
738504.44853035220876336098,-1.92945646534623,-4.16356395153661,-296.739326151311
738504.44853044266346842051,-1.94792016357921,-4.1727958006531,-296.813180944243
738504.44853053300175815821,-1.93868831446272,-4.15433210242012,-296.813180944243
738504.44853062345646321774,-1.91099276711325,-4.12663655507065,-296.739326151311
738504.44853071391116827726,-2.00331125827815,-4.20049134800256,-296.76702169866
738504.44853080436587333679,-1.96638386181219,-4.1727958006531,-296.757789849544
738504.44853089482057839632,-1.98484756004517,-4.20049134800256,-296.76702169866
738504.44853098527528345585,-1.98484756004517,-4.19125949888607,-296.76702169866
738504.44853107572998851538,-1.8740653706473,-4.0804773094882,-296.76702169866
738504.44853116618469357491,-1.98484756004517,-4.19125949888607,-296.79471724601
738504.44853125663939863443,-1.96638386181219,-4.1727958006531,-296.803949095126
738504.44853134709410369396,-2.03100680562761,-4.23741874446852,-296.859340189825
738504.44853143743239343166,-2.0402386547441,-4.24665059358501,-296.859340189825
738504.44853152788709849119,-2.00331125827815,-4.21895504623554,-296.831644642476
738504.44853161834180355072,-1.96638386181219,-4.16356395153661,-296.822412793359
738504.44853170879650861025,-1.97561571092868,-4.18202764976959,-296.850108340709
738504.44853179925121366978,-1.89252906888028,-4.09894100772118,-296.831644642476
738504.44853188970591872931,-1.99407940916166,-4.20049134800256,-296.813180944243
738504.44853198016062378883,-1.89252906888028,-4.08970915860469,-296.850108340709
738504.44853207061532884836,-2.00331125827815,-4.20972319711905,-296.868572038942
738504.44853216107003390789,-2.0402386547441,-4.24665059358501,-296.813180944243
738504.44853225140832364559,-2.00331125827815,-4.20049134800256,-296.850108340709
738504.44853234186302870512,-1.9571520126957,-4.15433210242012,-296.859340189825
738504.44853243231773376465,-1.94792016357921,-4.13586840418714,-296.720862453078
738504.44853252277243882418,-2.0402386547441,-4.23741874446852,-296.822412793359
738504.44853261322714388371,-2.07716605121006,-4.26511429181799,-296.859340189825
738504.44853270368184894323,-2.02177495651112,-4.20972319711905,-296.831644642476
738504.44853279413655400276,-1.94792016357921,-4.13586840418714,-296.79471724601
738504.44853288459125906229,-1.89252906888028,-4.07124546037172,-296.850108340709
738504.44853297504596412182,-1.94792016357921,-4.11740470595416,-296.868572038942
738504.44853306550066918135,-2.03100680562761,-4.21895504623554,-296.76702169866
738504.44853315583895891905,-2.06793420209357,-4.24665059358501,-296.822412793359
738504.44853324629366397858,-2.06793420209357,-4.23741874446852,-296.831644642476
738504.44853333674836903811,-2.02177495651112,-4.18202764976959,-296.720862453078
738504.44853342720307409763,-1.99407940916166,-4.16356395153661,-296.79471724601
738504.44853351765777915716,-2.05870235297708,-4.22818689535203,-296.831644642476
738504.44853360811248421669,-2.03100680562761,-4.20049134800256,-296.776253547777
738504.44853369856718927622,-1.99407940916166,-4.15433210242012,-296.776253547777
738504.44853378902189433575,-2.02177495651112,-4.19125949888607,-296.776253547777
738504.44853387947659939528,-1.83713797418134,-3.9973906674398,-296.739326151311
738504.44853396993130445480,-2.03100680562761,-4.19125949888607,-296.748558000427
738504.44853406026959419250,-2.05870235297708,-4.22818689535203,-296.720862453078
738504.44853415072429925203,-2.02177495651112,-4.19125949888607,-296.720862453078
738504.44853424117900431156,-2.04947050386059,-4.19125949888607,-296.720862453078
738504.44853433163370937109,-2.04947050386059,-4.20972319711905,-296.739326151311
738504.44853442208841443062,-2.10486159855953,-4.29280983916745,-296.720862453078
738504.44853451254311949015,-2.03100680562761,-4.19125949888607,-296.739326151311
738504.44853460299782454967,-2.07716605121006,-4.22818689535203,-296.79471724601
738504.44853469345252960920,-1.80021057771538,-3.92353587450789,-296.739326151311
738504.44853478390723466873,-1.93868831446272,-4.08970915860469,-296.748558000427
738504.44853487436193972826,-2.19718008972442,-4.32973723563341,-296.76702169866
738504.44853496470022946596,-2.17871639149144,-4.32050538651692,-296.831644642476
738504.44853505515493452549,-2.07716605121006,-4.21895504623554,-296.76702169866
738504.44853514560963958502,-2.08639790032655,-4.22818689535203,-296.776253547777
738504.44853523606434464455,-2.09562974944304,-4.24665059358501,-296.785485396893
738504.44853532651904970407,-2.09562974944304,-4.26511429181799,-296.803949095126
738504.44853541697375476360,-2.04947050386059,-4.22818689535203,-296.822412793359
738504.44853550742845982313,-1.99407940916166,-4.18202764976959,-296.822412793359
738504.44853559788316488266,-1.92945646534623,-4.16356395153661,-296.840876491592
738504.44853568833786994219,-1.92022461622974,-4.1727958006531,-296.859340189825
738504.44853577879257500172,-1.9571520126957,-4.1727958006531,-296.776253547777
738504.44853586913086473942,-1.90176091799676,-4.08970915860469,-296.840876491592
738504.44853595958556979895,-2.0402386547441,-4.21895504623554,-296.840876491592
738504.44853605004027485847,-2.04947050386059,-4.19125949888607,-296.831644642476
738504.44853614049497991800,-2.0402386547441,-4.1727958006531,-296.840876491592
738504.44853623094968497753,-2.0402386547441,-4.15433210242012,-296.868572038942
738504.44853632140439003706,-2.05870235297708,-4.1727958006531,-296.831644642476
738504.44853641185909509659,-2.11409344767602,-4.23741874446852,-296.757789849544
738504.44853650231380015612,-1.97561571092868,-4.08970915860469,-296.822412793359
738504.44853659276850521564,-2.11409344767602,-4.22818689535203,-296.850108340709
738504.44853668310679495335,-2.13255714590899,-4.2558824427015,-296.822412793359
738504.44853677356150001287,-2.04947050386059,-4.15433210242012,-296.647007660146
738504.44853686401620507240,-2.18794824060793,-4.30204168828394,-296.776253547777
738504.44853695447091013193,-2.10486159855953,-4.21895504623554,-296.822412793359
738504.44853704492561519146,-2.1233252967925,-4.23741874446852,-296.785485396893
738504.44853713538032025099,-2.14178899502548,-4.2558824427015,-296.840876491592
738504.44853722583502531052,-1.97561571092868,-4.08970915860469,-296.850108340709
738504.44853731628973037004,-2.08639790032655,-4.21895504623554,-296.868572038942
738504.44853740674443542957,-2.14178899502548,-4.26511429181799,-296.79471724601
738504.44853749719914048910,-2.08639790032655,-4.1727958006531,-296.840876491592
738504.44853758753743022680,-2.04947050386059,-4.14510025330363,-296.831644642476
738504.44853767799213528633,-1.97561571092868,-4.06201361125523,-296.720862453078
738504.44853776844684034586,-1.80021057771538,-3.89584032715842,-296.76702169866
738504.44853785890154540539,-1.51402325510422,-4.00662251655629,-296.757789849544
738504.44853794935625046492,-0.673924985503708,-4.06201361125523,-296.730094302194
738504.44853803981095552444,-0.43389690847499,-4.37589648121586,-296.720862453078
738504.44853813026566058397,-1.17244483779412,-4.70824304940947,-296.877803888058
738504.44853822072036564350,-1.60634174626911,-5.04982146671956,-297.025513473922
738504.44853831117507070303,-1.7909787285989,-5.2713858455153,-297.071672719504
738504.44853840162977576256,-1.91099276711325,-5.06828516495254,-297.025513473922
738504.44853849196806550026,-1.89252906888028,-4.7636341441084,-296.970122379223
738504.44853858242277055979,-1.90176091799676,-4.48667867061373,-296.942426831873
738504.44853867287747561932,-1.84636982329783,-4.2558824427015,-296.840876491592
738504.44853876333218067884,-1.83713797418134,-4.11740470595416,-296.76702169866
738504.44853885378688573837,-2.11409344767602,-4.3389690847499,-296.739326151311
738504.44853894424159079790,-2.07716605121006,-4.28357799005097,-296.720862453078
738504.44853903469629585743,-2.06793420209357,-4.27434614093448,-296.757789849544
738504.44853912515100091696,-2.09562974944304,-4.30204168828394,-296.748558000427
738504.44853921560570597649,-1.94792016357921,-4.15433210242012,-296.702398754845
738504.44853930606041103601,-1.86483352153081,-4.0804773094882,-296.711630603961
738504.44853939639870077372,-1.80944242683187,-4.02508621478927,-296.748558000427
738504.44853948685340583324,-1.74481948301645,-3.96046327097385,-296.757789849544
738504.44853957730811089277,-2.02177495651112,-4.27434614093448,-296.748558000427
738504.44853966776281595230,-1.90176091799676,-4.15433210242012,-296.76702169866
738504.44853975821752101183,-1.78174687948241,-4.02508621478927,-296.748558000427
738504.44853984867222607136,-1.71712393566698,-4.00662251655629,-296.693166905728
738504.44853993912693113089,-1.84636982329783,-4.14510025330363,-296.757789849544
738504.44854002958163619041,-1.73558763389996,-4.04354991302225,-296.739326151311
738504.44854012003634124994,-1.65250099185156,-3.96969512009033,-296.720862453078
738504.44854021049104630947,-1.57864619891964,-3.90507217627491,-296.702398754845
738504.44854030082933604717,-1.62480544450209,-3.98815881832331,-296.554689168981
738504.44854039128404110670,-1.55095065157018,-3.94199957274087,-296.619312112796
738504.44854048173874616623,-1.4494003112888,-3.88660847804193,-296.637775811029
738504.44854057219345122576,-1.30169072542497,-3.76659443952757,-296.665471358379
738504.44854066264815628529,-1.34784997100742,-3.84044923245949,-296.656239509262
738504.44854075310286134481,-1.31092257454146,-3.831217383343,-296.656239509262
738504.44854084355756640434,-1.1909085360271,-3.72966704306162,-296.61008026368
738504.44854093401227146387,-1.20014038514359,-3.78505813776055,-296.647007660146
738504.44854102446697652340,-1.07089449751274,-3.66504409924619,-296.647007660146
738504.44854111480526626110,-1.21860408337657,-3.831217383343,-296.61008026368
738504.44854120525997132063,-1.31092257454146,-3.89584032715842,-296.693166905728
738504.44854129571467638016,-1.32938627277444,-3.85891293069246,-296.702398754845
738504.44854138616938143969,-1.58787804803613,-4.05278176213874,-296.720862453078
738504.44854147662408649921,-1.66173284096805,-4.06201361125523,-296.720862453078
738504.44854156707879155874,-1.77251503036592,-4.11740470595416,-296.776253547777
738504.44854165753349661827,-1.84636982329783,-4.13586840418714,-296.785485396893
738504.44854174798820167780,-1.92022461622974,-4.1727958006531,-296.76702169866
738504.44854183844290673733,-1.94792016357921,-4.1727958006531,-296.79471724601
738504.44854192889761179686,-1.93868831446272,-4.14510025330363,-296.803949095126
738504.44854201923590153456,-2.03100680562761,-4.22818689535203,-296.757789849544
738504.44854210969060659409,-1.96638386181219,-4.14510025330363,-296.79471724601
738504.44854220014531165361,-2.0402386547441,-4.23741874446852,-296.803949095126
738504.44854229060001671314,-1.85560167241432,-4.04354991302225,-296.757789849544
738504.44854238105472177267,-2.17871639149144,-4.35743278298288,-296.803949095126
738504.44854247150942683220,-2.1233252967925,-4.30204168828394,-296.776253547777
738504.44854256196413189173,-2.03100680562761,-4.21895504623554,-296.803949095126
738504.44854265241883695126,-2.01254310739463,-4.19125949888607,-296.739326151311
738504.44854274287354201078,-2.06793420209357,-4.23741874446852,-296.748558000427
738504.44854283332824707031,-2.03100680562761,-4.20972319711905,-296.739326151311
738504.44854292366653680801,-2.05870235297708,-4.23741874446852,-296.785485396893
738504.44854301412124186754,-2.0402386547441,-4.22818689535203,-296.776253547777
738504.44854310457594692707,-2.02177495651112,-4.20972319711905,-296.803949095126
738504.44854319503065198660,-2.0402386547441,-4.21895504623554,-296.803949095126
738504.44854328548535704613,-2.01254310739463,-4.19125949888607,-296.831644642476
738504.44854337594006210566,-2.06793420209357,-4.24665059358501,-296.803949095126
738504.44854346639476716518,-2.06793420209357,-4.24665059358501,-296.79471724601
738504.44854355684947222471,-2.10486159855953,-4.27434614093448,-296.76702169866
738504.44854364730417728424,-2.06793420209357,-4.24665059358501,-296.776253547777
738504.44854373775888234377,-2.04947050386059,-4.21895504623554,-296.785485396893
738504.44854382809717208147,-2.01254310739463,-4.18202764976959,-296.61008026368
738504.44854391855187714100,-2.08639790032655,-4.2558824427015,-296.748558000427
738504.44854400900658220053,-2.01254310739463,-4.18202764976959,-296.831644642476
738504.44854409946128726006,-1.92022461622974,-4.07124546037172,-296.748558000427
738504.44854418991599231958,-2.0402386547441,-4.20049134800256,-296.79471724601
738504.44854428037069737911,-2.08639790032655,-4.2558824427015,-296.840876491592
738504.44854437082540243864,-2.09562974944304,-4.27434614093448,-296.850108340709
738504.44854446128010749817,-2.11409344767602,-4.28357799005097,-296.831644642476
738504.44854455173481255770,-2.10486159855953,-4.26511429181799,-296.822412793359
738504.44854464207310229540,-2.0402386547441,-4.19125949888607,-296.803949095126
738504.44854473252780735493,-2.05870235297708,-4.22818689535203,-296.785485396893
738504.44854482298251241446,-1.96638386181219,-4.11740470595416,-296.803949095126
738504.44854491343721747398,-2.00331125827815,-4.15433210242012,-296.803949095126
738504.44854500389192253351,-2.17871639149144,-4.3389690847499,-296.813180944243
738504.44854509434662759304,-2.00331125827815,-4.14510025330363,-296.776253547777
738504.44854518480133265257,-2.1233252967925,-4.27434614093448,-296.803949095126
738504.44854527525603771210,-2.08639790032655,-4.23741874446852,-296.813180944243
738504.44854536571074277163,-2.03100680562761,-4.19125949888607,-296.739326151311
738504.44854545616544783115,-2.04947050386059,-4.20972319711905,-296.813180944243
738504.44854554650373756886,-2.13255714590899,-4.28357799005097,-296.822412793359
738504.44854563695844262838,-2.02177495651112,-4.1727958006531,-296.785485396893
738504.44854572741314768791,-2.15102084414197,-4.30204168828394,-296.813180944243
738504.44854581786785274744,-2.02177495651112,-4.16356395153661,-296.803949095126
738504.44854590832255780697,-2.06793420209357,-4.20972319711905,-296.803949095126
738504.44854599877726286650,-2.19718008972442,-4.3389690847499,-296.813180944243
738504.44854608923196792603,-2.07716605121006,-4.20972319711905,-296.822412793359
738504.44854617968667298555,-2.08639790032655,-4.23741874446852,-296.813180944243
738504.44854627014137804508,-2.09562974944304,-4.22818689535203,-296.79471724601
738504.44854636059608310461,-2.06793420209357,-4.20049134800256,-296.785485396893
738504.44854645093437284231,-2.08639790032655,-4.21895504623554,-296.813180944243
738504.44854654138907790184,-1.93868831446272,-4.06201361125523,-296.803949095126
738504.44854663184378296137,-2.19718008972442,-4.3389690847499,-296.822412793359
738504.44854672229848802090,-2.15102084414197,-4.28357799005097,-296.822412793359
738504.44854681275319308043,-2.11409344767602,-4.23741874446852,-296.813180944243
738504.44854690320789813995,-2.06793420209357,-4.19125949888607,-296.803949095126
738504.44854699366260319948,-2.1233252967925,-4.2558824427015,-296.730094302194
738504.44854708411730825901,-2.11409344767602,-4.24665059358501,-296.813180944243
738504.44854717457201331854,-2.03100680562761,-4.14510025330363,-296.79471724601
738504.44854726502671837807,-2.04947050386059,-4.19125949888607,-296.76702169866
738504.44854735536500811577,-2.06793420209357,-4.21895504623554,-296.647007660146
738504.44854744581971317530,-1.97561571092868,-4.10817285683767,-296.683935056612
738504.44854753627441823483,-2.13255714590899,-4.2558824427015,-296.76702169866
738504.44854762672912329435,-2.16948454237495,-4.32050538651692,-296.76702169866
738504.44854771718382835388,-2.16948454237495,-4.31127353740043,-296.785485396893
738504.44854780763853341341,-2.01254310739463,-4.14510025330363,-296.757789849544
738504.44854789809323847294,-1.97561571092868,-4.0804773094882,-296.739326151311
738504.44854798854794353247,-2.14178899502548,-4.27434614093448,-296.822412793359
738504.44854807900264859200,-2.06793420209357,-4.19125949888607,-296.822412793359
738504.44854816945735365152,-2.24333933530686,-4.37589648121586,-296.822412793359
738504.44854825979564338923,-2.16025269325846,-4.30204168828394,-296.785485396893
738504.44854835025034844875,-1.97561571092868,-4.11740470595416,-296.813180944243
738504.44854844070505350828,-2.15102084414197,-4.31127353740043,-296.822412793359
738504.44854853115975856781,-2.16025269325846,-4.34820093386639,-296.803949095126
738504.44854862161446362734,-2.08639790032655,-4.27434614093448,-296.813180944243
738504.44854871206916868687,-1.98484756004517,-4.18202764976959,-296.813180944243
738504.44854880252387374640,-2.01254310739463,-4.24665059358501,-296.785485396893
738504.44854889297857880592,-1.92945646534623,-4.15433210242012,-296.803949095126
738504.44854898343328386545,-1.86483352153081,-4.05278176213874,-296.813180944243
738504.44854907377157360315,-2.07716605121006,-4.23741874446852,-296.803949095126
738504.44854916422627866268,-2.17871639149144,-4.32050538651692,-296.785485396893
738504.44854925468098372221,-2.10486159855953,-4.27434614093448,-296.803949095126
738504.44854934513568878174,-2.14178899502548,-4.27434614093448,-296.803949095126
738504.44854943559039384127,-2.11409344767602,-4.24665059358501,-296.76702169866
738504.44854952604509890079,-2.1233252967925,-4.24665059358501,-296.813180944243
738504.44854961649980396032,-2.13255714590899,-4.26511429181799,-296.813180944243
738504.44854970695450901985,-2.15102084414197,-4.2558824427015,-296.79471724601
738504.44854979740921407938,-2.09562974944304,-4.20972319711905,-296.813180944243
738504.44854988786391913891,-1.99407940916166,-4.10817285683767,-296.803949095126
738504.44854997820220887661,-2.13255714590899,-4.24665059358501,-296.813180944243
738504.44855006865691393614,-2.11409344767602,-4.22818689535203,-296.785485396893
738504.44855015911161899567,-2.15102084414197,-4.27434614093448,-296.822412793359
738504.44855024956632405519,-2.22487563707389,-4.35743278298288,-296.813180944243
738504.44855034002102911472,-2.1233252967925,-4.23741874446852,-296.776253547777
738504.44855043047573417425,-2.17871639149144,-4.30204168828394,-296.776253547777
738504.44855052093043923378,-2.09562974944304,-4.23741874446852,-296.739326151311
738504.44855061138514429331,-1.93868831446272,-4.02508621478927,-296.720862453078
738504.44855070183984935284,-2.23410748619037,-4.34820093386639,-296.739326151311
738504.44855079229455441236,-2.1233252967925,-4.22818689535203,-296.711630603961
738504.44855088263284415007,-1.92022461622974,-3.98815881832331,-296.58238471633
738504.44855097308754920959,-1.62480544450209,-3.9143040253914,-296.573152867214
738504.44855106354225426912,-1.03396710104678,-4.14510025330363,-296.656239509262
738504.44855115399695932865,-0.470824304940947,-4.39436017944884,-296.693166905728
738504.44855124445166438818,-0.849330118717002,-4.64362010559404,-296.813180944243
738504.44855133490636944771,-1.46786400952177,-4.92057557908872,-296.970122379223
738504.44855142536107450724,-1.74481948301645,-5.28061769463179,-297.016281624805
738504.44855151581577956676,-1.92022461622974,-5.17906735435041,-297.016281624805
738504.44855160627048462629,-1.86483352153081,-4.81902523880734,-296.95165868099
738504.44855169672518968582,-1.98484756004517,-4.62515640736106,-296.95165868099
738504.44855178706347942352,-1.97561571092868,-4.44051942503128,-296.850108340709
738504.44855187751818448305,-2.06793420209357,-4.38512833033235,-296.822412793359
738504.44855196797288954258,-2.09562974944304,-4.36666463209937,-296.79471724601
738504.44855205842759460211,-2.1233252967925,-4.32973723563341,-296.785485396893
738504.44855214888229966164,-2.06793420209357,-4.26511429181799,-296.776253547777
738504.44855223933700472116,-1.98484756004517,-4.18202764976959,-296.79471724601
738504.44855232979170978069,-2.01254310739463,-4.22818689535203,-296.803949095126
738504.44855242024641484022,-1.93868831446272,-4.15433210242012,-296.785485396893
738504.44855251070111989975,-1.90176091799676,-4.12663655507065,-296.822412793359
738504.44855260115582495928,-1.86483352153081,-4.0804773094882,-296.822412793359
738504.44855269149411469698,-1.98484756004517,-4.23741874446852,-296.822412793359
738504.44855278194881975651,-1.93868831446272,-4.19125949888607,-296.785485396893
738504.44855287240352481604,-1.92022461622974,-4.1727958006531,-296.803949095126
738504.44855296285822987556,-1.86483352153081,-4.13586840418714,-296.79471724601
738504.44855305331293493509,-1.7909787285989,-4.07124546037172,-296.748558000427
738504.44855314376763999462,-1.68019653920103,-3.96046327097385,-296.757789849544
738504.44855323422234505415,-1.74481948301645,-4.05278176213874,-296.776253547777
738504.44855332467705011368,-1.63403729361858,-3.94199957274087,-296.739326151311
738504.44855341513175517321,-1.49555955687124,-3.81275368511002,-296.693166905728
738504.44855350547004491091,-1.63403729361858,-3.9973906674398,-296.748558000427
738504.44855359592474997044,-1.56941434980316,-3.97892696920682,-296.748558000427
738504.44855368637945502996,-1.39400921658986,-3.831217383343,-296.637775811029
738504.44855377683416008949,-1.40324106570635,-3.86814477980895,-296.693166905728
738504.44855386728886514902,-1.34784997100742,-3.831217383343,-296.730094302194
738504.44855395774357020855,-1.2739951780755,-3.79428998687704,-296.711630603961
738504.44855404819827526808,-1.22783593249306,-3.77582628864406,-296.647007660146
738504.44855413865298032761,-1.00627155369732,-3.5727256080813,-296.665471358379
738504.44855422910768538713,-1.12628559221168,-3.70197149571215,-296.683935056612
738504.44855431956239044666,-1.38477736747337,-3.96969512009033,-296.647007660146
738504.44855440990068018436,-1.44016846217231,-3.98815881832331,-296.647007660146
738504.44855450035538524389,-1.46786400952177,-3.96046327097385,-296.637775811029
738504.44855459081009030342,-1.62480544450209,-4.05278176213874,-296.693166905728
738504.44855468126479536295,-1.78174687948241,-4.14510025330363,-296.720862453078
738504.44855477171950042248,-1.83713797418134,-4.14510025330363,-296.730094302194
738504.44855486217420548201,-1.8740653706473,-4.13586840418714,-296.730094302194
738504.44855495262891054153,-1.97561571092868,-4.21895504623554,-296.748558000427
738504.44855504308361560106,-1.96638386181219,-4.18202764976959,-296.76702169866
738504.44855513353832066059,-1.86483352153081,-4.05278176213874,-296.803949095126
738504.44855522399302572012,-2.08639790032655,-4.29280983916745,-296.776253547777
738504.44855531433131545782,-2.10486159855953,-4.30204168828394,-296.859340189825
738504.44855540478602051735,-2.0402386547441,-4.22818689535203,-296.76702169866
738504.44855549524072557688,-2.09562974944304,-4.28357799005097,-296.76702169866
738504.44855558569543063641,-2.13255714590899,-4.32050538651692,-296.757789849544
738504.44855567615013569593,-2.11409344767602,-4.31127353740043,-296.785485396893
738504.44855576660484075546,-2.09562974944304,-4.27434614093448,-296.803949095126
738504.44855585705954581499,-2.03100680562761,-4.21895504623554,-296.785485396893
738504.44855594751425087452,-2.05870235297708,-4.24665059358501,-296.748558000427
738504.44855603796895593405,-1.98484756004517,-4.16356395153661,-296.757789849544
738504.44855612842366099358,-1.94792016357921,-4.12663655507065,-296.776253547777
738504.44855621876195073128,-2.18794824060793,-4.37589648121586,-296.803949095126
738504.44855630921665579081,-2.14178899502548,-4.32973723563341,-296.850108340709
738504.44855639967136085033,-2.13255714590899,-4.32050538651692,-296.803949095126
738504.44855649012606590986,-2.08639790032655,-4.27434614093448,-296.813180944243
738504.44855658058077096939,-2.07716605121006,-4.2558824427015,-296.776253547777
738504.44855667103547602892,-2.06793420209357,-4.24665059358501,-296.822412793359
738504.44855676149018108845,-2.09562974944304,-4.27434614093448,-296.813180944243
738504.44855685194488614798,-2.05870235297708,-4.23741874446852,-296.822412793359
738504.44855694239959120750,-2.01254310739463,-4.1727958006531,-296.868572038942
738504.44855703285429626703,-2.06793420209357,-4.22818689535203,-296.76702169866
738504.44855712319258600473,-2.1233252967925,-4.29280983916745,-296.850108340709
738504.44855721364729106426,-2.08639790032655,-4.24665059358501,-296.850108340709
738504.44855730410199612379,-2.01254310739463,-4.16356395153661,-296.822412793359
738504.44855739455670118332,-2.16025269325846,-4.32050538651692,-296.859340189825
738504.44855748501140624285,-2.14178899502548,-4.29280983916745,-296.850108340709
738504.44855757546611130238,-2.06793420209357,-4.21895504623554,-296.877803888058
738504.44855766592081636190,-2.07716605121006,-4.23741874446852,-296.822412793359
738504.44855775637552142143,-2.11409344767602,-4.27434614093448,-296.859340189825
738504.44855784683022648096,-2.13255714590899,-4.28357799005097,-296.859340189825
738504.44855793716851621866,-2.13255714590899,-4.28357799005097,-296.748558000427
738504.44855802762322127819,-2.11409344767602,-4.26511429181799,-296.739326151311
738504.44855811807792633772,-2.06793420209357,-4.20972319711905,-296.868572038942
738504.44855820853263139725,-1.96638386181219,-4.10817285683767,-296.785485396893
738504.44855829898733645678,-2.1233252967925,-4.27434614093448,-296.850108340709
738504.44855838944204151630,-2.17871639149144,-4.32973723563341,-296.877803888058
738504.44855847989674657583,-2.15102084414197,-4.29280983916745,-296.803949095126
738504.44855857035145163536,-2.11409344767602,-4.24665059358501,-296.868572038942
738504.44855866080615669489,-2.11409344767602,-4.26511429181799,-296.850108340709
738504.44855875126086175442,-2.10486159855953,-4.24665059358501,-296.850108340709
738504.44855884159915149212,-2.09562974944304,-4.24665059358501,-296.831644642476
738504.44855893205385655165,-2.09562974944304,-4.23741874446852,-296.859340189825
738504.44855902250856161118,-2.07716605121006,-4.21895504623554,-296.822412793359
738504.44855911296326667070,-2.10486159855953,-4.24665059358501,-296.803949095126
738504.44855920341797173023,-2.09562974944304,-4.24665059358501,-296.76702169866
738504.44855929387267678976,-2.07716605121006,-4.21895504623554,-296.776253547777
738504.44855938432738184929,-2.09562974944304,-4.23741874446852,-296.785485396893
738504.44855947478208690882,-2.10486159855953,-4.24665059358501,-296.79471724601
738504.44855956523679196835,-2.05870235297708,-4.20049134800256,-296.79471724601
738504.44855965569149702787,-2.08639790032655,-4.22818689535203,-296.757789849544
738504.44855974602978676558,-2.13255714590899,-4.27434614093448,-296.76702169866
738504.44855983648449182510,-2.09562974944304,-4.23741874446852,-296.822412793359
738504.44855992693919688463,-2.0402386547441,-4.1727958006531,-296.822412793359
738504.44856001739390194416,-2.13255714590899,-4.28357799005097,-296.850108340709
738504.44856010784860700369,-2.13255714590899,-4.27434614093448,-296.859340189825
738504.44856019830331206322,-2.1233252967925,-4.2558824427015,-296.76702169866
738504.44856028875801712275,-2.10486159855953,-4.23741874446852,-296.730094302194
738504.44856037921272218227,-2.10486159855953,-4.23741874446852,-296.748558000427
738504.44856046966742724180,-2.09562974944304,-4.22818689535203,-296.76702169866
738504.44856056012213230133,-2.10486159855953,-4.22818689535203,-296.76702169866
738504.44856065046042203903,-2.08639790032655,-4.21895504623554,-296.76702169866
738504.44856074091512709856,-2.09562974944304,-4.23741874446852,-296.730094302194
738504.44856083136983215809,-2.04947050386059,-4.18202764976959,-296.757789849544
738504.44856092182453721762,-2.08639790032655,-4.21895504623554,-296.76702169866
738504.44856101227924227715,-2.08639790032655,-4.20972319711905,-296.76702169866
738504.44856110273394733667,-2.11409344767602,-4.24665059358501,-296.850108340709
738504.44856119318865239620,-2.13255714590899,-4.26511429181799,-296.831644642476
738504.44856128364335745573,-2.11409344767602,-4.24665059358501,-296.840876491592
738504.44856137409806251526,-2.11409344767602,-4.23741874446852,-296.803949095126
738504.44856146455276757479,-2.10486159855953,-4.22818689535203,-296.831644642476
738504.44856155489105731249,-2.07716605121006,-4.20049134800256,-296.730094302194
738504.44856164534576237202,-2.08639790032655,-4.20972319711905,-296.803949095126
738504.44856173580046743155,-2.10486159855953,-4.22818689535203,-296.868572038942
738504.44856182625517249107,-2.09562974944304,-4.20972319711905,-296.840876491592
738504.44856191670987755060,-2.08639790032655,-4.20049134800256,-296.785485396893
738504.44856200716458261013,-2.07716605121006,-4.19125949888607,-296.850108340709
738504.44856209761928766966,-2.05870235297708,-4.18202764976959,-296.877803888058
738504.44856218807399272919,-2.09562974944304,-4.24665059358501,-296.840876491592
738504.44856227852869778872,-2.07716605121006,-4.23741874446852,-296.840876491592
738504.44856236886698752642,-2.03100680562761,-4.20049134800256,-296.859340189825
738504.44856245932169258595,-2.03100680562761,-4.19125949888607,-296.831644642476
738504.44856254977639764547,-1.99407940916166,-4.16356395153661,-296.776253547777
738504.44856264023110270500,-1.9571520126957,-4.14510025330363,-296.859340189825
738504.44856273068580776453,-1.99407940916166,-4.16356395153661,-296.877803888058
738504.44856282114051282406,-2.04947050386059,-4.18202764976959,-296.76702169866
738504.44856291159521788359,-2.10486159855953,-4.21895504623554,-296.850108340709
738504.44856300204992294312,-2.09562974944304,-4.21895504623554,-296.859340189825
738504.44856309250462800264,-2.11409344767602,-4.21895504623554,-296.840876491592
738504.44856318295933306217,-2.1233252967925,-4.22818689535203,-296.79471724601
738504.44856327329762279987,-2.13255714590899,-4.21895504623554,-296.887035737175
738504.44856336375232785940,-2.14178899502548,-4.20972319711905,-296.877803888058
738504.44856345420703291893,-2.1233252967925,-4.19125949888607,-296.76702169866
738504.44856354466173797846,-2.09562974944304,-4.16356395153661,-296.76702169866
738504.44856363511644303799,-2.13255714590899,-4.20049134800256,-296.79471724601
738504.44856372557114809752,-2.16025269325846,-4.23741874446852,-296.813180944243
738504.44856381602585315704,-2.11409344767602,-4.18202764976959,-296.785485396893
738504.44856390648055821657,-2.08639790032655,-4.16356395153661,-296.79471724601
738504.44856399693526327610,-2.19718008972442,-4.28357799005097,-296.822412793359
738504.44856408738996833563,-2.17871639149144,-4.26511429181799,-296.822412793359
738504.44856417772825807333,-2.08639790032655,-4.1727958006531,-296.840876491592
738504.44856426818296313286,-2.16025269325846,-4.24665059358501,-296.822412793359
738504.44856435863766819239,-2.17871639149144,-4.24665059358501,-296.877803888058
738504.44856444909237325191,-2.14178899502548,-4.19125949888607,-296.785485396893
738504.44856453954707831144,-2.07716605121006,-4.11740470595416,-296.776253547777
738504.44856463000178337097,-1.9571520126957,-3.95123142185736,-296.702398754845
738504.44856472045648843050,-1.68942838831751,-3.84968108157598,-296.647007660146
738504.44856481091119349003,-1.15398113956114,-3.97892696920682,-296.665471358379
738504.44856490136589854956,-0.54467909787286,-4.16356395153661,-296.656239509262
738504.44856499182060360909,-0.913953062532426,-4.4220557267983,-296.637775811029
738504.44856508215889334679,-1.38477736747337,-4.60669270912809,-296.702398754845
738504.44856517261359840631,-1.7909787285989,-4.98519852290414,-296.960890530106
738504.44856526306830346584,-1.98484756004517,-5.23445844904935,-297.034745323038
738504.44856535352300852537,-1.99407940916166,-4.96673482467116,-297.025513473922
738504.44856544397771358490,-1.93868831446272,-4.68977935117649,-296.997817926572
738504.44856553443241864443,-1.99407940916166,-4.48667867061373,-296.933194982757
738504.44856562488712370396,-2.00331125827815,-4.34820093386639,-296.896267586291
738504.44856571534182876348,-2.04947050386059,-4.27434614093448,-296.896267586291
738504.44856580579653382301,-2.05870235297708,-4.21895504623554,-296.840876491592
738504.44856589625123888254,-2.03100680562761,-4.14510025330363,-296.813180944243
738504.44856598658952862024,-1.98484756004517,-4.10817285683767,-296.831644642476
738504.44856607704423367977,-2.04947050386059,-4.20972319711905,-296.813180944243
738504.44856616749893873930,-2.05870235297708,-4.22818689535203,-296.785485396893
738504.44856625795364379883,-2.01254310739463,-4.18202764976959,-296.840876491592
738504.44856634840834885836,-1.94792016357921,-4.13586840418714,-296.831644642476
738504.44856643886305391788,-1.92022461622974,-4.11740470595416,-296.803949095126
738504.44856652931775897741,-1.86483352153081,-4.0804773094882,-296.803949095126
738504.44856661977246403694,-1.88329721976379,-4.09894100772118,-296.803949095126
738504.44856671022716909647,-1.85560167241432,-4.06201361125523,-296.776253547777
738504.44856680056545883417,-1.75405133213294,-3.96969512009033,-296.702398754845
738504.44856689102016389370,-1.72635578478347,-3.95123142185736,-296.757789849544
738504.44856698147486895323,-1.76328318124943,-4.01585436567278,-296.702398754845
738504.44856707192957401276,-1.74481948301645,-3.9973906674398,-296.702398754845
738504.44856716238427907228,-1.72635578478347,-4.01585436567278,-296.674703207495
738504.44856725283898413181,-1.62480544450209,-3.95123142185736,-296.711630603961
738504.44856734329368919134,-1.55095065157018,-3.89584032715842,-296.730094302194
738504.44856743374839425087,-1.48632770775475,-3.86814477980895,-296.711630603961
738504.44856752420309931040,-1.40324106570635,-3.81275368511002,-296.711630603961
738504.44856761465780436993,-1.22783593249306,-3.67427594836268,-296.665471358379
738504.44856770499609410763,-1.24629963072604,-3.74813074129459,-296.61008026368
738504.44856779545079916716,-1.31092257454146,-3.831217383343,-296.573152867214
738504.44856788590550422668,-1.23706778160955,-3.78505813776055,-296.58238471633
738504.44856797636020928621,-1.28322702719199,-3.84044923245949,-296.58238471633
738504.44856806681491434574,-1.31092257454146,-3.85891293069246,-296.600848414563
738504.44856815726961940527,-1.30169072542497,-3.82198553422651,-296.619312112796
738504.44856824772432446480,-1.47709585863826,-3.95123142185736,-296.647007660146
738504.44856833817902952433,-1.6155735953856,-4.02508621478927,-296.711630603961
738504.44856842863373458385,-1.71712393566698,-4.05278176213874,-296.720862453078
738504.44856851908843964338,-1.82790612506485,-4.08970915860469,-296.61008026368
738504.44856860942672938108,-1.91099276711325,-4.12663655507065,-296.693166905728
738504.44856869988143444061,-1.94792016357921,-4.13586840418714,-296.757789849544
738504.44856879033613950014,-1.91099276711325,-4.0804773094882,-296.813180944243
738504.44856888079084455967,-1.93868831446272,-4.08970915860469,-296.79471724601
738504.44856897124554961920,-2.06793420209357,-4.20972319711905,-296.822412793359
738504.44856906170025467873,-2.11409344767602,-4.22818689535203,-296.822412793359
738504.44856915215495973825,-2.06793420209357,-4.20049134800256,-296.748558000427
738504.44856924260966479778,-2.11409344767602,-4.23741874446852,-296.757789849544
738504.44856933306436985731,-2.10486159855953,-4.23741874446852,-296.840876491592
738504.44856942351907491684,-2.09562974944304,-4.20972319711905,-296.803949095126
738504.44856951385736465454,-2.09562974944304,-4.21895504623554,-296.803949095126
738504.44856960431206971407,-2.07716605121006,-4.20049134800256,-296.859340189825
738504.44856969476677477360,-2.05870235297708,-4.18202764976959,-296.868572038942
738504.44856978522147983313,-2.04947050386059,-4.18202764976959,-296.831644642476
738504.44856987567618489265,-2.05870235297708,-4.19125949888607,-296.785485396893
738504.44856996613088995218,-2.06793420209357,-4.18202764976959,-296.840876491592
738504.44857005658559501171,-2.10486159855953,-4.21895504623554,-296.840876491592
738504.44857014704030007124,-2.05870235297708,-4.1727958006531,-296.79471724601
738504.44857023749500513077,-2.08639790032655,-4.20972319711905,-296.850108340709
738504.44857032794971019030,-2.06793420209357,-4.19125949888607,-296.831644642476
738504.44857041828799992800,-2.01254310739463,-4.13586840418714,-296.822412793359
738504.44857050874270498753,-2.09562974944304,-4.20972319711905,-296.831644642476
738504.44857059919741004705,-2.08639790032655,-4.19125949888607,-296.840876491592
738504.44857068965211510658,-2.10486159855953,-4.20972319711905,-296.868572038942
738504.44857078010682016611,-2.11409344767602,-4.22818689535203,-296.840876491592
738504.44857087056152522564,-2.10486159855953,-4.20972319711905,-296.822412793359
738504.44857096101623028517,-2.09562974944304,-4.19125949888607,-296.877803888058
738504.44857105147093534470,-2.10486159855953,-4.19125949888607,-296.822412793359
738504.44857114192564040422,-2.08639790032655,-4.18202764976959,-296.803949095126
738504.44857123226393014193,-2.07716605121006,-4.1727958006531,-296.813180944243
738504.44857132271863520145,-2.06793420209357,-4.16356395153661,-296.859340189825
738504.44857141317334026098,-2.10486159855953,-4.20049134800256,-296.868572038942
738504.44857150362804532051,-2.09562974944304,-4.18202764976959,-296.813180944243
738504.44857159408275038004,-2.06793420209357,-4.14510025330363,-296.850108340709
738504.44857168453745543957,-2.08639790032655,-4.1727958006531,-296.757789849544
738504.44857177499216049910,-2.11409344767602,-4.20049134800256,-296.822412793359
738504.44857186544686555862,-2.06793420209357,-4.1727958006531,-296.785485396893
738504.44857195590157061815,-2.08639790032655,-4.1727958006531,-296.803949095126
738504.44857204635627567768,-2.13255714590899,-4.20972319711905,-296.637775811029
738504.44857213669456541538,-2.13255714590899,-4.20972319711905,-296.720862453078
738504.44857222714927047491,-2.08639790032655,-4.1727958006531,-296.785485396893
738504.44857231760397553444,-2.10486159855953,-4.18202764976959,-296.813180944243
738504.44857240805868059397,-2.11409344767602,-4.20049134800256,-296.831644642476
738504.44857249851338565350,-2.10486159855953,-4.18202764976959,-296.813180944243
738504.44857258896809071302,-2.10486159855953,-4.18202764976959,-296.757789849544
738504.44857267942279577255,-2.08639790032655,-4.1727958006531,-296.803949095126
738504.44857276987750083208,-2.07716605121006,-4.15433210242012,-296.803949095126
738504.44857286033220589161,-2.07716605121006,-4.15433210242012,-296.785485396893
738504.44857295078691095114,-2.09562974944304,-4.1727958006531,-296.813180944243
738504.44857304112520068884,-2.03100680562761,-4.11740470595416,-296.859340189825
738504.44857313157990574837,-2.1233252967925,-4.20972319711905,-296.831644642476
738504.44857322203461080790,-2.14178899502548,-4.21895504623554,-296.831644642476
738504.44857331248931586742,-2.1233252967925,-4.19125949888607,-296.776253547777
738504.44857340294402092695,-2.08639790032655,-4.1727958006531,-296.868572038942
738504.44857349339872598648,-2.09562974944304,-4.18202764976959,-296.822412793359
738504.44857358385343104601,-2.1233252967925,-4.19125949888607,-296.748558000427
738504.44857367430813610554,-2.05870235297708,-4.13586840418714,-296.831644642476
738504.44857376476284116507,-2.04947050386059,-4.13586840418714,-296.785485396893
738504.44857385521754622459,-2.09562974944304,-4.18202764976959,-296.868572038942
738504.44857394555583596230,-2.05870235297708,-4.15433210242012,-296.868572038942
738504.44857403601054102182,-2.11409344767602,-4.20972319711905,-296.79471724601
738504.44857412646524608135,-2.08639790032655,-4.18202764976959,-296.813180944243
738504.44857421691995114088,-2.03100680562761,-4.12663655507065,-296.840876491592
738504.44857430737465620041,-2.07716605121006,-4.20049134800256,-296.868572038942
738504.44857439782936125994,-2.08639790032655,-4.21895504623554,-296.813180944243
738504.44857448828406631947,-2.08639790032655,-4.22818689535203,-296.840876491592
738504.44857457873877137899,-2.03100680562761,-4.19125949888607,-296.859340189825
738504.44857466919347643852,-1.91099276711325,-4.09894100772118,-296.813180944243
738504.44857475964818149805,-1.73558763389996,-3.93276772362438,-296.803949095126
738504.44857484998647123575,-1.93868831446272,-4.13586840418714,-296.850108340709
738504.44857494044117629528,-1.93868831446272,-4.13586840418714,-296.868572038942
738504.44857503089588135481,-1.97561571092868,-4.15433210242012,-296.868572038942
738504.44857512135058641434,-1.99407940916166,-4.14510025330363,-296.79471724601
738504.44857521180529147387,-2.11409344767602,-4.24665059358501,-296.859340189825
738504.44857530225999653339,-2.14178899502548,-4.27434614093448,-296.850108340709
738504.44857539271470159292,-2.16025269325846,-4.2558824427015,-296.79471724601
738504.44857548316940665245,-2.11409344767602,-4.20972319711905,-296.822412793359
738504.44857557362411171198,-2.06793420209357,-4.16356395153661,-296.711630603961
738504.44857566396240144968,-2.10486159855953,-4.20049134800256,-296.730094302194
738504.44857575441710650921,-2.16948454237495,-4.28357799005097,-296.813180944243
738504.44857584487181156874,-2.1233252967925,-4.24665059358501,-296.831644642476
738504.44857593532651662827,-2.0402386547441,-4.11740470595416,-296.877803888058
738504.44857602578122168779,-2.08639790032655,-4.16356395153661,-296.79471724601
738504.44857611623592674732,-2.20641193884091,-4.27434614093448,-296.850108340709
738504.44857620669063180685,-2.2156437879574,-4.27434614093448,-296.877803888058
738504.44857629714533686638,-2.1233252967925,-4.20049134800256,-296.803949095126
738504.44857638760004192591,-2.15102084414197,-4.2558824427015,-296.776253547777
738504.44857647805474698544,-2.14178899502548,-4.2558824427015,-296.739326151311
738504.44857656839303672314,-2.16025269325846,-4.35743278298288,-296.76702169866
738504.44857665884774178267,-2.14178899502548,-4.30204168828394,-296.739326151311
738504.44857674930244684219,-2.11409344767602,-4.20049134800256,-296.730094302194
738504.44857683975715190172,-1.98484756004517,-3.92353587450789,-296.693166905728
738504.44857693021185696125,-1.88329721976379,-3.85891293069246,-296.665471358379
738504.44857702066656202078,-1.41247291482284,-3.86814477980895,-296.628543961913
738504.44857711112126708031,-0.683156834620197,-4.05278176213874,-296.619312112796
738504.44857720157597213984,-0.590838343455306,-4.32050538651692,-296.702398754845
738504.44857729203067719936,-1.3570818201239,-4.58822901089511,-296.887035737175
738504.44857738248538225889,-1.76328318124943,-4.8467207861568,-297.007049775689
738504.44857747282367199659,-1.92022461622974,-5.05905331583605,-296.997817926572
738504.44857756327837705612,-1.99407940916166,-4.91134372997223,-297.025513473922
738504.44857765373308211565,-1.89252906888028,-4.63438825647755,-296.960890530106
738504.44857774418778717518,-1.93868831446272,-4.43128757591479,-296.896267586291
738504.44857783464249223471,-2.0402386547441,-4.36666463209937,-296.859340189825
738504.44857792509719729424,-2.03100680562761,-4.18202764976959,-296.785485396893
738504.44857801555190235376,-2.02177495651112,-4.19125949888607,-296.776253547777
738504.44857810600660741329,-1.99407940916166,-4.19125949888607,-296.813180944243
738504.44857819646131247282,-2.04947050386059,-4.20972319711905,-296.840876491592
738504.44857828691601753235,-2.01254310739463,-4.22818689535203,-296.877803888058
738504.44857837725430727005,-1.93868831446272,-4.08970915860469,-296.748558000427
738504.44857846770901232958,-1.92945646534623,-4.10817285683767,-296.822412793359
738504.44857855816371738911,-1.94792016357921,-4.21895504623554,-296.822412793359
738504.44857864861842244864,-1.91099276711325,-4.19125949888607,-296.813180944243
738504.44857873907312750816,-1.88329721976379,-4.12663655507065,-296.803949095126
738504.44857882952783256769,-1.85560167241432,-4.23741874446852,-296.831644642476
738504.44857891998253762722,-1.80944242683187,-3.98815881832331,-296.776253547777
738504.44857901043724268675,-1.75405133213294,-3.87737662892544,-296.720862453078
738504.44857910089194774628,-1.74481948301645,-3.93276772362438,-296.647007660146
738504.44857919134665280581,-1.71712393566698,-3.98815881832331,-296.702398754845
738504.44857928168494254351,-1.65250099185156,-3.95123142185736,-296.683935056612
738504.44857937213964760303,-1.49555955687124,-3.831217383343,-296.748558000427
738504.44857946259435266256,-1.56018250068667,-3.93276772362438,-296.739326151311
738504.44857955304905772209,-1.51402325510422,-3.96969512009033,-296.683935056612
738504.44857964350376278162,-1.39400921658986,-3.93276772362438,-296.757789849544
738504.44857973395846784115,-1.30169072542497,-3.87737662892544,-296.711630603961
738504.44857982441317290068,-1.1909085360271,-3.72966704306162,-296.683935056612
738504.44857991486787796021,-1.16321298867763,-3.61888485366375,-296.61008026368
738504.44858000532258301973,-1.13551744132817,-3.6558122501297,-296.665471358379
738504.44858009566087275743,-1.16321298867763,-3.81275368511002,-296.720862453078
738504.44858018611557781696,-1.18167668691061,-3.81275368511002,-296.628543961913
738504.44858027657028287649,-1.22783593249306,-3.84044923245949,-296.683935056612
738504.44858036702498793602,-1.29245887630848,-3.86814477980895,-296.702398754845
738504.44858045747969299555,-1.39400921658986,-3.9143040253914,-296.739326151311
738504.44858054793439805508,-1.51402325510422,-3.9973906674398,-296.683935056612
738504.44858063838910311460,-1.64326914273507,-4.03431806390576,-296.720862453078
738504.44858072884380817413,-1.76328318124943,-4.08970915860469,-296.739326151311
738504.44858081929851323366,-1.82790612506485,-4.12663655507065,-296.76702169866
738504.44858090975321829319,-1.92022461622974,-4.11740470595416,-296.748558000427
738504.44858100009150803089,-1.94792016357921,-4.05278176213874,-296.730094302194
738504.44858109054621309042,-1.98484756004517,-4.06201361125523,-296.730094302194
738504.44858118100091814995,-2.03100680562761,-4.14510025330363,-296.748558000427
738504.44858127145562320948,-2.05870235297708,-4.16356395153661,-296.757789849544
738504.44858136191032826900,-2.05870235297708,-4.16356395153661,-296.776253547777
738504.44858145236503332853,-2.05870235297708,-4.18202764976959,-296.748558000427
738504.44858154281973838806,-2.04947050386059,-4.19125949888607,-296.785485396893
738504.44858163327444344759,-2.0402386547441,-4.20972319711905,-296.803949095126
738504.44858172372914850712,-2.0402386547441,-4.23741874446852,-296.822412793359
738504.44858181418385356665,-2.06793420209357,-4.21895504623554,-296.813180944243
738504.44858190452214330435,-2.05870235297708,-4.15433210242012,-296.831644642476
738504.44858199497684836388,-2.05870235297708,-4.23741874446852,-296.877803888058
738504.44858208543155342340,-2.04947050386059,-4.20972319711905,-296.850108340709
738504.44858217588625848293,-2.03100680562761,-4.12663655507065,-296.813180944243
738504.44858226634096354246,-2.03100680562761,-4.13586840418714,-296.831644642476
738504.44858235679566860199,-2.03100680562761,-4.15433210242012,-296.868572038942
738504.44858244725037366152,-2.0402386547441,-4.14510025330363,-296.813180944243
738504.44858253770507872105,-2.03100680562761,-4.14510025330363,-296.850108340709
738504.44858262815978378057,-2.04947050386059,-4.15433210242012,-296.748558000427
738504.44858271861448884010,-2.0402386547441,-4.15433210242012,-296.748558000427
738504.44858280895277857780,-2.04947050386059,-4.18202764976959,-296.822412793359
738504.44858289940748363733,-2.0402386547441,-4.1727958006531,-296.840876491592
738504.44858298986218869686,-2.0402386547441,-4.15433210242012,-296.868572038942
738504.44858308031689375639,-2.04947050386059,-4.15433210242012,-296.76702169866
738504.44858317077159881592,-2.04947050386059,-4.18202764976959,-296.840876491592
738504.44858326122630387545,-2.03100680562761,-4.1727958006531,-296.840876491592
738504.44858335168100893497,-2.04947050386059,-4.13586840418714,-296.76702169866
738504.44858344213571399450,-2.04947050386059,-4.16356395153661,-296.831644642476
738504.44858353259041905403,-2.05870235297708,-4.16356395153661,-296.868572038942
738504.44858362304512411356,-2.0402386547441,-4.1727958006531,-296.887035737175
738504.44858371338341385126,-2.0402386547441,-4.16356395153661,-296.757789849544
738504.44858380383811891079,-2.05870235297708,-4.1727958006531,-296.840876491592
738504.44858389429282397032,-2.04947050386059,-4.1727958006531,-296.850108340709
738504.44858398474752902985,-2.05870235297708,-4.1727958006531,-296.76702169866
738504.44858407520223408937,-2.04947050386059,-4.15433210242012,-296.822412793359
738504.44858416565693914890,-2.05870235297708,-4.16356395153661,-296.877803888058
738504.44858425611164420843,-2.04947050386059,-4.16356395153661,-296.803949095126
738504.44858434656634926796,-2.04947050386059,-4.1727958006531,-296.803949095126
738504.44858443702105432749,-2.0402386547441,-4.16356395153661,-296.840876491592
738504.44858452735934406519,-2.04947050386059,-4.18202764976959,-296.840876491592
738504.44858461781404912472,-2.04947050386059,-4.1727958006531,-296.76702169866
738504.44858470826875418425,-2.04947050386059,-4.1727958006531,-296.822412793359
738504.44858479872345924377,-2.04947050386059,-4.18202764976959,-296.776253547777
738504.44858488917816430330,-2.05870235297708,-4.18202764976959,-296.776253547777
738504.44858497963286936283,-2.04947050386059,-4.18202764976959,-296.785485396893
738504.44858507008757442236,-2.05870235297708,-4.18202764976959,-296.785485396893
738504.44858516054227948189,-2.04947050386059,-4.16356395153661,-296.785485396893
738504.44858525099698454142,-2.05870235297708,-4.18202764976959,-296.785485396893
738504.44858534145168960094,-2.04947050386059,-4.15433210242012,-296.76702169866
738504.44858543178997933865,-2.04947050386059,-4.15433210242012,-296.76702169866
738504.44858552224468439817,-2.05870235297708,-4.18202764976959,-296.79471724601
738504.44858561269938945770,-2.04947050386059,-4.1727958006531,-296.776253547777
738504.44858570315409451723,-2.04947050386059,-4.1727958006531,-296.813180944243
738504.44858579360879957676,-2.05870235297708,-4.1727958006531,-296.730094302194
738504.44858588406350463629,-2.05870235297708,-4.23741874446852,-296.739326151311
738504.44858597451820969582,-2.06793420209357,-4.24665059358501,-296.757789849544
738504.44858606497291475534,-2.06793420209357,-4.27434614093448,-296.757789849544
738504.44858615542761981487,-2.04947050386059,-4.18202764976959,-296.665471358379
738504.44858624588232487440,-2.0402386547441,-4.08970915860469,-296.656239509262
738504.44858633622061461210,-2.02177495651112,-4.09894100772118,-296.803949095126
738504.44858642667531967163,-2.01254310739463,-4.12663655507065,-296.748558000427
738504.44858651713002473116,-2.00331125827815,-4.16356395153661,-296.803949095126
738504.44858660758472979069,-1.9571520126957,-4.15433210242012,-296.822412793359
738504.44858669803943485022,-1.93868831446272,-4.13586840418714,-296.76702169866
738504.44858678849413990974,-1.8740653706473,-4.11740470595416,-296.822412793359
738504.44858687894884496927,-1.91099276711325,-4.14510025330363,-296.831644642476
738504.44858696940355002880,-1.92022461622974,-4.16356395153661,-296.850108340709
738504.44858705985825508833,-1.96638386181219,-4.13586840418714,-296.803949095126
738504.44858715031296014786,-1.97561571092868,-4.13586840418714,-296.822412793359
738504.44858724065124988556,-2.00331125827815,-4.15433210242012,-296.831644642476
738504.44858733110595494509,-2.0402386547441,-4.18202764976959,-296.776253547777
738504.44858742156066000462,-2.05870235297708,-4.19125949888607,-296.785485396893
738504.44858751201536506414,-2.07716605121006,-4.18202764976959,-296.840876491592
738504.44858760247007012367,-2.06793420209357,-4.16356395153661,-296.831644642476
738504.44858769292477518320,-2.07716605121006,-4.15433210242012,-296.76702169866
738504.44858778337948024273,-2.07716605121006,-4.15433210242012,-296.840876491592
738504.44858787383418530226,-2.08639790032655,-4.1727958006531,-296.822412793359
738504.44858796428889036179,-2.07716605121006,-4.18202764976959,-296.785485396893
738504.44858805474359542131,-2.08639790032655,-4.19125949888607,-296.813180944243
738504.44858814508188515902,-2.08639790032655,-4.18202764976959,-296.850108340709
738504.44858823553659021854,-2.07716605121006,-4.20049134800256,-296.859340189825
738504.44858832599129527807,-2.06793420209357,-4.18202764976959,-296.79471724601
738504.44858841644600033760,-2.07716605121006,-4.18202764976959,-296.831644642476
738504.44858850690070539713,-2.06793420209357,-4.1727958006531,-296.850108340709
738504.44858859735541045666,-2.07716605121006,-4.16356395153661,-296.76702169866
738504.44858868781011551619,-2.05870235297708,-4.13586840418714,-296.803949095126
738504.44858877826482057571,-2.01254310739463,-4.09894100772118,-296.850108340709
738504.44858886871952563524,-1.91099276711325,-3.97892696920682,-296.822412793359
738504.44858895905781537294,-1.60634174626911,-3.87737662892544,-296.656239509262
738504.44858904951252043247,-1.08935819574572,-4.04354991302225,-296.702398754845
738504.44858913996722549200,-0.480056154057436,-4.28357799005097,-296.702398754845
738504.44858923042193055153,-0.701620532853175,-4.44975127414777,-296.711630603961
738504.44858932087663561106,-1.12628559221168,-4.56976531266213,-296.803949095126
738504.44858941133134067059,-1.68019653920103,-4.95750297555467,-296.960890530106
738504.44858950178604573011,-1.80021057771538,-5.09598071230201,-297.043977172155
738504.44858959224075078964,-1.92945646534623,-4.92057557908872,-297.062440870388
738504.44858968269545584917,-1.86483352153081,-4.5974608600116,-296.923963133641
738504.44858977315016090870,-1.93868831446272,-4.44051942503128,-296.831644642476
738504.44858986348845064640,-1.9571520126957,-4.3389690847499,-296.831644642476
738504.44858995394315570593,-1.98484756004517,-4.24665059358501,-296.79471724601
738504.44859004439786076546,-1.98484756004517,-4.19125949888607,-296.776253547777
738504.44859013485256582499,-1.99407940916166,-4.18202764976959,-296.776253547777
738504.44859022530727088451,-1.96638386181219,-4.1727958006531,-296.776253547777
738504.44859031576197594404,-1.92022461622974,-4.13586840418714,-296.757789849544
738504.44859040621668100357,-1.84636982329783,-4.06201361125523,-296.748558000427
738504.44859049667138606310,-1.89252906888028,-4.11740470595416,-296.711630603961
738504.44859058712609112263,-1.90176091799676,-4.15433210242012,-296.720862453078
738504.44859067758079618216,-1.8740653706473,-4.13586840418714,-296.683935056612
738504.44859076791908591986,-1.85560167241432,-4.12663655507065,-296.674703207495
738504.44859085837379097939,-1.82790612506485,-4.11740470595416,-296.720862453078
738504.44859094882849603891,-1.7909787285989,-4.0804773094882,-296.711630603961
738504.44859103928320109844,-1.74481948301645,-4.05278176213874,-296.730094302194
738504.44859112973790615797,-1.72635578478347,-4.03431806390576,-296.730094302194
738504.44859122019261121750,-1.67096469008454,-4.00662251655629,-296.776253547777
738504.44859131064731627703,-1.65250099185156,-4.00662251655629,-296.776253547777
738504.44859140110202133656,-1.58787804803613,-3.96969512009033,-296.720862453078
738504.44859149155672639608,-1.5324869533372,-3.92353587450789,-296.76702169866
738504.44859158201143145561,-1.4494003112888,-3.89584032715842,-296.711630603961
738504.44859167234972119331,-1.37554551835688,-3.86814477980895,-296.665471358379
738504.44859176280442625284,-1.30169072542497,-3.831217383343,-296.720862453078
738504.44859185325913131237,-1.23706778160955,-3.81275368511002,-296.702398754845
738504.44859194371383637190,-1.18167668691061,-3.77582628864406,-296.656239509262
738504.44859203416854143143,-1.14474929044465,-3.77582628864406,-296.656239509262
738504.44859212462324649096,-1.12628559221168,-3.77582628864406,-296.656239509262
738504.44859221507795155048,-1.13551744132817,-3.80352183599353,-296.647007660146
738504.44859230553265661001,-1.1909085360271,-3.831217383343,-296.674703207495
738504.44859239598736166954,-1.2739951780755,-3.90507217627491,-296.711630603961
738504.44859248632565140724,-1.39400921658986,-3.95123142185736,-296.711630603961
738504.44859257678035646677,-1.5324869533372,-3.98815881832331,-296.730094302194
738504.44859266723506152630,-1.65250099185156,-4.04354991302225,-296.656239509262
738504.44859275768976658583,-1.75405133213294,-4.0804773094882,-296.739326151311
738504.44859284814447164536,-1.84636982329783,-4.12663655507065,-296.720862453078
738504.44859293859917670488,-1.91099276711325,-4.15433210242012,-296.748558000427
738504.44859302905388176441,-1.92945646534623,-4.16356395153661,-296.76702169866
738504.44859311950858682394,-1.94792016357921,-4.1727958006531,-296.76702169866
738504.44859320996329188347,-1.99407940916166,-4.18202764976959,-296.739326151311
738504.44859330041799694300,-2.00331125827815,-4.18202764976959,-296.665471358379
738504.44859339075628668070,-2.00331125827815,-4.20049134800256,-296.803949095126
738504.44859348121099174023,-2.01254310739463,-4.20049134800256,-296.785485396893
738504.44859357166569679976,-2.01254310739463,-4.20049134800256,-296.79471724601
738504.44859366212040185928,-2.02177495651112,-4.21895504623554,-296.785485396893
738504.44859375257510691881,-2.02177495651112,-4.20972319711905,-296.803949095126
738504.44859384302981197834,-2.03100680562761,-4.20972319711905,-296.79471724601
738504.44859393348451703787,-2.02177495651112,-4.20049134800256,-296.840876491592
738504.44859402393922209740,-2.02177495651112,-4.20972319711905,-296.831644642476
738504.44859411439392715693,-2.02177495651112,-4.20972319711905,-296.859340189825
738504.44859420484863221645,-2.02177495651112,-4.20972319711905,-296.76702169866
738504.44859429518692195415,-2.01254310739463,-4.20972319711905,-296.776253547777
738504.44859438564162701368,-2.01254310739463,-4.20972319711905,-296.79471724601
738504.44859447609633207321,-2.01254310739463,-4.20972319711905,-296.803949095126
738504.44859456655103713274,-2.02177495651112,-4.21895504623554,-296.813180944243
738504.44859465700574219227,-2.01254310739463,-4.20972319711905,-296.803949095126
738504.44859474746044725180,-2.02177495651112,-4.20972319711905,-296.831644642476
738504.44859483791515231133,-2.01254310739463,-4.20049134800256,-296.813180944243
738504.44859492836985737085,-2.01254310739463,-4.20972319711905,-296.803949095126
738504.44859501882456243038,-2.01254310739463,-4.20972319711905,-296.748558000427
738504.44859510927926748991,-2.01254310739463,-4.20049134800256,-296.757789849544
738504.44859519961755722761,-2.02177495651112,-4.20972319711905,-296.76702169866
738504.44859529007226228714,-2.02177495651112,-4.20049134800256,-296.730094302194
738504.44859538052696734667,-2.02177495651112,-4.20972319711905,-296.776253547777
738504.44859547098167240620,-2.02177495651112,-4.20049134800256,-296.813180944243
738504.44859556143637746572,-2.03100680562761,-4.20972319711905,-296.79471724601
738504.44859565189108252525,-2.03100680562761,-4.20049134800256,-296.831644642476
738504.44859574234578758478,-2.03100680562761,-4.20972319711905,-296.868572038942
738504.44859583280049264431,-2.03100680562761,-4.20049134800256,-296.850108340709
738504.44859592325519770384,-2.03100680562761,-4.20972319711905,-296.822412793359
738504.44859601370990276337,-2.03100680562761,-4.20049134800256,-296.877803888058
738504.44859610404819250107,-2.0402386547441,-4.20972319711905,-296.840876491592
738504.44859619450289756060,-2.03100680562761,-4.20049134800256,-296.868572038942
738504.44859628495760262012,-2.0402386547441,-4.20972319711905,-296.831644642476
738504.44859637541230767965,-2.03100680562761,-4.20049134800256,-296.850108340709
738504.44859646586701273918,-2.0402386547441,-4.20049134800256,-296.840876491592
738504.44859655632171779871,-2.03100680562761,-4.20049134800256,-296.776253547777
738504.44859664677642285824,-2.03100680562761,-4.20049134800256,-296.840876491592
738504.44859673723112791777,-2.0402386547441,-4.20972319711905,-296.803949095126
738504.44859682768583297729,-2.03100680562761,-4.20049134800256,-296.711630603961
738504.44859691802412271500,-2.0402386547441,-4.20972319711905,-296.79471724601
738504.44859700847882777452,-2.03100680562761,-4.20049134800256,-296.868572038942
738504.44859709893353283405,-2.0402386547441,-4.20049134800256,-296.840876491592
738504.44859718938823789358,-2.03100680562761,-4.20049134800256,-296.850108340709
738504.44859727984294295311,-2.0402386547441,-4.20049134800256,-296.803949095126
738504.44859737029764801264,-2.0402386547441,-4.20049134800256,-296.831644642476
738504.44859746075235307217,-2.04947050386059,-4.20972319711905,-296.859340189825
738504.44859755120705813169,-2.03100680562761,-4.20049134800256,-296.757789849544
738504.44859764166176319122,-2.0402386547441,-4.20972319711905,-296.822412793359
738504.44859773211646825075,-2.0402386547441,-4.19125949888607,-296.785485396893
738504.44859782245475798845,-2.04947050386059,-4.20972319711905,-296.76702169866
738504.44859791290946304798,-2.0402386547441,-4.20049134800256,-296.822412793359
738504.44859800336416810751,-2.0402386547441,-4.20049134800256,-296.776253547777
738504.44859809381887316704,-2.04947050386059,-4.20049134800256,-296.803949095126
738504.44859818427357822657,-2.0402386547441,-4.20972319711905,-296.776253547777
738504.44859827472828328609,-2.0402386547441,-4.20972319711905,-296.803949095126
738504.44859836518298834562,-2.0402386547441,-4.20972319711905,-296.79471724601
738504.44859845563769340515,-2.0402386547441,-4.20972319711905,-296.776253547777
738504.44859854609239846468,-2.01254310739463,-4.20049134800256,-296.748558000427
738504.44859863654710352421,-2.01254310739463,-4.20972319711905,-296.757789849544
738504.44859872688539326191,-1.99407940916166,-4.20972319711905,-296.79471724601
738504.44859881734009832144,-1.99407940916166,-4.20049134800256,-296.840876491592
738504.44859890779480338097,-1.94792016357921,-4.19125949888607,-296.822412793359
738504.44859899824950844049,-1.92022461622974,-4.19125949888607,-296.757789849544
738504.44859908870421350002,-1.8740653706473,-4.1727958006531,-296.757789849544
738504.44859917915891855955,-1.91099276711325,-4.1727958006531,-296.803949095126
738504.44859926961362361908,-1.92022461622974,-4.1727958006531,-296.813180944243
738504.44859936006832867861,-1.96638386181219,-4.1727958006531,-296.850108340709
738504.44859945052303373814,-1.97561571092868,-4.1727958006531,-296.868572038942
738504.44859954097773879766,-2.00331125827815,-4.18202764976959,-296.748558000427
738504.44859963131602853537,-2.04947050386059,-4.20972319711905,-296.831644642476
738504.44859972177073359489,-2.05870235297708,-4.20972319711905,-296.822412793359
738504.44859981222543865442,-2.06793420209357,-4.20972319711905,-296.79471724601
738504.44859990268014371395,-2.06793420209357,-4.20049134800256,-296.840876491592
738504.44859999313484877348,-2.07716605121006,-4.20972319711905,-296.859340189825
738504.44860008358955383301,-2.07716605121006,-4.20972319711905,-296.79471724601
738504.44860017404425889254,-2.07716605121006,-4.21895504623554,-296.739326151311
738504.44860026449896395206,-2.06793420209357,-4.20972319711905,-296.58238471633
738504.44860035495366901159,-2.09562974944304,-4.21895504623554,-296.693166905728
738504.44860044540837407112,-2.07716605121006,-4.20972319711905,-296.748558000427
738504.44860053574666380882,-2.07716605121006,-4.21895504623554,-296.748558000427
738504.44860062620136886835,-2.07716605121006,-4.21895504623554,-296.803949095126
738504.44860071665607392788,-2.05870235297708,-4.20049134800256,-296.803949095126
738504.44860080711077898741,-2.0402386547441,-4.19125949888607,-296.803949095126
738504.44860089756548404694,-2.07716605121006,-4.20972319711905,-296.803949095126
738504.44860098802018910646,-2.06793420209357,-4.19125949888607,-296.840876491592
738504.44860107847489416599,-2.00331125827815,-4.12663655507065,-296.813180944243
738504.44860116892959922552,-1.92945646534623,-4.03431806390576,-296.730094302194
738504.44860125938430428505,-1.70789208655049,-3.89584032715842,-296.748558000427
738504.44860134972259402275,-1.2739951780755,-3.98815881832331,-296.702398754845
738504.44860144017729908228,-0.618533890804773,-4.23741874446852,-296.647007660146
738504.44860153063200414181,-0.553910946989349,-4.43128757591479,-296.711630603961
738504.44860162108670920134,-1.31092257454146,-4.68977935117649,-296.840876491592
738504.44860171154141426086,-1.73558763389996,-5.11444441053499,-296.95165868099
738504.44860180199611932039,-1.8740653706473,-5.19753105258339,-297.034745323038
738504.44860189245082437992,-1.89252906888028,-4.90211188085574,-296.997817926572
738504.44860198290552943945,-1.81867427594836,-4.56976531266213,-296.933194982757
738504.44860207336023449898,-1.92022461622974,-4.43128757591479,-296.868572038942
738504.44860216381493955851,-1.94792016357921,-4.32973723563341,-296.822412793359
738504.44860225415322929621,-1.97561571092868,-4.24665059358501,-296.803949095126
738504.44860234460793435574,-1.99407940916166,-4.21895504623554,-296.79471724601
738504.44860243506263941526,-2.00331125827815,-4.20972319711905,-296.803949095126
738504.44860252551734447479,-2.00331125827815,-4.20972319711905,-296.813180944243
738504.44860261597204953432,-1.96638386181219,-4.18202764976959,-296.776253547777
738504.44860270642675459385,-1.94792016357921,-4.16356395153661,-296.757789849544
738504.44860279688145965338,-1.90176091799676,-4.13586840418714,-296.748558000427
738504.44860288733616471291,-1.88329721976379,-4.13586840418714,-296.757789849544
738504.44860297779086977243,-1.86483352153081,-4.11740470595416,-296.76702169866
738504.44860306824557483196,-1.84636982329783,-4.11740470595416,-296.813180944243
738504.44860315858386456966,-1.80944242683187,-4.08970915860469,-296.776253547777
738504.44860324903856962919,-1.7909787285989,-4.07124546037172,-296.803949095126
738504.44860333949327468872,-1.76328318124943,-4.05278176213874,-296.711630603961
738504.44860342994797974825,-1.72635578478347,-4.03431806390576,-296.711630603961
738504.44860352040268480778,-1.68019653920103,-4.00662251655629,-296.702398754845
738504.44860361085738986731,-1.64326914273507,-3.97892696920682,-296.76702169866
738504.44860370131209492683,-1.58787804803613,-3.94199957274087,-296.757789849544
738504.44860379176679998636,-1.52325510422071,-3.9143040253914,-296.526993621632
738504.44860388222150504589,-1.4494003112888,-3.87737662892544,-296.61008026368
738504.44860397267621010542,-1.37554551835688,-3.84044923245949,-296.665471358379
738504.44860406301449984312,-1.30169072542497,-3.80352183599353,-296.637775811029
738504.44860415346920490265,-1.23706778160955,-3.78505813776055,-296.619312112796
738504.44860424392390996218,-1.21860408337657,-3.77582628864406,-296.702398754845
738504.44860433437861502171,-1.17244483779412,-3.75736259041108,-296.693166905728
738504.44860442483332008123,-1.16321298867763,-3.77582628864406,-296.58238471633
738504.44860451528802514076,-1.15398113956114,-3.78505813776055,-296.674703207495
738504.44860460574273020029,-1.1909085360271,-3.81275368511002,-296.702398754845
738504.44860469619743525982,-1.26476332895901,-3.85891293069246,-296.702398754845
738504.44860478665214031935,-1.37554551835688,-3.9143040253914,-296.693166905728
738504.44860487710684537888,-1.50479140598773,-3.97892696920682,-296.76702169866
738504.44860496744513511658,-1.64326914273507,-4.03431806390576,-296.776253547777
738504.44860505789984017611,-1.74481948301645,-4.07124546037172,-296.757789849544
738504.44860514835454523563,-1.83713797418134,-4.10817285683767,-296.76702169866
738504.44860523880925029516,-1.91099276711325,-4.13586840418714,-296.831644642476
738504.44860532926395535469,-1.9571520126957,-4.15433210242012,-296.785485396893
738504.44860541971866041422,-1.98484756004517,-4.16356395153661,-296.76702169866
738504.44860551017336547375,-2.00331125827815,-4.1727958006531,-296.840876491592
738504.44860560062807053328,-2.02177495651112,-4.19125949888607,-296.822412793359
738504.44860569108277559280,-2.02177495651112,-4.18202764976959,-296.739326151311
738504.44860578142106533051,-2.0402386547441,-4.19125949888607,-296.840876491592
738504.44860587187577039003,-2.0402386547441,-4.18202764976959,-296.813180944243
738504.44860596233047544956,-2.04947050386059,-4.20049134800256,-296.803949095126
738504.44860605278518050909,-2.0402386547441,-4.19125949888607,-296.79471724601
738504.44860614323988556862,-2.04947050386059,-4.20049134800256,-296.859340189825
738504.44860623369459062815,-2.0402386547441,-4.19125949888607,-296.693166905728
738504.44860632414929568768,-2.04947050386059,-4.20049134800256,-296.757789849544
738504.44860641460400074720,-2.0402386547441,-4.20049134800256,-296.730094302194
738504.44860650505870580673,-2.04947050386059,-4.20049134800256,-296.757789849544
738504.44860659551341086626,-2.05870235297708,-4.19125949888607,-296.79471724601
738504.44860668585170060396,-2.04947050386059,-4.19125949888607,-296.776253547777
738504.44860677630640566349,-2.04947050386059,-4.19125949888607,-296.803949095126
738504.44860686676111072302,-2.04947050386059,-4.20049134800256,-296.79471724601
738504.44860695721581578255,-2.04947050386059,-4.19125949888607,-296.840876491592
738504.44860704767052084208,-2.0402386547441,-4.19125949888607,-296.813180944243
738504.44860713812522590160,-2.05870235297708,-4.20049134800256,-296.76702169866
738504.44860722857993096113,-2.04947050386059,-4.19125949888607,-296.803949095126
738504.44860731903463602066,-2.04947050386059,-4.19125949888607,-296.628543961913
738504.44860740948934108019,-2.04947050386059,-4.18202764976959,-296.656239509262
738504.44860749994404613972,-2.05870235297708,-4.19125949888607,-296.739326151311
738504.44860759028233587742,-2.04947050386059,-4.1727958006531,-296.813180944243
738504.44860768073704093695,-2.06793420209357,-4.19125949888607,-296.803949095126
738504.44860777119174599648,-2.06793420209357,-4.1727958006531,-296.79471724601
738504.44860786164645105600,-2.07716605121006,-4.19125949888607,-296.813180944243
738504.44860795210115611553,-2.07716605121006,-4.18202764976959,-296.840876491592
738504.44860804255586117506,-2.07716605121006,-4.18202764976959,-296.840876491592
738504.44860813301056623459,-2.07716605121006,-4.19125949888607,-296.803949095126
738504.44860822346527129412,-2.07716605121006,-4.18202764976959,-296.803949095126
738504.44860831391997635365,-2.09562974944304,-4.19125949888607,-296.813180944243
738504.44860840437468141317,-2.08639790032655,-4.18202764976959,-296.840876491592
738504.44860849471297115088,-2.08639790032655,-4.19125949888607,-296.785485396893
738504.44860858516767621040,-2.08639790032655,-4.18202764976959,-296.850108340709
738504.44860867562238126993,-2.09562974944304,-4.18202764976959,-296.822412793359
738504.44860876607708632946,-2.08639790032655,-4.18202764976959,-296.76702169866
738504.44860885653179138899,-2.09562974944304,-4.18202764976959,-296.840876491592
738504.44860894698649644852,-2.08639790032655,-4.1727958006531,-296.813180944243
738504.44860903744120150805,-2.09562974944304,-4.18202764976959,-296.785485396893
738504.44860912789590656757,-2.08639790032655,-4.1727958006531,-296.822412793359
738504.44860921835061162710,-2.08639790032655,-4.16356395153661,-296.813180944243
738504.44860930880531668663,-2.10486159855953,-4.18202764976959,-296.822412793359
738504.44860939914360642433,-2.10486159855953,-4.18202764976959,-296.822412793359
738504.44860948959831148386,-2.10486159855953,-4.18202764976959,-296.813180944243
738504.44860958005301654339,-2.10486159855953,-4.18202764976959,-296.822412793359
738504.44860967050772160292,-2.09562974944304,-4.18202764976959,-296.76702169866
738504.44860976096242666245,-2.1233252967925,-4.1727958006531,-296.813180944243
738504.44860985141713172197,-2.1233252967925,-4.18202764976959,-296.831644642476
738504.44860994187183678150,-2.09562974944304,-4.1727958006531,-296.803949095126
738504.44861003232654184103,-2.1233252967925,-4.18202764976959,-296.76702169866
738504.44861012278124690056,-2.10486159855953,-4.1727958006531,-296.748558000427
738504.44861021311953663826,-2.10486159855953,-4.1727958006531,-296.730094302194
738504.44861030357424169779,-2.10486159855953,-4.1727958006531,-296.702398754845
738504.44861039402894675732,-2.1233252967925,-4.18202764976959,-296.730094302194
738504.44861048448365181684,-2.10486159855953,-4.1727958006531,-296.739326151311
738504.44861057493835687637,-2.11409344767602,-4.1727958006531,-296.748558000427
738504.44861066539306193590,-2.11409344767602,-4.18202764976959,-296.79471724601
738504.44861075584776699543,-2.1233252967925,-4.1727958006531,-296.739326151311
738504.44861084630247205496,-2.11409344767602,-4.1727958006531,-296.628543961913
738504.44861093675717711449,-2.11409344767602,-4.1727958006531,-296.665471358379
738504.44861102721188217402,-2.11409344767602,-4.1727958006531,-296.776253547777
738504.44861111755017191172,-2.09562974944304,-4.1727958006531,-296.776253547777
738504.44861120800487697124,-2.08639790032655,-4.1727958006531,-296.79471724601
738504.44861129845958203077,-2.06793420209357,-4.16356395153661,-296.785485396893
738504.44861138891428709030,-2.05870235297708,-4.15433210242012,-296.785485396893
738504.44861147936899214983,-2.02177495651112,-4.15433210242012,-296.831644642476
738504.44861156982369720936,-1.98484756004517,-4.15433210242012,-296.840876491592
738504.44861166027840226889,-1.96638386181219,-4.13586840418714,-296.822412793359
738504.44861175073310732841,-1.99407940916166,-4.13586840418714,-296.748558000427
738504.44861184118781238794,-2.01254310739463,-4.14510025330363,-296.822412793359
738504.44861193164251744747,-2.04947050386059,-4.14510025330363,-296.850108340709
738504.44861202198080718517,-2.04947050386059,-4.14510025330363,-296.79471724601
738504.44861211243551224470,-2.09562974944304,-4.15433210242012,-296.776253547777
738504.44861220289021730423,-2.1233252967925,-4.15433210242012,-296.831644642476
738504.44861229334492236376,-2.14178899502548,-4.16356395153661,-296.840876491592
738504.44861238379962742329,-2.16025269325846,-4.1727958006531,-296.785485396893
738504.44861247425433248281,-2.16948454237495,-4.1727958006531,-296.822412793359
738504.44861256470903754234,-2.17871639149144,-4.1727958006531,-296.840876491592
738504.44861265516374260187,-2.16948454237495,-4.1727958006531,-296.748558000427
738504.44861274561844766140,-2.17871639149144,-4.1727958006531,-296.850108340709
738504.44861283607315272093,-2.17871639149144,-4.1727958006531,-296.831644642476
738504.44861292641144245863,-2.17871639149144,-4.18202764976959,-296.79471724601
738504.44861301686614751816,-2.16948454237495,-4.1727958006531,-296.79471724601
738504.44861310732085257769,-2.17871639149144,-4.18202764976959,-296.859340189825
738504.44861319777555763721,-2.16948454237495,-4.16356395153661,-296.831644642476
738504.44861328823026269674,-2.17871639149144,-4.18202764976959,-296.76702169866
738504.44861337868496775627,-2.16025269325846,-4.1727958006531,-296.840876491592
738504.44861346913967281580,-2.18794824060793,-4.16356395153661,-296.840876491592
738504.44861355959437787533,-2.17871639149144,-4.14510025330363,-296.831644642476
738504.44861365004908293486,-2.15102084414197,-4.10817285683767,-296.785485396893
738504.44861374050378799438,-2.09562974944304,-4.02508621478927,-296.785485396893
738504.44861383084207773209,-1.8740653706473,-3.86814477980895,-296.720862453078
738504.44861392129678279161,-1.39400921658986,-3.9143040253914,-296.637775811029
738504.44861401175148785114,-0.738547929319132,-4.12663655507065,-296.647007660146
738504.44861410220619291067,-0.65546128727073,-4.28357799005097,-296.674703207495
738504.44861419266089797020,-1.45863216040529,-4.53283791619617,-296.785485396893
738504.44861428311560302973,-1.88329721976379,-4.91134372997223,-296.960890530106
738504.44861437357030808926,-1.94792016357921,-4.98519852290414,-296.887035737175
738504.44861446402501314878,-2.01254310739463,-4.79132969145787,-296.840876491592
738504.44861455447971820831,-1.92022461622974,-4.51437421796319,-296.868572038942
738504.44861464481800794601,-2.01254310739463,-4.37589648121586,-296.859340189825
738504.44861473527271300554,-2.0402386547441,-4.28357799005097,-296.840876491592
738504.44861482572741806507,-2.05870235297708,-4.21895504623554,-296.776253547777
738504.44861491618212312460,-2.07716605121006,-4.18202764976959,-296.776253547777
738504.44861500663682818413,-2.07716605121006,-4.1727958006531,-296.822412793359
738504.44861509709153324366,-2.0402386547441,-4.14510025330363,-296.730094302194
738504.44861518754623830318,-2.02177495651112,-4.13586840418714,-296.748558000427
738504.44861527800094336271,-1.99407940916166,-4.11740470595416,-296.748558000427
738504.44861536845564842224,-1.98484756004517,-4.10817285683767,-296.76702169866
738504.44861545891035348177,-1.97561571092868,-4.09894100772118,-296.76702169866
738504.44861554924864321947,-1.93868831446272,-4.08970915860469,-296.79471724601
738504.44861563970334827900,-1.92022461622974,-4.0804773094882,-296.776253547777
738504.44861573015805333853,-1.88329721976379,-4.06201361125523,-296.711630603961
738504.44861582061275839806,-1.86483352153081,-4.05278176213874,-296.720862453078
738504.44861591106746345758,-1.82790612506485,-4.02508621478927,-296.748558000427
738504.44861600152216851711,-1.80021057771538,-4.02508621478927,-296.711630603961
738504.44861609197687357664,-1.75405133213294,-3.98815881832331,-296.730094302194
738504.44861618243157863617,-1.70789208655049,-3.96969512009033,-296.730094302194
738504.44861627288628369570,-1.64326914273507,-3.93276772362438,-296.748558000427
738504.44861636334098875523,-1.58787804803613,-3.90507217627491,-296.711630603961
738504.44861645367927849293,-1.50479140598773,-3.87737662892544,-296.573152867214
738504.44861654413398355246,-1.43093661305582,-3.84968108157598,-296.683935056612
738504.44861663458868861198,-1.34784997100742,-3.81275368511002,-296.674703207495
738504.44861672504339367151,-1.29245887630848,-3.80352183599353,-296.656239509262
738504.44861681549809873104,-1.24629963072604,-3.78505813776055,-296.674703207495
738504.44861690595280379057,-1.20937223426008,-3.77582628864406,-296.683935056612
738504.44861699640750885010,-1.1909085360271,-3.79428998687704,-296.656239509262
738504.44861708686221390963,-1.21860408337657,-3.80352183599353,-296.628543961913
738504.44861717731691896915,-1.2739951780755,-3.84968108157598,-296.693166905728
738504.44861726777162402868,-1.31092257454146,-3.85891293069246,-296.711630603961
738504.44861735810991376638,-1.44016846217231,-3.92353587450789,-296.693166905728
738504.44861744856461882591,-1.56941434980316,-3.97892696920682,-296.674703207495
738504.44861753901932388544,-1.70789208655049,-4.04354991302225,-296.702398754845
738504.44861762947402894497,-1.80944242683187,-4.07124546037172,-296.720862453078
738504.44861771992873400450,-1.91099276711325,-4.09894100772118,-296.702398754845
738504.44861781038343906403,-1.97561571092868,-4.12663655507065,-296.739326151311
738504.44861790083814412355,-2.02177495651112,-4.14510025330363,-296.730094302194
738504.44861799129284918308,-2.04947050386059,-4.16356395153661,-296.683935056612
738504.44861808174755424261,-2.07716605121006,-4.16356395153661,-296.822412793359
738504.44861817220225930214,-2.08639790032655,-4.16356395153661,-296.831644642476
738504.44861826254054903984,-2.09562974944304,-4.1727958006531,-296.813180944243
738504.44861835299525409937,-2.10486159855953,-4.18202764976959,-296.822412793359
738504.44861844344995915890,-2.11409344767602,-4.18202764976959,-296.840876491592
738504.44861853390466421843,-2.1233252967925,-4.19125949888607,-296.776253547777
738504.44861862435936927795,-2.1233252967925,-4.19125949888607,-296.76702169866
738504.44861871481407433748,-2.13255714590899,-4.20049134800256,-296.803949095126
738504.44861880526877939701,-2.11409344767602,-4.19125949888607,-296.831644642476
738504.44861889572348445654,-2.1233252967925,-4.19125949888607,-296.822412793359
738504.44861898617818951607,-2.1233252967925,-4.18202764976959,-296.803949095126
738504.44861907651647925377,-2.13255714590899,-4.19125949888607,-296.79471724601
738504.44861916697118431330,-2.13255714590899,-4.18202764976959,-296.850108340709
738504.44861925742588937283,-2.13255714590899,-4.19125949888607,-296.850108340709
738504.44861934788059443235,-2.13255714590899,-4.19125949888607,-296.887035737175
738504.44861943833529949188,-2.13255714590899,-4.19125949888607,-296.859340189825
738504.44861952879000455141,-2.1233252967925,-4.18202764976959,-296.785485396893
738504.44861961924470961094,-2.1233252967925,-4.18202764976959,-296.822412793359
738504.44861970969941467047,-2.14178899502548,-4.18202764976959,-296.785485396893
738504.44861980015411973000,-2.1233252967925,-4.1727958006531,-296.79471724601
738504.44861989060882478952,-2.13255714590899,-4.18202764976959,-296.803949095126
738504.44861998094711452723,-2.13255714590899,-4.1727958006531,-296.803949095126
738504.44862007140181958675,-2.15102084414197,-4.18202764976959,-296.840876491592
738504.44862016185652464628,-2.14178899502548,-4.1727958006531,-296.785485396893
738504.44862025231122970581,-2.15102084414197,-4.1727958006531,-296.813180944243
738504.44862034276593476534,-2.15102084414197,-4.18202764976959,-296.840876491592
738504.44862043322063982487,-2.16025269325846,-4.18202764976959,-296.859340189825
738504.44862052367534488440,-2.16025269325846,-4.18202764976959,-296.803949095126
738504.44862061413004994392,-2.16948454237495,-4.18202764976959,-296.840876491592
738504.44862070458475500345,-2.16025269325846,-4.1727958006531,-296.877803888058
738504.44862079503946006298,-2.16948454237495,-4.18202764976959,-296.840876491592
738504.44862088537774980068,-2.16025269325846,-4.1727958006531,-296.785485396893
738504.44862097583245486021,-2.16025269325846,-4.16356395153661,-296.831644642476
738504.44862106628715991974,-2.14178899502548,-4.15433210242012,-296.850108340709
738504.44862115674186497927,-2.16025269325846,-4.1727958006531,-296.859340189825
738504.44862124719657003880,-2.16025269325846,-4.1727958006531,-296.803949095126
738504.44862133765127509832,-2.16948454237495,-4.18202764976959,-296.877803888058
738504.44862142810598015785,-2.13255714590899,-4.12663655507065,-296.776253547777
738504.44862151856068521738,-2.16948454237495,-4.1727958006531,-296.720862453078
738504.44862160901539027691,-2.18794824060793,-4.19125949888607,-296.831644642476
738504.44862169947009533644,-2.19718008972442,-4.20049134800256,-296.896267586291
738504.44862178980838507414,-2.20641193884091,-4.20972319711905,-296.896267586291
738504.44862188026309013367,-2.16948454237495,-4.16356395153661,-296.79471724601
738504.44862197071779519320,-2.17871639149144,-4.18202764976959,-296.868572038942
738504.44862206117250025272,-2.18794824060793,-4.19125949888607,-296.887035737175
738504.44862215162720531225,-2.19718008972442,-4.20049134800256,-296.822412793359
738504.44862224208191037178,-2.1233252967925,-4.12663655507065,-296.868572038942
738504.44862233253661543131,-2.16025269325846,-4.15433210242012,-296.887035737175
738504.44862242299132049084,-2.19718008972442,-4.20049134800256,-296.850108340709
738504.44862251344602555037,-2.18794824060793,-4.18202764976959,-296.803949095126
738504.44862260390073060989,-2.18794824060793,-4.18202764976959,-296.887035737175
738504.44862269423902034760,-2.18794824060793,-4.19125949888607,-296.887035737175
738504.44862278469372540712,-2.18794824060793,-4.18202764976959,-296.776253547777
738504.44862287514843046665,-2.20641193884091,-4.20049134800256,-296.822412793359
738504.44862296560313552618,-2.22487563707389,-4.20972319711905,-296.822412793359
738504.44862305605784058571,-2.20641193884091,-4.20049134800256,-296.803949095126
738504.44862314651254564524,-2.20641193884091,-4.20049134800256,-296.79471724601
738504.44862323696725070477,-2.16948454237495,-4.16356395153661,-296.776253547777
738504.44862332742195576429,-2.18794824060793,-4.16356395153661,-296.785485396893
738504.44862341787666082382,-2.20641193884091,-4.20049134800256,-296.803949095126
738504.44862350821495056152,-2.2156437879574,-4.20049134800256,-296.79471724601
738504.44862359866965562105,-2.16948454237495,-4.16356395153661,-296.79471724601
738504.44862368912436068058,-2.15102084414197,-4.13586840418714,-296.79471724601
738504.44862377957906574011,-2.2156437879574,-4.20049134800256,-296.79471724601
738504.44862387003377079964,-2.2156437879574,-4.20049134800256,-296.79471724601
738504.44862396048847585917,-2.20641193884091,-4.19125949888607,-296.831644642476
738504.44862405094318091869,-2.2156437879574,-4.19125949888607,-296.813180944243
738504.44862414139788597822,-2.2156437879574,-4.20972319711905,-296.822412793359
738504.44862423185259103775,-2.20641193884091,-4.19125949888607,-296.813180944243
738504.44862432230729609728,-2.19718008972442,-4.18202764976959,-296.813180944243
738504.44862441264558583498,-2.19718008972442,-4.19125949888607,-296.859340189825
738504.44862450310029089451,-2.19718008972442,-4.18202764976959,-296.840876491592
738504.44862459355499595404,-2.18794824060793,-4.1727958006531,-296.822412793359
738504.44862468400970101357,-2.18794824060793,-4.18202764976959,-296.840876491592
738504.44862477446440607309,-2.15102084414197,-4.15433210242012,-296.813180944243
738504.44862486491911113262,-2.15102084414197,-4.18202764976959,-296.859340189825
738504.44862495537381619215,-2.13255714590899,-4.1727958006531,-296.868572038942
738504.44862504582852125168,-2.11409344767602,-4.14510025330363,-296.739326151311
738504.44862513628322631121,-2.1233252967925,-4.18202764976959,-296.859340189825
738504.44862522673793137074,-2.10486159855953,-4.1727958006531,-296.877803888058
738504.44862531707622110844,-2.0402386547441,-4.12663655507065,-296.877803888058
738504.44862540753092616796,-2.13255714590899,-4.18202764976959,-296.850108340709
738504.44862549798563122749,-2.16025269325846,-4.18202764976959,-296.905499435408
738504.44862558844033628702,-2.16025269325846,-4.16356395153661,-296.877803888058
738504.44862567889504134655,-2.13255714590899,-4.14510025330363,-296.822412793359
738504.44862576934974640608,-2.15102084414197,-4.14510025330363,-296.877803888058
738504.44862585980445146561,-2.2156437879574,-4.19125949888607,-296.887035737175
738504.44862595025915652514,-2.2156437879574,-4.18202764976959,-296.887035737175
738504.44862604071386158466,-2.24333933530686,-4.20049134800256,-296.850108340709
738504.44862613116856664419,-2.25257118442335,-4.20049134800256,-296.868572038942
738504.44862622150685638189,-2.25257118442335,-4.20972319711905,-296.877803888058
738504.44862631196156144142,-2.24333933530686,-4.20049134800256,-296.831644642476
738504.44862640241626650095,-2.25257118442335,-4.20972319711905,-296.887035737175
738504.44862649287097156048,-2.23410748619037,-4.20049134800256,-296.923963133641
738504.44862658332567662001,-2.24333933530686,-4.20972319711905,-296.896267586291
738504.44862667378038167953,-2.24333933530686,-4.20049134800256,-296.803949095126
738504.44862676423508673906,-2.23410748619037,-4.20049134800256,-296.803949095126
738504.44862685468979179859,-2.23410748619037,-4.20049134800256,-296.803949095126
738504.44862694514449685812,-2.22487563707389,-4.20049134800256,-296.76702169866
738504.44862703559920191765,-2.22487563707389,-4.19125949888607,-296.79471724601
738504.44862712593749165535,-2.2156437879574,-4.16356395153661,-296.850108340709
738504.44862721639219671488,-2.17871639149144,-4.12663655507065,-296.803949095126
738504.44862730684690177441,-2.10486159855953,-4.04354991302225,-296.79471724601
738504.44862739730160683393,-1.94792016357921,-3.92353587450789,-296.702398754845
738504.44862748775631189346,-1.5324869533372,-3.94199957274087,-296.730094302194
738504.44862757821101695299,-0.895489364299448,-4.22818689535203,-296.702398754845
738504.44862766866572201252,-0.553910946989349,-4.39436017944884,-296.730094302194
738504.44862775912042707205,-1.1909085360271,-4.58822901089511,-296.859340189825
738504.44862784957513213158,-1.74481948301645,-4.94827112643818,-297.025513473922
738504.44862793991342186928,-1.94792016357921,-5.12367625965148,-297.053209021271
738504.44862803036812692881,-2.02177495651112,-4.91134372997223,-297.080904568621
738504.44862812082283198833,-1.97561571092868,-4.57899716177862,-296.960890530106
738504.44862821127753704786,-2.06793420209357,-4.43128757591479,-296.942426831873
738504.44862830173224210739,-2.09562974944304,-4.31127353740043,-296.887035737175
738504.44862839218694716692,-2.13255714590899,-4.24665059358501,-296.850108340709
738504.44862848264165222645,-2.16025269325846,-4.23741874446852,-296.822412793359
738504.44862857309635728598,-2.16025269325846,-4.20972319711905,-296.711630603961
738504.44862866355106234550,-2.14178899502548,-4.18202764976959,-296.887035737175
738504.44862875400576740503,-2.13255714590899,-4.18202764976959,-296.840876491592
738504.44862884434405714273,-2.08639790032655,-4.15433210242012,-296.79471724601
738504.44862893479876220226,-2.07716605121006,-4.15433210242012,-296.776253547777
738504.44862902525346726179,-2.04947050386059,-4.12663655507065,-296.831644642476
738504.44862911570817232132,-2.02177495651112,-4.12663655507065,-296.776253547777
738504.44862920616287738085,-1.98484756004517,-4.09894100772118,-296.840876491592
738504.44862929661758244038,-1.98484756004517,-4.09894100772118,-296.840876491592
738504.44862938707228749990,-1.96638386181219,-4.11740470595416,-296.79471724601
738504.44862947752699255943,-1.92945646534623,-4.05278176213874,-296.803949095126
738504.44862956798169761896,-1.89252906888028,-4.02508621478927,-296.813180944243
738504.44862965843640267849,-1.84636982329783,-4.00662251655629,-296.757789849544
738504.44862974877469241619,-1.80944242683187,-4.00662251655629,-296.822412793359
738504.44862983922939747572,-1.75405133213294,-3.96969512009033,-296.76702169866
738504.44862992968410253525,-1.70789208655049,-3.92353587450789,-296.720862453078
738504.44863002013880759478,-1.60634174626911,-3.87737662892544,-296.665471358379
738504.44863011059351265430,-1.54171880245369,-3.86814477980895,-296.656239509262
738504.44863020104821771383,-1.46786400952177,-3.80352183599353,-296.637775811029
738504.44863029150292277336,-1.40324106570635,-3.79428998687704,-296.61008026368
738504.44863038195762783289,-1.36631366924039,-3.77582628864406,-296.637775811029
738504.44863047241233289242,-1.32938627277444,-3.76659443952757,-296.693166905728
738504.44863056286703795195,-1.30169072542497,-3.77582628864406,-296.656239509262
738504.44863065320532768965,-1.30169072542497,-3.78505813776055,-296.720862453078
738504.44863074366003274918,-1.32015442365795,-3.81275368511002,-296.757789849544
738504.44863083411473780870,-1.38477736747337,-3.84968108157598,-296.693166905728
738504.44863092456944286823,-1.47709585863826,-3.90507217627491,-296.79471724601
738504.44863101502414792776,-1.59710989715262,-3.96046327097385,-296.803949095126
738504.44863110547885298729,-1.73558763389996,-4.00662251655629,-296.757789849544
738504.44863119593355804682,-1.85560167241432,-4.06201361125523,-296.785485396893
738504.44863128638826310635,-1.9571520126957,-4.10817285683767,-296.702398754845
738504.44863137684296816587,-2.01254310739463,-4.12663655507065,-296.776253547777
738504.44863146729767322540,-2.05870235297708,-4.14510025330363,-296.757789849544
738504.44863155763596296310,-2.08639790032655,-4.15433210242012,-296.79471724601
738504.44863164809066802263,-2.1233252967925,-4.1727958006531,-296.822412793359
738504.44863173854537308216,-2.13255714590899,-4.19125949888607,-296.79471724601
738504.44863182900007814169,-2.15102084414197,-4.19125949888607,-296.776253547777
738504.44863191945478320122,-2.16025269325846,-4.19125949888607,-296.803949095126
738504.44863200990948826075,-2.16025269325846,-4.20049134800256,-296.647007660146
738504.44863210036419332027,-2.15102084414197,-4.20049134800256,-296.748558000427
738504.44863219081889837980,-2.16025269325846,-4.20972319711905,-296.813180944243
738504.44863228127360343933,-2.16025269325846,-4.20049134800256,-296.822412793359
738504.44863237161189317703,-2.15102084414197,-4.20049134800256,-296.840876491592
738504.44863246206659823656,-2.15102084414197,-4.20049134800256,-296.859340189825
738504.44863255252130329609,-2.15102084414197,-4.20049134800256,-296.831644642476
738504.44863264297600835562,-2.15102084414197,-4.20049134800256,-296.79471724601
738504.44863273343071341515,-2.14178899502548,-4.20049134800256,-296.840876491592
738504.44863282388541847467,-2.14178899502548,-4.20049134800256,-296.776253547777
738504.44863291434012353420,-2.14178899502548,-4.20049134800256,-296.840876491592
738504.44863300479482859373,-2.15102084414197,-4.20972319711905,-296.822412793359
738504.44863309524953365326,-2.14178899502548,-4.19125949888607,-296.850108340709
738504.44863318570423871279,-2.15102084414197,-4.20049134800256,-296.803949095126
738504.44863327604252845049,-2.14178899502548,-4.19125949888607,-296.785485396893
738504.44863336649723351002,-2.15102084414197,-4.20049134800256,-296.822412793359
738504.44863345695193856955,-2.13255714590899,-4.19125949888607,-296.859340189825
738504.44863354740664362907,-2.14178899502548,-4.19125949888607,-296.822412793359
738504.44863363786134868860,-2.14178899502548,-4.20049134800256,-296.840876491592
738504.44863372831605374813,-2.15102084414197,-4.19125949888607,-296.850108340709
738504.44863381877075880766,-2.15102084414197,-4.19125949888607,-296.868572038942
738504.44863390922546386719,-2.15102084414197,-4.19125949888607,-296.840876491592
738504.44863399968016892672,-2.14178899502548,-4.19125949888607,-296.831644642476
738504.44863409013487398624,-2.13255714590899,-4.1727958006531,-296.831644642476
738504.44863418047316372395,-2.13255714590899,-4.16356395153661,-296.813180944243
738504.44863427092786878347,-2.16948454237495,-4.20972319711905,-296.840876491592
738504.44863436138257384300,-2.17871639149144,-4.20972319711905,-296.850108340709
738504.44863445183727890253,-2.16948454237495,-4.20972319711905,-296.859340189825
738504.44863454229198396206,-2.17871639149144,-4.20972319711905,-296.840876491592
738504.44863463274668902159,-2.16025269325846,-4.19125949888607,-296.887035737175
738504.44863472320139408112,-2.16948454237495,-4.19125949888607,-296.859340189825
738504.44863481365609914064,-2.16025269325846,-4.19125949888607,-296.76702169866
738504.44863490411080420017,-2.16948454237495,-4.19125949888607,-296.822412793359
738504.44863499456550925970,-2.15102084414197,-4.18202764976959,-296.877803888058
738504.44863508490379899740,-2.15102084414197,-4.18202764976959,-296.850108340709
738504.44863517535850405693,-2.16025269325846,-4.19125949888607,-296.831644642476
738504.44863526581320911646,-2.16948454237495,-4.19125949888607,-296.850108340709
738504.44863535626791417599,-2.16025269325846,-4.18202764976959,-296.850108340709
738504.44863544672261923552,-2.16025269325846,-4.18202764976959,-296.803949095126
738504.44863553717732429504,-2.16025269325846,-4.18202764976959,-296.683935056612
738504.44863562763202935457,-2.16025269325846,-4.18202764976959,-296.785485396893
738504.44863571808673441410,-2.16025269325846,-4.18202764976959,-296.76702169866
738504.44863580854143947363,-2.16025269325846,-4.18202764976959,-296.76702169866
738504.44863589899614453316,-2.16025269325846,-4.19125949888607,-296.79471724601
738504.44863598933443427086,-2.16025269325846,-4.18202764976959,-296.776253547777
738504.44863607978913933039,-2.16025269325846,-4.18202764976959,-296.776253547777
738504.44863617024384438992,-2.16025269325846,-4.19125949888607,-296.813180944243
738504.44863626069854944944,-2.16948454237495,-4.18202764976959,-296.831644642476
738504.44863635115325450897,-2.16025269325846,-4.18202764976959,-296.803949095126
738504.44863644160795956850,-2.16025269325846,-4.19125949888607,-296.803949095126
738504.44863653206266462803,-2.16025269325846,-4.18202764976959,-296.803949095126
738504.44863662251736968756,-2.16025269325846,-4.18202764976959,-296.813180944243
738504.44863671297207474709,-2.16025269325846,-4.18202764976959,-296.757789849544
738504.44863680331036448479,-2.16025269325846,-4.18202764976959,-296.785485396893
738504.44863689376506954432,-2.16025269325846,-4.18202764976959,-296.803949095126
738504.44863698421977460384,-2.16948454237495,-4.18202764976959,-296.822412793359
738504.44863707467447966337,-2.16948454237495,-4.18202764976959,-296.822412793359
738504.44863716512918472290,-2.16948454237495,-4.18202764976959,-296.79471724601
738504.44863725558388978243,-2.16948454237495,-4.18202764976959,-296.822412793359
738504.44863734603859484196,-2.16025269325846,-4.18202764976959,-296.831644642476
738504.44863743649329990149,-2.16025269325846,-4.18202764976959,-296.822412793359
738504.44863752694800496101,-2.16025269325846,-4.18202764976959,-296.868572038942
738504.44863761740271002054,-2.16948454237495,-4.18202764976959,-296.803949095126
738504.44863770774099975824,-2.16948454237495,-4.1727958006531,-296.840876491592
738504.44863779819570481777,-2.16948454237495,-4.18202764976959,-296.877803888058
738504.44863788865040987730,-2.15102084414197,-4.1727958006531,-296.840876491592
738504.44863797910511493683,-2.16948454237495,-4.18202764976959,-296.803949095126
738504.44863806955981999636,-2.16948454237495,-4.18202764976959,-296.840876491592
738504.44863816001452505589,-2.16948454237495,-4.18202764976959,-296.850108340709
738504.44863825046923011541,-2.16948454237495,-4.18202764976959,-296.76702169866
738504.44863834092393517494,-2.16025269325846,-4.18202764976959,-296.877803888058
738504.44863843137864023447,-2.16025269325846,-4.18202764976959,-296.850108340709
738504.44863852183334529400,-2.16025269325846,-4.1727958006531,-296.803949095126
738504.44863861217163503170,-2.16948454237495,-4.18202764976959,-296.840876491592
738504.44863870262634009123,-2.16948454237495,-4.1727958006531,-296.868572038942
738504.44863879308104515076,-2.17871639149144,-4.18202764976959,-296.859340189825
738504.44863888353575021029,-2.16025269325846,-4.1727958006531,-296.840876491592
738504.44863897399045526981,-2.16948454237495,-4.18202764976959,-296.831644642476
738504.44863906444516032934,-2.16948454237495,-4.1727958006531,-296.683935056612
738504.44863915489986538887,-2.16948454237495,-4.18202764976959,-296.702398754845
738504.44863924535457044840,-2.16025269325846,-4.1727958006531,-296.76702169866
738504.44863933580927550793,-2.16948454237495,-4.18202764976959,-296.76702169866
738504.44863942626398056746,-2.16025269325846,-4.1727958006531,-296.720862453078
738504.44863951660227030516,-2.16948454237495,-4.18202764976959,-296.757789849544
738504.44863960705697536469,-2.16025269325846,-4.1727958006531,-296.76702169866
738504.44863969751168042421,-2.16948454237495,-4.1727958006531,-296.813180944243
738504.44863978796638548374,-2.16948454237495,-4.18202764976959,-296.785485396893
738504.44863987842109054327,-2.15102084414197,-4.16356395153661,-296.868572038942
738504.44863996887579560280,-2.13255714590899,-4.16356395153661,-296.868572038942
738504.44864005933050066233,-2.10486159855953,-4.15433210242012,-296.757789849544
738504.44864014978520572186,-2.13255714590899,-4.18202764976959,-296.803949095126
738504.44864024023991078138,-2.11409344767602,-4.16356395153661,-296.803949095126
738504.44864033069461584091,-2.10486159855953,-4.16356395153661,-296.757789849544
738504.44864042103290557861,-2.0402386547441,-4.13586840418714,-296.785485396893
738504.44864051148761063814,-2.06793420209357,-4.13586840418714,-296.803949095126
738504.44864060194231569767,-2.09562974944304,-4.13586840418714,-296.803949095126
738504.44864069239702075720,-2.13255714590899,-4.14510025330363,-296.76702169866
738504.44864078285172581673,-2.13255714590899,-4.13586840418714,-296.739326151311
738504.44864087330643087626,-2.14178899502548,-4.14510025330363,-296.757789849544
738504.44864096376113593578,-2.16025269325846,-4.14510025330363,-296.803949095126
738504.44864105421584099531,-2.18794824060793,-4.15433210242012,-296.822412793359
738504.44864114467054605484,-2.2156437879574,-4.18202764976959,-296.79471724601
738504.44864123500883579254,-2.23410748619037,-4.18202764976959,-296.803949095126
738504.44864132546354085207,-2.2156437879574,-4.1727958006531,-296.840876491592
738504.44864141591824591160,-2.2156437879574,-4.1727958006531,-296.79471724601
738504.44864150637295097113,-2.22487563707389,-4.18202764976959,-296.859340189825
738504.44864159682765603065,-2.23410748619037,-4.18202764976959,-296.840876491592
738504.44864168728236109018,-2.25257118442335,-4.19125949888607,-296.868572038942
738504.44864177773706614971,-2.22487563707389,-4.18202764976959,-296.803949095126
738504.44864186819177120924,-2.23410748619037,-4.18202764976959,-296.840876491592
738504.44864195864647626877,-2.22487563707389,-4.1727958006531,-296.877803888058
738504.44864204910118132830,-2.2156437879574,-4.16356395153661,-296.850108340709
738504.44864213943947106600,-2.17871639149144,-4.12663655507065,-296.813180944243
738504.44864222989417612553,-2.22487563707389,-4.14510025330363,-296.840876491592
738504.44864232034888118505,-2.18794824060793,-4.09894100772118,-296.859340189825
738504.44864241080358624458,-2.10486159855953,-3.9973906674398,-296.748558000427
738504.44864250125829130411,-2.01254310739463,-3.87737662892544,-296.79471724601
738504.44864259171299636364,-1.74481948301645,-3.90507217627491,-296.591616565447
738504.44864268216770142317,-1.16321298867763,-4.11740470595416,-296.591616565447
738504.44864277262240648270,-0.627765739921262,-4.29280983916745,-296.711630603961
738504.44864286307711154222,-1.08935819574572,-4.44975127414777,-296.868572038942
738504.44864295353181660175,-1.78174687948241,-4.77286599322489,-296.923963133641
738504.44864304387010633945,-2.00331125827815,-5.07751701406903,-297.053209021271
738504.44864313432481139898,-2.06793420209357,-4.92980742820521,-297.062440870388
738504.44864322477951645851,-1.96638386181219,-4.56053346354564,-296.960890530106
738504.44864331523422151804,-1.99407940916166,-4.35743278298288,-296.933194982757
738504.44864340568892657757,-2.00331125827815,-4.2558824427015,-296.933194982757
738504.44864349614363163710,-2.09562974944304,-4.21895504623554,-296.923963133641
738504.44864358659833669662,-2.1233252967925,-4.15433210242012,-296.831644642476
738504.44864367705304175615,-2.1233252967925,-4.08970915860469,-296.877803888058
738504.44864376750774681568,-2.32642597735527,-4.31127353740043,-296.868572038942
738504.44864385796245187521,-2.28949858088931,-4.26511429181799,-296.757789849544
738504.44864394830074161291,-2.17871639149144,-4.15433210242012,-296.785485396893
738504.44864403875544667244,-2.15102084414197,-4.14510025330363,-296.76702169866
738504.44864412921015173197,-1.97561571092868,-3.97892696920682,-296.748558000427
738504.44864421966485679150,-2.10486159855953,-4.10817285683767,-296.748558000427
738504.44864431011956185102,-2.06793420209357,-4.08970915860469,-296.748558000427
738504.44864440057426691055,-1.98484756004517,-4.01585436567278,-296.730094302194
738504.44864449102897197008,-2.04947050386059,-4.08970915860469,-296.711630603961
738504.44864458148367702961,-2.09562974944304,-4.14510025330363,-296.711630603961
738504.44864467193838208914,-2.00331125827815,-4.07124546037172,-296.711630603961
738504.44864476227667182684,-1.83713797418134,-3.90507217627491,-296.693166905728
738504.44864485273137688637,-1.81867427594836,-3.90507217627491,-296.674703207495
738504.44864494318608194590,-1.84636982329783,-3.95123142185736,-296.683935056612
738504.44864503364078700542,-1.75405133213294,-3.89584032715842,-296.674703207495
738504.44864512409549206495,-1.698660237434,-3.85891293069246,-296.647007660146
738504.44864521455019712448,-1.75405133213294,-3.97892696920682,-296.656239509262
738504.44864530500490218401,-1.68942838831751,-3.93276772362438,-296.656239509262
738504.44864539545960724354,-1.46786400952177,-3.74813074129459,-296.61008026368
738504.44864548591431230307,-1.51402325510422,-3.82198553422651,-296.619312112796
738504.44864557636901736259,-1.50479140598773,-3.85891293069246,-296.600848414563
738504.44864566670730710030,-1.45863216040529,-3.85891293069246,-296.637775811029
738504.44864575716201215982,-1.41247291482284,-3.831217383343,-296.628543961913
