time_dn,ecg_projection_ll_ra_mV,ecg_projection_la_ra_mV,ecg_projection_vx_rl_mV
738504.46902520617004483938,-2.47413556321909,-5.75144199957274,-296.26850184637
738504.46902529662474989891,-2.51106295968505,-5.76990569780572,-296.250038148137
738504.46902538707945495844,-2.52029480880154,-5.76990569780572,-296.250038148137
738504.46902547753416001797,-2.52029480880154,-5.76990569780572,-296.166951506088
738504.46902556787244975567,-2.52952665791803,-5.76990569780572,-296.296197393719
738504.46902565832715481520,-2.52952665791803,-5.76990569780572,-296.286965544603
738504.46902574878185987473,-2.52952665791803,-5.76990569780572,-296.277733695486
738504.46902583923656493425,-2.52952665791803,-5.77913754692221,-296.296197393719
738504.46902592969126999378,-2.52952665791803,-5.77913754692221,-296.296197393719
738504.46902602014597505331,-2.52029480880154,-5.7883693960387,-296.250038148137
738504.46902611060068011284,-2.52029480880154,-5.77913754692221,-296.314661091952
738504.46902620093896985054,-2.52029480880154,-5.7883693960387,-296.323892941069
738504.46902629139367491007,-2.52029480880154,-5.77913754692221,-296.24080629902
738504.46902638184837996960,-2.52029480880154,-5.77913754692221,-296.296197393719
738504.46902647230308502913,-2.51106295968505,-5.74221015045625,-296.323892941069
738504.46902656275779008865,-2.48336741233558,-5.71451460310678,-296.222342600787
738504.46902665321249514818,-2.41874446852016,-5.63142796105838,-296.24080629902
738504.46902674355078488588,-2.25257118442335,-5.48371837519456,-296.222342600787
738504.46902683400548994541,-1.8740653706473,-5.45602282784509,-296.139255958739
738504.46902692446019500494,-1.2739951780755,-5.72374645222327,-296.102328562273
738504.46902701491490006447,-0.97857600634785,-5.81606494338816,-296.176183355205
738504.46902710536960512400,-1.13551744132817,-6.00993377483444,-296.277733695486
738504.46902719582431018353,-1.96638386181219,-6.36997589037751,-296.360820337535
738504.46902728627901524305,-2.28026673177282,-6.7207861568041,-296.490066225166
738504.46902737661730498075,-2.36335337382122,-6.71155430768761,-296.526993621632
738504.46902746707201004028,-2.32642597735527,-6.39767143772698,-296.434675130467
738504.46902755752671509981,-2.2987304300058,-6.13917966246528,-296.333124790185
738504.46902764798142015934,-2.37258522293771,-6.00070192571795,-296.26850184637
738504.46902773843612521887,-2.40028077028718,-5.89915158543657,-296.231574449904
738504.46902782889083027840,-2.43720816675314,-5.83452864162114,-296.213110751671
738504.46902791922912001610,-2.45567186498611,-5.81606494338816,-296.222342600787
738504.46902800968382507563,-2.43720816675314,-5.77913754692221,-296.185415204321
738504.46902810013853013515,-2.40951261940367,-5.76990569780572,-296.185415204321
738504.46902819059323519468,-2.39104892117069,-5.74221015045625,-296.231574449904
738504.46902828104794025421,-2.36335337382122,-5.74221015045625,-296.203878902554
738504.46902837150264531374,-2.33565782647175,-5.71451460310678,-296.24080629902
738504.46902846195735037327,-2.31719412823878,-5.71451460310678,-296.231574449904
738504.46902855229564011097,-2.2987304300058,-5.69605090487381,-296.157719656972
738504.46902864275034517050,-2.28026673177282,-5.68681905575732,-296.203878902554
738504.46902873320505023003,-2.26180303353984,-5.66835535752434,-296.194647053438
738504.46902882365975528955,-2.23410748619037,-5.65912350840785,-296.185415204321
738504.46902891411446034908,-2.2156437879574,-5.64989165929136,-296.166951506088
738504.46902900456916540861,-2.18794824060793,-5.62219611194189,-296.046937467574
738504.46902909490745514631,-2.16025269325846,-5.6129642628254,-296.139255958739
738504.46902918536216020584,-2.1233252967925,-5.57603686635945,-296.139255958739
738504.46902927581686526537,-2.07716605121006,-5.56680501724296,-296.157719656972
738504.46902936627157032490,-2.03100680562761,-5.52064577166051,-296.185415204321
738504.46902945672627538443,-1.96638386181219,-5.49295022431104,-296.194647053438
738504.46902954718098044395,-1.90176091799676,-5.4467909787286,-296.166951506088
738504.46902963763568550348,-1.82790612506485,-5.41909543137913,-296.11156041139
738504.46902972797397524118,-1.76328318124943,-5.38216803491317,-296.130024109622
738504.46902981842868030071,-1.698660237434,-5.3637043366802,-296.166951506088
738504.46902990888338536024,-1.65250099185156,-5.34524063844722,-296.102328562273
738504.46902999933809041977,-1.6155735953856,-5.34524063844722,-296.139255958739
738504.46903008979279547930,-1.58787804803613,-5.34524063844722,-296.148487807855
738504.46903018024750053883,-1.58787804803613,-5.37293618579669,-296.102328562273
738504.46903027058579027653,-1.62480544450209,-5.40986358226264,-296.148487807855
738504.46903036104049533606,-1.698660237434,-5.45602282784509,-296.176183355205
738504.46903045149520039558,-1.80944242683187,-5.52064577166051,-296.194647053438
738504.46903054194990545511,-1.92945646534623,-5.56680501724296,-296.176183355205
738504.46903063240461051464,-2.05870235297708,-5.62219611194189,-296.222342600787
738504.46903072285931557417,-2.11409344767602,-5.64065981017487,-296.176183355205
738504.46903081331402063370,-2.2156437879574,-5.68681905575732,-296.166951506088
738504.46903090365231037140,-2.28949858088931,-5.71451460310678,-296.185415204321
738504.46903099410701543093,-2.33565782647175,-5.73297830133976,-296.194647053438
738504.46903108456172049046,-2.37258522293771,-5.74221015045625,-296.203878902554
738504.46903117501642554998,-2.40028077028718,-5.76067384868923,-296.222342600787
738504.46903126547113060951,-2.41874446852016,-5.76990569780572,-296.26850184637
738504.46903135592583566904,-2.42797631763665,-5.76990569780572,-296.259269997253
738504.46903144626412540674,-2.43720816675314,-5.77913754692221,-296.213110751671
738504.46903153671883046627,-2.43720816675314,-5.77913754692221,-296.222342600787
738504.46903162717353552580,-2.43720816675314,-5.77913754692221,-296.222342600787
738504.46903171762824058533,-2.43720816675314,-5.77913754692221,-296.250038148137
738504.46903180808294564486,-2.43720816675314,-5.7883693960387,-296.231574449904
738504.46903189853765070438,-2.43720816675314,-5.77913754692221,-296.24080629902
738504.46903198899235576391,-2.43720816675314,-5.7883693960387,-296.231574449904
738504.46903207933064550161,-2.43720816675314,-5.77913754692221,-296.194647053438
738504.46903216978535056114,-2.42797631763665,-5.7883693960387,-296.203878902554
738504.46903226024005562067,-2.43720816675314,-5.77913754692221,-296.231574449904
738504.46903235069476068020,-2.42797631763665,-5.7883693960387,-296.24080629902
738504.46903244114946573973,-2.42797631763665,-5.77913754692221,-296.056169316691
738504.46903253160417079926,-2.42797631763665,-5.7883693960387,-296.102328562273
738504.46903262194246053696,-2.43720816675314,-5.77913754692221,-296.24080629902
738504.46903271239716559649,-2.42797631763665,-5.77913754692221,-296.277733695486
738504.46903280285187065601,-2.42797631763665,-5.77913754692221,-296.26850184637
738504.46903289330657571554,-2.43720816675314,-5.77913754692221,-296.26850184637
738504.46903298376128077507,-2.42797631763665,-5.77913754692221,-296.26850184637
738504.46903307421598583460,-2.43720816675314,-5.76990569780572,-296.296197393719
738504.46903316467069089413,-2.43720816675314,-5.77913754692221,-296.203878902554
738504.46903325500898063183,-2.43720816675314,-5.76990569780572,-296.24080629902
738504.46903334546368569136,-2.43720816675314,-5.77913754692221,-296.222342600787
738504.46903343591839075089,-2.43720816675314,-5.76990569780572,-296.231574449904
738504.46903352637309581041,-2.43720816675314,-5.77913754692221,-296.250038148137
738504.46903361682780086994,-2.44644001586962,-5.76990569780572,-296.26850184637
738504.46903370728250592947,-2.44644001586962,-5.77913754692221,-296.24080629902
738504.46903379762079566717,-2.44644001586962,-5.76990569780572,-296.26850184637
738504.46903388807550072670,-2.44644001586962,-5.77913754692221,-296.296197393719
738504.46903397853020578623,-2.45567186498611,-5.76990569780572,-296.296197393719
738504.46903406898491084576,-2.45567186498611,-5.77913754692221,-296.24080629902
738504.46903415943961590528,-2.45567186498611,-5.76990569780572,-296.213110751671
738504.46903424989432096481,-2.45567186498611,-5.77913754692221,-296.222342600787
738504.46903434034902602434,-2.4649037141026,-5.76990569780572,-296.166951506088
738504.46903443068731576204,-2.4649037141026,-5.77913754692221,-296.203878902554
738504.46903452114202082157,-2.4649037141026,-5.77913754692221,-296.213110751671
738504.46903461159672588110,-2.4649037141026,-5.76990569780572,-296.259269997253
738504.46903470205143094063,-2.4649037141026,-5.77913754692221,-296.203878902554
738504.46903479250613600016,-2.47413556321909,-5.76990569780572,-296.277733695486
738504.46903488296084105968,-2.47413556321909,-5.7883693960387,-296.286965544603
738504.46903497329913079739,-2.47413556321909,-5.77913754692221,-296.26850184637
738504.46903506375383585691,-2.47413556321909,-5.7883693960387,-296.277733695486
738504.46903515420854091644,-2.47413556321909,-5.76990569780572,-296.277733695486
738504.46903524466324597597,-2.47413556321909,-5.77913754692221,-296.305429242836
738504.46903533511795103550,-2.47413556321909,-5.76990569780572,-296.222342600787
738504.46903542557265609503,-2.47413556321909,-5.77913754692221,-296.286965544603
738504.46903551602736115456,-2.47413556321909,-5.76990569780572,-296.286965544603
738504.46903560636565089226,-2.47413556321909,-5.77913754692221,-296.231574449904
738504.46903569682035595179,-2.47413556321909,-5.77913754692221,-296.305429242836
738504.46903578727506101131,-2.47413556321909,-5.77913754692221,-296.277733695486
738504.46903587772976607084,-2.47413556321909,-5.76990569780572,-296.250038148137
738504.46903596818447113037,-2.47413556321909,-5.77913754692221,-296.102328562273
738504.46903605863917618990,-2.47413556321909,-5.77913754692221,-296.213110751671
738504.46903614897746592760,-2.47413556321909,-5.77913754692221,-296.277733695486
738504.46903623943217098713,-2.47413556321909,-5.77913754692221,-296.24080629902
738504.46903632988687604666,-2.48336741233558,-5.76990569780572,-296.286965544603
738504.46903642034158110619,-2.48336741233558,-5.77913754692221,-296.286965544603
738504.46903651079628616571,-2.47413556321909,-5.76990569780572,-296.250038148137
738504.46903660125099122524,-2.47413556321909,-5.77913754692221,-296.259269997253
738504.46903669170569628477,-2.48336741233558,-5.76990569780572,-296.222342600787
738504.46903678204398602247,-2.48336741233558,-5.77913754692221,-296.203878902554
738504.46903687249869108200,-2.47413556321909,-5.76990569780572,-296.194647053438
738504.46903696295339614153,-2.48336741233558,-5.77913754692221,-296.286965544603
738504.46903705340810120106,-2.48336741233558,-5.76990569780572,-296.305429242836
738504.46903714386280626059,-2.48336741233558,-5.76990569780572,-296.231574449904
738504.46903723431751132011,-2.48336741233558,-5.76990569780572,-296.194647053438
738504.46903732465580105782,-2.48336741233558,-5.76990569780572,-296.231574449904
738504.46903741511050611734,-2.48336741233558,-5.76990569780572,-296.231574449904
738504.46903750556521117687,-2.48336741233558,-5.76990569780572,-296.231574449904
738504.46903759601991623640,-2.48336741233558,-5.76990569780572,-296.231574449904
738504.46903768647462129593,-2.48336741233558,-5.76990569780572,-296.213110751671
738504.46903777692932635546,-2.48336741233558,-5.76990569780572,-296.286965544603
738504.46903786738403141499,-2.48336741233558,-5.76990569780572,-296.296197393719
738504.46903795772232115269,-2.48336741233558,-5.76990569780572,-296.277733695486
738504.46903804817702621222,-2.48336741233558,-5.76067384868923,-296.286965544603
738504.46903813863173127174,-2.47413556321909,-5.76990569780572,-296.296197393719
738504.46903822908643633127,-2.48336741233558,-5.76990569780572,-296.314661091952
738504.46903831954114139080,-2.48336741233558,-5.76990569780572,-296.24080629902
738504.46903840999584645033,-2.48336741233558,-5.76990569780572,-296.26850184637
738504.46903850033413618803,-2.48336741233558,-5.76990569780572,-296.333124790185
738504.46903859078884124756,-2.48336741233558,-5.76990569780572,-296.26850184637
738504.46903868124354630709,-2.48336741233558,-5.76990569780572,-296.296197393719
738504.46903877169825136662,-2.48336741233558,-5.76990569780572,-296.333124790185
738504.46903886215295642614,-2.48336741233558,-5.76990569780572,-296.314661091952
738504.46903895260766148567,-2.48336741233558,-5.76990569780572,-296.286965544603
738504.46903904306236654520,-2.48336741233558,-5.76990569780572,-296.286965544603
738504.46903913340065628290,-2.48336741233558,-5.76990569780572,-296.314661091952
738504.46903922385536134243,-2.48336741233558,-5.76067384868923,-296.250038148137
738504.46903931431006640196,-2.48336741233558,-5.76990569780572,-296.305429242836
738504.46903940476477146149,-2.48336741233558,-5.76067384868923,-296.305429242836
738504.46903949521947652102,-2.48336741233558,-5.76990569780572,-296.130024109622
738504.46903958567418158054,-2.48336741233558,-5.76067384868923,-296.194647053438
738504.46903967601247131824,-2.48336741233558,-5.76990569780572,-296.277733695486
738504.46903976646717637777,-2.48336741233558,-5.76067384868923,-296.305429242836
738504.46903985692188143730,-2.48336741233558,-5.77913754692221,-296.24080629902
738504.46903994737658649683,-2.48336741233558,-5.76990569780572,-296.296197393719
738504.46904003783129155636,-2.48336741233558,-5.77913754692221,-296.296197393719
738504.46904012828599661589,-2.48336741233558,-5.76990569780572,-296.314661091952
738504.46904021874070167542,-2.48336741233558,-5.76990569780572,-296.250038148137
738504.46904030907899141312,-2.48336741233558,-5.77913754692221,-296.277733695486
738504.46904039953369647264,-2.48336741233558,-5.76990569780572,-296.314661091952
738504.46904048998840153217,-2.48336741233558,-5.77913754692221,-296.222342600787
738504.46904058044310659170,-2.48336741233558,-5.76067384868923,-296.277733695486
738504.46904067089781165123,-2.48336741233558,-5.77913754692221,-296.222342600787
738504.46904076135251671076,-2.48336741233558,-5.76067384868923,-296.222342600787
738504.46904085169080644846,-2.48336741233558,-5.76990569780572,-296.222342600787
738504.46904094214551150799,-2.48336741233558,-5.76067384868923,-296.24080629902
738504.46904103260021656752,-2.48336741233558,-5.76990569780572,-296.231574449904
738504.46904112305492162704,-2.48336741233558,-5.76067384868923,-296.231574449904
738504.46904121350962668657,-2.48336741233558,-5.76990569780572,-296.26850184637
738504.46904130396433174610,-2.48336741233558,-5.76067384868923,-296.286965544603
738504.46904139441903680563,-2.48336741233558,-5.77913754692221,-296.305429242836
738504.46904148475732654333,-2.48336741233558,-5.76067384868923,-296.323892941069
738504.46904157521203160286,-2.48336741233558,-5.76990569780572,-296.26850184637
738504.46904166566673666239,-2.48336741233558,-5.76990569780572,-296.250038148137
738504.46904175612144172192,-2.48336741233558,-5.76990569780572,-296.203878902554
738504.46904184657614678144,-2.48336741233558,-5.76990569780572,-296.26850184637
738504.46904193703085184097,-2.48336741233558,-5.76067384868923,-296.286965544603
738504.46904202736914157867,-2.4649037141026,-5.76990569780572,-296.203878902554
738504.46904211782384663820,-2.45567186498611,-5.76067384868923,-296.259269997253
738504.46904220827855169773,-2.43720816675314,-5.77913754692221,-296.333124790185
738504.46904229873325675726,-2.43720816675314,-5.76067384868923,-296.296197393719
738504.46904238918796181679,-2.42797631763665,-5.76990569780572,-296.259269997253
738504.46904247964266687632,-2.40951261940367,-5.74221015045625,-296.323892941069
738504.46904257009737193584,-2.36335337382122,-5.74221015045625,-296.286965544603
738504.46904266043566167355,-2.35412152470473,-5.71451460310678,-296.26850184637
738504.46904275089036673307,-2.40028077028718,-5.73297830133976,-296.259269997253
738504.46904284134507179260,-2.42797631763665,-5.73297830133976,-296.314661091952
738504.46904293179977685213,-2.44644001586962,-5.74221015045625,-296.296197393719
738504.46904302225448191166,-2.43720816675314,-5.74221015045625,-296.08386486404
738504.46904311270918697119,-2.47413556321909,-5.76067384868923,-296.213110751671
738504.46904320304747670889,-2.49259926145207,-5.76990569780572,-296.259269997253
738504.46904329350218176842,-2.51106295968505,-5.77913754692221,-296.185415204321
738504.46904338395688682795,-2.49259926145207,-5.76067384868923,-296.213110751671
738504.46904347441159188747,-2.50183111056856,-5.76067384868923,-296.213110751671
738504.46904356486629694700,-2.50183111056856,-5.76990569780572,-296.222342600787
738504.46904365532100200653,-2.50183111056856,-5.76067384868923,-296.194647053438
738504.46904374577570706606,-2.51106295968505,-5.77913754692221,-296.26850184637
738504.46904383611399680376,-2.50183111056856,-5.76990569780572,-296.296197393719
738504.46904392656870186329,-2.49259926145207,-5.76067384868923,-296.286965544603
738504.46904401702340692282,-2.50183111056856,-5.76990569780572,-296.250038148137
738504.46904410747811198235,-2.49259926145207,-5.77913754692221,-296.323892941069
738504.46904419793281704187,-2.4649037141026,-5.75144199957274,-296.296197393719
738504.46904428838752210140,-2.48336741233558,-5.76990569780572,-296.213110751671
738504.46904437872581183910,-2.48336741233558,-5.74221015045625,-296.259269997253
738504.46904446918051689863,-2.48336741233558,-5.73297830133976,-296.222342600787
738504.46904455963522195816,-2.40028077028718,-5.64989165929136,-296.185415204321
738504.46904465008992701769,-2.25257118442335,-5.47448652607807,-296.194647053438
738504.46904474054463207722,-1.96638386181219,-5.45602282784509,-296.130024109622
738504.46904483099933713675,-1.47709585863826,-5.76067384868923,-296.120792260506
738504.46904492145404219627,-0.932416760765404,-5.98223822748497,-296.148487807855
738504.46904501179233193398,-1.28322702719199,-6.18533890804773,-296.250038148137
738504.46904510224703699350,-1.99407940916166,-6.49922177800836,-296.370052186651
738504.46904519270174205303,-2.02177495651112,-6.5546128727073,-296.462370677816
738504.46904528315644711256,-2.02177495651112,-6.34228034302805,-296.490066225166
738504.46904537361115217209,-2.16025269325846,-6.18533890804773,-296.416211432234
738504.46904546406585723162,-2.48336741233558,-6.28688924832911,-296.42544328135
738504.46904555440414696932,-2.51106295968505,-6.1299478133488,-296.379284035768
738504.46904564485885202885,-2.25257118442335,-5.70528275399029,-296.342356639302
738504.46904573531355708838,-2.20641193884091,-5.60373241370891,-296.333124790185
738504.46904582576826214790,-2.4649037141026,-5.81606494338816,-296.26850184637
738504.46904591622296720743,-2.53875850703452,-5.88991973632008,-296.305429242836
738504.46904600667767226696,-2.57568590350047,-5.92684713278603,-296.296197393719
738504.46904609713237732649,-2.52029480880154,-5.88068788720359,-296.277733695486
738504.46904618747066706419,-2.4649037141026,-5.81606494338816,-296.296197393719
738504.46904627792537212372,-2.41874446852016,-5.7883693960387,-296.286965544603
738504.46904636838007718325,-2.37258522293771,-5.73297830133976,-296.194647053438
738504.46904645883478224277,-2.33565782647175,-5.71451460310678,-296.277733695486
738504.46904654928948730230,-2.30796227912229,-5.67758720664083,-296.139255958739
738504.46904663974419236183,-2.25257118442335,-5.64065981017487,-296.120792260506
738504.46904673008248209953,-2.19718008972442,-5.58526871547594,-296.259269997253
738504.46904682053718715906,-2.20641193884091,-5.6129642628254,-296.259269997253
738504.46904691099189221859,-2.26180303353984,-5.66835535752434,-296.213110751671
738504.46904700144659727812,-2.23410748619037,-5.66835535752434,-296.222342600787
738504.46904709190130233765,-2.18794824060793,-5.62219611194189,-296.194647053438
738504.46904718235600739717,-2.13255714590899,-5.59450056459243,-296.148487807855
738504.46904727281071245670,-2.06793420209357,-5.529877620777,-296.102328562273
738504.46904736314900219440,-2.00331125827815,-5.50218207342753,-296.11156041139
738504.46904745360370725393,-1.91099276711325,-5.43755912961211,-296.120792260506
738504.46904754405841231346,-1.86483352153081,-5.40063173314615,-296.11156041139
738504.46904763451311737299,-1.62480544450209,-5.20676290169988,-296.120792260506
738504.46904772496782243252,-1.48632770775475,-5.08674886318552,-296.130024109622
738504.46904781542252749205,-1.60634174626911,-5.25292214728233,-296.176183355205
738504.46904790576081722975,-1.67096469008454,-5.33600878933073,-296.074633014924
738504.46904799621552228928,-1.75405133213294,-5.48371837519456,-296.157719656972
738504.46904808667022734880,-1.64326914273507,-5.38216803491317,-296.139255958739
738504.46904817712493240833,-1.66173284096805,-5.43755912961211,-296.102328562273
738504.46904826757963746786,-1.63403729361858,-5.38216803491317,-296.148487807855
738504.46904835803434252739,-1.66173284096805,-5.37293618579669,-296.213110751671
738504.46904844848904758692,-1.91099276711325,-5.56680501724296,-296.157719656972
738504.46904853882733732462,-2.02177495651112,-5.62219611194189,-296.148487807855
738504.46904862928204238415,-2.15102084414197,-5.66835535752434,-296.259269997253
738504.46904871973674744368,-2.2987304300058,-5.77913754692221,-296.26850184637
738504.46904881019145250320,-2.28026673177282,-5.71451460310678,-296.259269997253
738504.46904890064615756273,-2.23410748619037,-5.63142796105838,-296.286965544603
738504.46904899110086262226,-2.47413556321909,-5.85299233985412,-296.259269997253
738504.46904908143915235996,-2.50183111056856,-5.88068788720359,-296.24080629902
738504.46904917189385741949,-2.44644001586962,-5.81606494338816,-296.213110751671
738504.46904926234856247902,-2.44644001586962,-5.80683309427168,-296.222342600787
738504.46904935280326753855,-2.44644001586962,-5.80683309427168,-296.231574449904
738504.46904944325797259808,-2.44644001586962,-5.79760124515519,-296.203878902554
738504.46904953371267765760,-2.45567186498611,-5.82529679250465,-296.222342600787
738504.46904962416738271713,-2.4649037141026,-5.81606494338816,-296.222342600787
738504.46904971450567245483,-2.4649037141026,-5.84376049073763,-296.250038148137
738504.46904980496037751436,-2.40951261940367,-5.76990569780572,-296.24080629902
738504.46904989541508257389,-2.43720816675314,-5.80683309427168,-296.222342600787
738504.46904998586978763342,-2.49259926145207,-5.86222418897061,-296.222342600787
738504.46905007632449269295,-2.44644001586962,-5.81606494338816,-296.130024109622
738504.46905016677919775248,-2.45567186498611,-5.82529679250465,-296.166951506088
738504.46905025711748749018,-2.45567186498611,-5.83452864162114,-296.250038148137
738504.46905034757219254971,-2.44644001586962,-5.82529679250465,-296.231574449904
738504.46905043802689760923,-2.4649037141026,-5.83452864162114,-296.231574449904
738504.46905052848160266876,-2.34488967558824,-5.69605090487381,-296.277733695486
738504.46905061893630772829,-2.53875850703452,-5.90838343455306,-296.286965544603
738504.46905070939101278782,-2.52029480880154,-5.88068788720359,-296.286965544603
738504.46905079984571784735,-2.48336741233558,-5.84376049073763,-296.277733695486
738504.46905089018400758505,-2.51106295968505,-5.88068788720359,-296.314661091952
738504.46905098063871264458,-2.3818170720542,-5.72374645222327,-296.305429242836
738504.46905107109341770411,-2.4649037141026,-5.81606494338816,-296.231574449904
738504.46905116154812276363,-2.52029480880154,-5.8714560380871,-296.277733695486
738504.46905125200282782316,-2.53875850703452,-5.88991973632008,-296.277733695486
738504.46905134245753288269,-2.50183111056856,-5.84376049073763,-296.277733695486
738504.46905143279582262039,-2.49259926145207,-5.83452864162114,-296.259269997253
738504.46905152325052767992,-2.54799035615101,-5.88991973632008,-296.314661091952
738504.46905161370523273945,-2.3818170720542,-5.71451460310678,-296.286965544603
738504.46905170415993779898,-2.52952665791803,-5.8714560380871,-296.194647053438
738504.46905179461464285851,-2.51106295968505,-5.84376049073763,-296.222342600787
738504.46905188506934791803,-2.39104892117069,-5.72374645222327,-296.203878902554
738504.46905197552405297756,-2.47413556321909,-5.80683309427168,-296.213110751671
738504.46905206586234271526,-2.59414960173345,-5.92684713278603,-296.203878902554
738504.46905215631704777479,-2.52952665791803,-5.86222418897061,-296.26850184637
738504.46905224677175283432,-2.52952665791803,-5.85299233985412,-296.286965544603
738504.46905233722645789385,-2.60338145084994,-5.92684713278603,-296.26850184637
738504.46905242768116295338,-2.52952665791803,-5.86222418897061,-296.305429242836
738504.46905251813586801291,-2.50183111056856,-5.81606494338816,-296.296197393719
738504.46905260847415775061,-2.42797631763665,-5.75144199957274,-296.314661091952
738504.46905269892886281013,-2.39104892117069,-5.67758720664083,-296.231574449904
738504.46905278938356786966,-2.52952665791803,-5.85299233985412,-296.296197393719
738504.46905287983827292919,-2.67723624378185,-5.99147007660146,-296.314661091952
738504.46905297029297798872,-2.61261329996643,-5.93607898190252,-296.231574449904
738504.46905306074768304825,-2.58491775261696,-5.88991973632008,-296.26850184637
738504.46905315120238810778,-2.55722220526749,-5.86222418897061,-296.26850184637
738504.46905324154067784548,-2.58491775261696,-5.89915158543657,-296.26850184637
738504.46905333199538290501,-2.55722220526749,-5.85299233985412,-296.222342600787
738504.46905342245008796453,-2.53875850703452,-5.85299233985412,-296.231574449904
738504.46905351290479302406,-2.48336741233558,-5.77913754692221,-296.24080629902
738504.46905360335949808359,-2.59414960173345,-5.88991973632008,-296.166951506088
738504.46905369381420314312,-2.54799035615101,-5.83452864162114,-296.130024109622
738504.46905378415249288082,-2.61261329996643,-5.91761528366955,-296.250038148137
738504.46905387460719794035,-2.54799035615101,-5.83452864162114,-296.24080629902
738504.46905396506190299988,-2.61261329996643,-5.91761528366955,-296.296197393719
738504.46905405551660805941,-2.61261329996643,-5.90838343455306,-296.231574449904
738504.46905414597131311893,-2.58491775261696,-5.88068788720359,-296.213110751671
738504.46905423642601817846,-2.58491775261696,-5.8714560380871,-296.26850184637
738504.46905432688072323799,-2.56645405438398,-5.8714560380871,-296.259269997253
738504.46905441721901297569,-2.52029480880154,-5.80683309427168,-296.314661091952
738504.46905450767371803522,-2.58491775261696,-5.88068788720359,-296.259269997253
738504.46905459812842309475,-2.64954069643239,-5.93607898190252,-296.277733695486
738504.46905468858312815428,-2.58491775261696,-5.88068788720359,-296.250038148137
738504.46905477903783321381,-2.63107699819941,-5.91761528366955,-296.26850184637
738504.46905486949253827333,-2.62184514908292,-5.90838343455306,-296.305429242836
738504.46905495983082801104,-2.57568590350047,-5.86222418897061,-296.286965544603
738504.46905505028553307056,-2.59414960173345,-5.8714560380871,-296.323892941069
738504.46905514074023813009,-2.59414960173345,-5.88068788720359,-296.26850184637
738504.46905523119494318962,-2.56645405438398,-5.83452864162114,-296.305429242836
738504.46905532164964824915,-2.62184514908292,-5.91761528366955,-296.323892941069
738504.46905541210435330868,-2.6403088473159,-5.91761528366955,-296.24080629902
738504.46905550255905836821,-2.61261329996643,-5.89915158543657,-296.305429242836
738504.46905559289734810591,-2.59414960173345,-5.86222418897061,-296.305429242836
738504.46905568335205316544,-2.61261329996643,-5.88991973632008,-296.222342600787
738504.46905577380675822496,-2.61261329996643,-5.88991973632008,-296.231574449904
738504.46905586426146328449,-2.57568590350047,-5.8714560380871,-296.231574449904
738504.46905595471616834402,-2.59414960173345,-5.86222418897061,-296.231574449904
738504.46905604517087340355,-2.6403088473159,-5.91761528366955,-296.222342600787
738504.46905613550916314125,-2.64954069643239,-5.90838343455306,-296.277733695486
738504.46905622596386820078,-2.58491775261696,-5.86222418897061,-296.314661091952
738504.46905631641857326031,-2.54799035615101,-5.80683309427168,-296.323892941069
738504.46905640687327831984,-2.7233954893643,-6.00070192571795,-296.296197393719
738504.46905649732798337936,-2.66800439466536,-5.94531083101901,-296.314661091952
738504.46905658778268843889,-2.64954069643239,-5.91761528366955,-296.333124790185
738504.46905667823739349842,-2.63107699819941,-5.90838343455306,-296.342356639302
738504.46905676857568323612,-2.62184514908292,-5.88068788720359,-296.305429242836
738504.46905685903038829565,-2.61261329996643,-5.88068788720359,-296.323892941069
738504.46905694948509335518,-2.61261329996643,-5.8714560380871,-296.360820337535
738504.46905703993979841471,-2.61261329996643,-5.88991973632008,-296.286965544603
738504.46905713039450347424,-2.61261329996643,-5.8714560380871,-296.259269997253
738504.46905722084920853376,-2.61261329996643,-5.8714560380871,-296.203878902554
738504.46905731118749827147,-2.65877254554888,-5.91761528366955,-296.231574449904
738504.46905740164220333099,-2.66800439466536,-5.92684713278603,-296.26850184637
738504.46905749209690839052,-2.66800439466536,-5.92684713278603,-296.259269997253
738504.46905758255161345005,-2.64954069643239,-5.90838343455306,-296.277733695486
738504.46905767300631850958,-2.62184514908292,-5.88991973632008,-296.286965544603
738504.46905776346102356911,-2.58491775261696,-5.84376049073763,-296.277733695486
738504.46905785391572862864,-2.59414960173345,-5.86222418897061,-296.259269997253
738504.46905794425401836634,-2.67723624378185,-5.93607898190252,-296.277733695486
738504.46905803470872342587,-2.70493179113132,-5.96377452925199,-296.277733695486
738504.46905812516342848539,-2.65877254554888,-5.91761528366955,-296.277733695486
738504.46905821561813354492,-2.64954069643239,-5.91761528366955,-296.277733695486
738504.46905830607283860445,-2.6403088473159,-5.89915158543657,-296.26850184637
738504.46905839652754366398,-2.60338145084994,-5.89915158543657,-296.277733695486
738504.46905848698224872351,-2.57568590350047,-5.86222418897061,-296.296197393719
738504.46905857732053846121,-2.63107699819941,-5.92684713278603,-296.296197393719
738504.46905866777524352074,-2.60338145084994,-5.89915158543657,-296.305429242836
738504.46905875822994858027,-2.57568590350047,-5.88991973632008,-296.296197393719
738504.46905884868465363979,-2.54799035615101,-5.8714560380871,-296.305429242836
738504.46905893913935869932,-2.51106295968505,-5.83452864162114,-296.323892941069
738504.46905902959406375885,-2.53875850703452,-5.84376049073763,-296.305429242836
738504.46905911993235349655,-2.61261329996643,-5.8714560380871,-296.305429242836
738504.46905921038705855608,-2.63107699819941,-5.88068788720359,-296.305429242836
738504.46905930084176361561,-2.61261329996643,-5.85299233985412,-296.323892941069
738504.46905939129646867514,-2.66800439466536,-5.90838343455306,-296.286965544603
738504.46905948175117373466,-2.67723624378185,-5.89915158543657,-296.333124790185
738504.46905957220587879419,-2.67723624378185,-5.89915158543657,-296.360820337535
738504.46905966266058385372,-2.65877254554888,-5.8714560380871,-296.24080629902
738504.46905975299887359142,-2.64954069643239,-5.8714560380871,-296.305429242836
738504.46905984345357865095,-2.66800439466536,-5.88068788720359,-296.314661091952
738504.46905993390828371048,-2.70493179113132,-5.92684713278603,-296.314661091952
738504.46906002436298877001,-2.70493179113132,-5.91761528366955,-296.323892941069
738504.46906011481769382954,-2.68646809289834,-5.91761528366955,-296.342356639302
738504.46906020527239888906,-2.68646809289834,-5.91761528366955,-296.277733695486
738504.46906029561068862677,-2.68646809289834,-5.92684713278603,-296.231574449904
738504.46906038606539368629,-2.67723624378185,-5.90838343455306,-296.250038148137
738504.46906047652009874582,-2.6403088473159,-5.88991973632008,-296.250038148137
738504.46906056697480380535,-2.66800439466536,-5.88991973632008,-296.213110751671
738504.46906065742950886488,-2.66800439466536,-5.88068788720359,-296.203878902554
738504.46906074788421392441,-2.6403088473159,-5.84376049073763,-296.157719656972
738504.46906083833891898394,-2.57568590350047,-5.76067384868923,-296.314661091952
738504.46906092867720872164,-2.41874446852016,-5.58526871547594,-296.185415204321
738504.46906101913191378117,-2.09562974944304,-5.529877620777,-296.166951506088
738504.46906110958661884069,-1.51402325510422,-5.76067384868923,-296.130024109622
738504.46906120004132390022,-1.11705374309519,-5.97300637836848,-296.176183355205
738504.46906129049602895975,-1.70789208655049,-6.24073000274667,-296.277733695486
738504.46906138095073401928,-2.3818170720542,-6.71155430768761,-296.4531388287
738504.46906147128902375698,-2.45567186498611,-6.93311868648335,-296.545457319865
738504.46906156174372881651,-2.51106295968505,-6.75771355327006,-296.480834376049
738504.46906165219843387604,-2.40951261940367,-6.41613513595996,-296.434675130467
738504.46906174265313893557,-2.45567186498611,-6.18533890804773,-296.370052186651
738504.46906183310784399509,-2.51106295968505,-6.08378856776635,-296.379284035768
738504.46906192356254905462,-2.55722220526749,-5.98223822748497,-296.351588488418
738504.46906201401725411415,-2.58491775261696,-5.93607898190252,-296.314661091952
738504.46906210435554385185,-2.58491775261696,-5.89915158543657,-296.24080629902
738504.46906219481024891138,-2.57568590350047,-5.88991973632008,-296.250038148137
738504.46906228526495397091,-2.53875850703452,-5.85299233985412,-296.286965544603
738504.46906237571965903044,-2.52952665791803,-5.84376049073763,-296.250038148137
738504.46906246617436408997,-2.49259926145207,-5.82529679250465,-296.26850184637
738504.46906255662906914949,-2.48336741233558,-5.81606494338816,-296.259269997253
738504.46906264696735888720,-2.4649037141026,-5.80683309427168,-296.277733695486
738504.46906273742206394672,-2.43720816675314,-5.79760124515519,-296.231574449904
738504.46906282787676900625,-2.42797631763665,-5.77913754692221,-296.26850184637
738504.46906291833147406578,-2.40951261940367,-5.77913754692221,-296.250038148137
738504.46906300878617912531,-2.36335337382122,-5.74221015045625,-296.305429242836
738504.46906309924088418484,-2.34488967558824,-5.72374645222327,-296.286965544603
738504.46906318969558924437,-2.32642597735527,-5.72374645222327,-296.203878902554
738504.46906328003387898207,-2.2987304300058,-5.69605090487381,-296.296197393719
738504.46906337048858404160,-2.26180303353984,-5.66835535752434,-296.259269997253
738504.46906346094328910112,-2.20641193884091,-5.63142796105838,-296.166951506088
738504.46906355139799416065,-2.15102084414197,-5.59450056459243,-296.213110751671
738504.46906364185269922018,-2.08639790032655,-5.55757316812647,-296.222342600787
738504.46906373230740427971,-2.02177495651112,-5.52064577166051,-296.203878902554
738504.46906382264569401741,-1.94792016357921,-5.48371837519456,-296.166951506088
738504.46906391310039907694,-1.8740653706473,-5.4467909787286,-296.185415204321
738504.46906400355510413647,-1.80944242683187,-5.43755912961211,-296.176183355205
738504.46906409400980919600,-1.77251503036592,-5.40986358226264,-296.11156041139
738504.46906418446451425552,-1.72635578478347,-5.40986358226264,-295.973082674642
738504.46906427491921931505,-1.71712393566698,-5.42832728049562,-296.11156041139
738504.46906436537392437458,-1.72635578478347,-5.46525467696158,-296.176183355205
738504.46906445571221411228,-1.75405133213294,-5.48371837519456,-296.166951506088
738504.46906454616691917181,-1.81867427594836,-5.53910946989349,-296.231574449904
738504.46906463662162423134,-1.92022461622974,-5.58526871547594,-296.185415204321
738504.46906472707632929087,-2.03100680562761,-5.64989165929136,-296.139255958739
738504.46906481753103435040,-2.16025269325846,-5.70528275399029,-296.185415204321
738504.46906490798573940992,-2.27103488265633,-5.75144199957274,-296.203878902554
738504.46906499832402914762,-2.36335337382122,-5.77913754692221,-296.166951506088
738504.46906508877873420715,-2.42797631763665,-5.80683309427168,-296.24080629902
738504.46906517923343926668,-2.47413556321909,-5.83452864162114,-296.286965544603
738504.46906526968814432621,-2.51106295968505,-5.83452864162114,-296.286965544603
738504.46906536014284938574,-2.52029480880154,-5.84376049073763,-296.305429242836
738504.46906545059755444527,-2.53875850703452,-5.84376049073763,-296.305429242836
738504.46906554105225950480,-2.55722220526749,-5.86222418897061,-296.305429242836
738504.46906563139054924250,-2.55722220526749,-5.85299233985412,-296.259269997253
738504.46906572184525430202,-2.52952665791803,-5.84376049073763,-296.351588488418
738504.46906581229995936155,-2.56645405438398,-5.86222418897061,-296.342356639302
738504.46906590275466442108,-2.55722220526749,-5.8714560380871,-296.24080629902
738504.46906599320936948061,-2.56645405438398,-5.8714560380871,-296.296197393719
738504.46906608366407454014,-2.56645405438398,-5.88991973632008,-296.323892941069
738504.46906617400236427784,-2.56645405438398,-5.88068788720359,-296.286965544603
738504.46906626445706933737,-2.55722220526749,-5.8714560380871,-296.250038148137
738504.46906635491177439690,-2.52952665791803,-5.85299233985412,-296.323892941069
738504.46906644536647945642,-2.48336741233558,-5.79760124515519,-296.222342600787
738504.46906653582118451595,-2.51106295968505,-5.83452864162114,-296.26850184637
738504.46906662627588957548,-2.54799035615101,-5.86222418897061,-296.26850184637
738504.46906671673059463501,-2.54799035615101,-5.8714560380871,-296.259269997253
738504.46906680706888437271,-2.56645405438398,-5.88068788720359,-296.24080629902
738504.46906689752358943224,-2.49259926145207,-5.80683309427168,-296.231574449904
738504.46906698797829449177,-2.47413556321909,-5.7883693960387,-296.277733695486
738504.46906707843299955130,-2.58491775261696,-5.90838343455306,-296.231574449904
738504.46906716888770461082,-2.50183111056856,-5.80683309427168,-296.277733695486
738504.46906725934240967035,-2.45567186498611,-5.76067384868923,-296.250038148137
738504.46906734968069940805,-2.58491775261696,-5.89915158543657,-296.259269997253
738504.46906744013540446758,-2.59414960173345,-5.90838343455306,-296.333124790185
738504.46906753059010952711,-2.61261329996643,-5.90838343455306,-296.296197393719
738504.46906762104481458664,-2.58491775261696,-5.89915158543657,-296.296197393719
738504.46906771149951964617,-2.45567186498611,-5.75144199957274,-296.11156041139
738504.46906780195422470570,-2.51106295968505,-5.80683309427168,-296.222342600787
738504.46906789240892976522,-2.58491775261696,-5.88068788720359,-296.342356639302
738504.46906798274721950293,-2.60338145084994,-5.91761528366955,-296.259269997253
738504.46906807320192456245,-2.52952665791803,-5.82529679250465,-296.342356639302
738504.46906816365662962198,-2.50183111056856,-5.7883693960387,-296.342356639302
738504.46906825411133468151,-2.61261329996643,-5.90838343455306,-296.351588488418
738504.46906834456603974104,-2.58491775261696,-5.86222418897061,-296.259269997253
738504.46906843502074480057,-2.61261329996643,-5.89915158543657,-296.314661091952
738504.46906852535903453827,-2.61261329996643,-5.88068788720359,-296.351588488418
738504.46906861581373959780,-2.57568590350047,-5.85299233985412,-296.26850184637
738504.46906870626844465733,-2.57568590350047,-5.84376049073763,-296.314661091952
738504.46906879672314971685,-2.57568590350047,-5.84376049073763,-296.314661091952
738504.46906888717785477638,-2.54799035615101,-5.81606494338816,-296.323892941069
738504.46906897763255983591,-2.55722220526749,-5.82529679250465,-296.277733695486
738504.46906906808726489544,-2.59414960173345,-5.86222418897061,-296.314661091952
738504.46906915842555463314,-2.58491775261696,-5.85299233985412,-296.323892941069
738504.46906924888025969267,-2.61261329996643,-5.88068788720359,-296.24080629902
738504.46906933933496475220,-2.56645405438398,-5.82529679250465,-296.323892941069
738504.46906942978966981173,-2.57568590350047,-5.84376049073763,-296.305429242836
738504.46906952024437487125,-2.53875850703452,-5.79760124515519,-296.259269997253
738504.46906961069907993078,-2.50183111056856,-5.76067384868923,-296.286965544603
738504.46906970103736966848,-2.57568590350047,-5.83452864162114,-296.286965544603
738504.46906979149207472801,-2.63107699819941,-5.90838343455306,-296.296197393719
738504.46906988194677978754,-2.57568590350047,-5.83452864162114,-296.296197393719
738504.46906997240148484707,-2.57568590350047,-5.85299233985412,-296.286965544603
738504.46907006285618990660,-2.61261329996643,-5.8714560380871,-296.231574449904
738504.46907015331089496613,-2.63107699819941,-5.90838343455306,-296.250038148137
738504.46907024376560002565,-2.56645405438398,-5.82529679250465,-296.222342600787
738504.46907033410388976336,-2.57568590350047,-5.83452864162114,-296.231574449904
738504.46907042455859482288,-2.62184514908292,-5.88991973632008,-296.24080629902
738504.46907051501329988241,-2.57568590350047,-5.83452864162114,-296.250038148137
738504.46907060546800494194,-2.49259926145207,-5.76067384868923,-296.24080629902
738504.46907069592271000147,-2.59414960173345,-5.85299233985412,-296.24080629902
738504.46907078637741506100,-2.52029480880154,-5.7883693960387,-296.250038148137
738504.46907087671570479870,-2.6403088473159,-5.89915158543657,-296.286965544603
738504.46907096717040985823,-2.61261329996643,-5.88991973632008,-296.323892941069
738504.46907105762511491776,-2.60338145084994,-5.8714560380871,-296.333124790185
738504.46907114807981997728,-2.53875850703452,-5.81606494338816,-296.333124790185
738504.46907123853452503681,-2.59414960173345,-5.85299233985412,-296.11156041139
738504.46907132898923009634,-2.58491775261696,-5.86222418897061,-296.213110751671
738504.46907141944393515587,-2.57568590350047,-5.85299233985412,-296.277733695486
738504.46907150978222489357,-2.57568590350047,-5.86222418897061,-296.213110751671
738504.46907160023692995310,-2.58491775261696,-5.85299233985412,-296.277733695486
738504.46907169069163501263,-2.52952665791803,-5.80683309427168,-296.277733695486
738504.46907178114634007215,-2.62184514908292,-5.88068788720359,-296.250038148137
738504.46907187160104513168,-2.60338145084994,-5.86222418897061,-296.277733695486
738504.46907196205575019121,-2.61261329996643,-5.88991973632008,-296.323892941069
738504.46907205239403992891,-2.53875850703452,-5.79760124515519,-296.296197393719
738504.46907214284874498844,-2.57568590350047,-5.84376049073763,-296.26850184637
738504.46907223330345004797,-2.55722220526749,-5.80683309427168,-296.323892941069
738504.46907232375815510750,-2.6403088473159,-5.91761528366955,-296.305429242836
738504.46907241421286016703,-2.58491775261696,-5.84376049073763,-296.333124790185
738504.46907250466756522655,-2.58491775261696,-5.84376049073763,-296.286965544603
738504.46907259512227028608,-2.61261329996643,-5.88068788720359,-296.305429242836
738504.46907268546056002378,-2.62184514908292,-5.89915158543657,-296.314661091952
738504.46907277591526508331,-2.58491775261696,-5.86222418897061,-296.26850184637
738504.46907286636997014284,-2.49259926145207,-5.80683309427168,-296.333124790185
738504.46907295682467520237,-2.56645405438398,-5.8714560380871,-296.314661091952
738504.46907304727938026190,-2.54799035615101,-5.8714560380871,-296.286965544603
738504.46907313773408532143,-2.51106295968505,-5.81606494338816,-296.231574449904
738504.46907322807237505913,-2.43720816675314,-5.7883693960387,-296.213110751671
738504.46907331852708011866,-2.47413556321909,-5.80683309427168,-296.213110751671
738504.46907340898178517818,-2.52029480880154,-5.84376049073763,-296.213110751671
738504.46907349943649023771,-2.54799035615101,-5.81606494338816,-296.166951506088
738504.46907358989119529724,-2.52952665791803,-5.79760124515519,-296.176183355205
738504.46907368034590035677,-2.56645405438398,-5.85299233985412,-296.222342600787
738504.46907377080060541630,-2.58491775261696,-5.85299233985412,-296.203878902554
738504.46907386113889515400,-2.61261329996643,-5.8714560380871,-296.222342600787
738504.46907395159360021353,-2.61261329996643,-5.85299233985412,-296.24080629902
738504.46907404204830527306,-2.62184514908292,-5.8714560380871,-296.231574449904
738504.46907413250301033258,-2.64954069643239,-5.8714560380871,-296.213110751671
738504.46907422295771539211,-2.55722220526749,-5.79760124515519,-296.213110751671
738504.46907431341242045164,-2.61261329996643,-5.84376049073763,-296.222342600787
738504.46907440375071018934,-2.6403088473159,-5.88991973632008,-296.250038148137
738504.46907449420541524887,-2.59414960173345,-5.82529679250465,-296.250038148137
738504.46907458466012030840,-2.61261329996643,-5.85299233985412,-296.222342600787
738504.46907467511482536793,-2.65877254554888,-5.89915158543657,-296.259269997253
738504.46907476556953042746,-2.60338145084994,-5.85299233985412,-296.130024109622
738504.46907485602423548698,-2.64954069643239,-5.90838343455306,-296.157719656972
738504.46907494647894054651,-2.65877254554888,-5.90838343455306,-296.250038148137
738504.46907503681723028421,-2.60338145084994,-5.82529679250465,-296.277733695486
738504.46907512727193534374,-2.50183111056856,-5.72374645222327,-296.250038148137
738504.46907521772664040327,-2.52029480880154,-5.74221015045625,-296.250038148137
738504.46907530818134546280,-2.28026673177282,-5.52064577166051,-296.194647053438
738504.46907539863605052233,-1.88329721976379,-5.56680501724296,-296.176183355205
738504.46907548909075558186,-1.30169072542497,-5.88991973632008,-296.185415204321
738504.46907557942904531956,-0.997039704580828,-6.11148411511582,-296.185415204321
738504.46907566988375037909,-1.2739951780755,-6.25919370097964,-296.26850184637
738504.46907576033845543861,-2.00331125827815,-6.49922177800836,-296.379284035768
738504.46907585079316049814,-2.3818170720542,-6.93311868648335,-296.416211432234
738504.46907594124786555767,-2.45567186498611,-6.85003204443495,-296.480834376049
738504.46907603170257061720,-2.39104892117069,-6.49922177800836,-296.434675130467
738504.46907612215727567673,-2.35412152470473,-6.17610705893124,-296.379284035768
738504.46907621249556541443,-2.41874446852016,-6.04686117130039,-296.370052186651
738504.46907630295027047396,-2.53875850703452,-6.02839747306742,-296.314661091952
738504.46907639340497553349,-2.52952665791803,-5.92684713278603,-296.305429242836
738504.46907648385968059301,-2.58491775261696,-5.93607898190252,-296.286965544603
738504.46907657431438565254,-2.56645405438398,-5.92684713278603,-296.286965544603
738504.46907666476909071207,-2.52952665791803,-5.88068788720359,-296.259269997253
738504.46907675510738044977,-2.48336741233558,-5.84376049073763,-296.277733695486
738504.46907684556208550930,-2.50183111056856,-5.86222418897061,-296.26850184637
738504.46907693601679056883,-2.42797631763665,-5.80683309427168,-296.24080629902
738504.46907702647149562836,-2.41874446852016,-5.79760124515519,-296.277733695486
738504.46907711692620068789,-2.43720816675314,-5.82529679250465,-296.24080629902
738504.46907720738090574741,-2.40028077028718,-5.7883693960387,-296.139255958739
738504.46907729783561080694,-2.28026673177282,-5.67758720664083,-296.166951506088
738504.46907738817390054464,-2.30796227912229,-5.69605090487381,-296.157719656972
738504.46907747862860560417,-2.33565782647175,-5.73297830133976,-296.157719656972
738504.46907756908331066370,-2.27103488265633,-5.67758720664083,-296.139255958739
738504.46907765953801572323,-2.31719412823878,-5.74221015045625,-296.185415204321
738504.46907774999272078276,-2.26180303353984,-5.69605090487381,-296.213110751671
738504.46907784044742584229,-2.22487563707389,-5.66835535752434,-296.166951506088
738504.46907793078571557999,-2.16948454237495,-5.63142796105838,-296.213110751671
738504.46907802124042063951,-2.05870235297708,-5.54834131900998,-296.213110751671
738504.46907811169512569904,-2.00331125827815,-5.50218207342753,-296.176183355205
738504.46907820214983075857,-1.83713797418134,-5.38216803491317,-296.102328562273
738504.46907829260453581810,-1.84636982329783,-5.41909543137913,-295.973082674642
738504.46907838305924087763,-1.93868831446272,-5.54834131900998,-296.037705618458
738504.46907847351394593716,-1.75405133213294,-5.40986358226264,-296.148487807855
738504.46907856385223567486,-1.72635578478347,-5.40063173314615,-296.157719656972
738504.46907865430694073439,-1.72635578478347,-5.45602282784509,-296.08386486404
738504.46907874476164579391,-1.63403729361858,-5.38216803491317,-296.130024109622
738504.46907883521635085344,-1.72635578478347,-5.48371837519456,-296.148487807855
738504.46907892567105591297,-1.72635578478347,-5.45602282784509,-296.102328562273
738504.46907901612576097250,-1.89252906888028,-5.57603686635945,-296.065401165807
738504.46907910646405071020,-2.06793420209357,-5.68681905575732,-296.120792260506
738504.46907919691875576973,-2.09562974944304,-5.64989165929136,-296.148487807855
738504.46907928737346082926,-2.33565782647175,-5.83452864162114,-296.166951506088
738504.46907937782816588879,-2.33565782647175,-5.79760124515519,-296.194647053438
738504.46907946828287094831,-2.36335337382122,-5.7883693960387,-296.203878902554
738504.46907955873757600784,-2.48336741233558,-5.8714560380871,-296.203878902554
738504.46907964919228106737,-2.51106295968505,-5.89915158543657,-296.203878902554
738504.46907973953057080507,-2.50183111056856,-5.86222418897061,-296.250038148137
738504.46907982998527586460,-2.50183111056856,-5.86222418897061,-296.231574449904
738504.46907992043998092413,-2.50183111056856,-5.84376049073763,-296.231574449904
738504.46908001089468598366,-2.36335337382122,-5.69605090487381,-296.222342600787
738504.46908010134939104319,-2.63107699819941,-5.97300637836848,-296.24080629902
738504.46908019180409610271,-2.63107699819941,-5.98223822748497,-296.250038148137
738504.46908028214238584042,-2.58491775261696,-5.92684713278603,-296.286965544603
738504.46908037259709089994,-2.56645405438398,-5.92684713278603,-296.296197393719
738504.46908046305179595947,-2.58491775261696,-5.93607898190252,-296.305429242836
738504.46908055350650101900,-2.52952665791803,-5.88068788720359,-296.277733695486
738504.46908064396120607853,-2.52029480880154,-5.88068788720359,-296.314661091952
738504.46908073441591113806,-2.53875850703452,-5.89915158543657,-296.314661091952
738504.46908082487061619759,-2.45567186498611,-5.81606494338816,-296.222342600787
738504.46908091520890593529,-2.57568590350047,-5.94531083101901,-296.286965544603
738504.46908100566361099482,-2.53875850703452,-5.89915158543657,-296.296197393719
738504.46908109611831605434,-2.49259926145207,-5.85299233985412,-296.296197393719
738504.46908118657302111387,-2.55722220526749,-5.90838343455306,-296.222342600787
738504.46908127702772617340,-2.55722220526749,-5.90838343455306,-296.296197393719
738504.46908136748243123293,-2.58491775261696,-5.94531083101901,-296.305429242836
738504.46908145782072097063,-2.57568590350047,-5.93607898190252,-296.277733695486
738504.46908154827542603016,-2.54799035615101,-5.91761528366955,-296.296197393719
738504.46908163873013108969,-2.57568590350047,-5.91761528366955,-296.296197393719
738504.46908172918483614922,-2.4649037141026,-5.81606494338816,-296.296197393719
738504.46908181963954120874,-2.59414960173345,-5.94531083101901,-296.130024109622
738504.46908191009424626827,-2.49259926145207,-5.85299233985412,-296.185415204321
738504.46908200054895132780,-2.57568590350047,-5.92684713278603,-296.296197393719
738504.46908209088724106550,-2.53875850703452,-5.88991973632008,-296.250038148137
738504.46908218134194612503,-2.59414960173345,-5.94531083101901,-296.277733695486
738504.46908227179665118456,-2.49259926145207,-5.84376049073763,-296.26850184637
738504.46908236225135624409,-2.55722220526749,-5.89915158543657,-296.305429242836
738504.46908245270606130362,-2.56645405438398,-5.91761528366955,-296.24080629902
738504.46908254316076636314,-2.59414960173345,-5.93607898190252,-296.26850184637
738504.46908263349905610085,-2.58491775261696,-5.92684713278603,-296.296197393719
738504.46908272395376116037,-2.53875850703452,-5.88991973632008,-296.166951506088
738504.46908281440846621990,-2.58491775261696,-5.92684713278603,-296.203878902554
738504.46908290486317127943,-2.52029480880154,-5.8714560380871,-296.213110751671
738504.46908299531787633896,-2.60338145084994,-5.92684713278603,-296.203878902554
738504.46908308577258139849,-2.59414960173345,-5.93607898190252,-296.185415204321
738504.46908317622728645802,-2.52029480880154,-5.85299233985412,-296.203878902554
738504.46908326656557619572,-2.58491775261696,-5.89915158543657,-296.213110751671
738504.46908335702028125525,-2.58491775261696,-5.89915158543657,-296.259269997253
738504.46908344747498631477,-2.55722220526749,-5.88068788720359,-296.213110751671
738504.46908353792969137430,-2.6403088473159,-5.96377452925199,-296.231574449904
738504.46908362838439643383,-2.55722220526749,-5.85299233985412,-296.259269997253
738504.46908371883910149336,-2.57568590350047,-5.8714560380871,-296.185415204321
738504.46908380917739123106,-2.57568590350047,-5.88068788720359,-296.194647053438
738504.46908389963209629059,-2.56645405438398,-5.86222418897061,-296.213110751671
738504.46908399008680135012,-2.64954069643239,-5.9545426801355,-296.203878902554
738504.46908408054150640965,-2.61261329996643,-5.90838343455306,-296.213110751671
738504.46908417099621146917,-2.64954069643239,-5.94531083101901,-296.24080629902
738504.46908426145091652870,-2.62184514908292,-5.91761528366955,-296.286965544603
738504.46908435190562158823,-2.58491775261696,-5.88068788720359,-296.231574449904
738504.46908444224391132593,-2.57568590350047,-5.8714560380871,-296.231574449904
738504.46908453269861638546,-2.59414960173345,-5.88991973632008,-296.26850184637
738504.46908462315332144499,-2.63107699819941,-5.93607898190252,-296.296197393719
738504.46908471360802650452,-2.61261329996643,-5.89915158543657,-296.277733695486
738504.46908480406273156404,-2.6403088473159,-5.93607898190252,-296.24080629902
738504.46908489451743662357,-2.60338145084994,-5.88068788720359,-296.305429242836
738504.46908498485572636127,-2.58491775261696,-5.86222418897061,-296.296197393719
738504.46908507531043142080,-2.59414960173345,-5.88068788720359,-296.277733695486
738504.46908516576513648033,-2.6403088473159,-5.93607898190252,-296.250038148137
738504.46908525621984153986,-2.64954069643239,-5.94531083101901,-296.286965544603
738504.46908534667454659939,-2.60338145084994,-5.89915158543657,-296.231574449904
738504.46908543712925165892,-2.61261329996643,-5.90838343455306,-296.157719656972
738504.46908552758395671844,-2.62184514908292,-5.91761528366955,-296.296197393719
738504.46908561792224645615,-2.57568590350047,-5.8714560380871,-296.286965544603
738504.46908570837695151567,-2.57568590350047,-5.8714560380871,-296.222342600787
738504.46908579883165657520,-2.61261329996643,-5.89915158543657,-296.231574449904
738504.46908588928636163473,-2.62184514908292,-5.90838343455306,-296.213110751671
738504.46908597974106669426,-2.63107699819941,-5.94531083101901,-296.203878902554
738504.46908607019577175379,-2.55722220526749,-5.88068788720359,-296.213110751671
738504.46908616053406149149,-2.59414960173345,-5.92684713278603,-296.213110751671
738504.46908625098876655102,-2.55722220526749,-5.88991973632008,-296.26850184637
738504.46908634144347161055,-2.57568590350047,-5.92684713278603,-296.305429242836
738504.46908643189817667007,-2.55722220526749,-5.91761528366955,-296.250038148137
738504.46908652235288172960,-2.47413556321909,-5.85299233985412,-296.305429242836
738504.46908661280758678913,-2.50183111056856,-5.86222418897061,-296.314661091952
738504.46908670326229184866,-2.52029480880154,-5.85299233985412,-296.213110751671
738504.46908679360058158636,-2.53875850703452,-5.82529679250465,-296.250038148137
738504.46908688405528664589,-2.51106295968505,-5.79760124515519,-296.277733695486
738504.46908697450999170542,-2.61261329996643,-5.91761528366955,-296.296197393719
738504.46908706496469676495,-2.63107699819941,-5.91761528366955,-296.213110751671
738504.46908715541940182447,-2.62184514908292,-5.90838343455306,-296.305429242836
738504.46908724587410688400,-2.6403088473159,-5.90838343455306,-296.231574449904
738504.46908733621239662170,-2.67723624378185,-5.94531083101901,-296.185415204321
738504.46908742666710168123,-2.6403088473159,-5.89915158543657,-296.194647053438
738504.46908751712180674076,-2.64954069643239,-5.92684713278603,-296.231574449904
738504.46908760757651180029,-2.65877254554888,-5.93607898190252,-296.24080629902
738504.46908769803121685982,-2.6403088473159,-5.92684713278603,-296.222342600787
738504.46908778848592191935,-2.63107699819941,-5.90838343455306,-296.203878902554
738504.46908787894062697887,-2.60338145084994,-5.88991973632008,-296.250038148137
738504.46908796927891671658,-2.65877254554888,-5.94531083101901,-296.250038148137
738504.46908805973362177610,-2.63107699819941,-5.92684713278603,-296.213110751671
738504.46908815018832683563,-2.68646809289834,-5.99147007660146,-296.203878902554
738504.46908824064303189516,-2.58491775261696,-5.88068788720359,-296.213110751671
738504.46908833109773695469,-2.66800439466536,-5.94531083101901,-296.24080629902
738504.46908842155244201422,-2.59414960173345,-5.8714560380871,-296.222342600787
738504.46908851189073175192,-2.54799035615101,-5.81606494338816,-296.194647053438
738504.46908860234543681145,-2.39104892117069,-5.64065981017487,-296.176183355205
738504.46908869280014187098,-1.99407940916166,-5.54834131900998,-296.148487807855
738504.46908878325484693050,-1.73558763389996,-5.68681905575732,-296.157719656972
738504.46908887370955199003,-1.03396710104678,-5.88068788720359,-296.130024109622
738504.46908896416425704956,-1.20014038514359,-6.23149815363018,-296.074633014924
738504.46908905461896210909,-2.03100680562761,-6.59154026917325,-296.406979583117
738504.46908914495725184679,-2.39104892117069,-7.07159642323069,-296.536225470748
738504.46908923541195690632,-2.44644001586962,-7.04390087588122,-296.490066225166
738504.46908932586666196585,-2.44644001586962,-6.7207861568041,-296.4531388287
738504.46908941632136702538,-2.39104892117069,-6.36074404126102,-296.42544328135
738504.46908950677607208490,-2.50183111056856,-6.22226630451369,-296.370052186651
738504.46908959723077714443,-2.52029480880154,-6.07455671864986,-296.26850184637
738504.46908968756906688213,-2.57568590350047,-6.01916562395093,-296.296197393719
738504.46908977802377194166,-2.53875850703452,-5.92684713278603,-296.296197393719
738504.46908986847847700119,-2.60338145084994,-5.98223822748497,-296.250038148137
738504.46908995893318206072,-2.55722220526749,-5.93607898190252,-296.24080629902
738504.46909004938788712025,-2.49259926145207,-5.8714560380871,-296.250038148137
738504.46909013984259217978,-2.55722220526749,-5.94531083101901,-296.296197393719
738504.46909023029729723930,-2.48336741233558,-5.8714560380871,-296.231574449904
738504.46909032063558697701,-2.47413556321909,-5.86222418897061,-296.24080629902
738504.46909041109029203653,-2.4649037141026,-5.85299233985412,-296.259269997253
738504.46909050154499709606,-2.44644001586962,-5.83452864162114,-296.176183355205
738504.46909059199970215559,-2.43720816675314,-5.83452864162114,-296.213110751671
738504.46909068245440721512,-2.40951261940367,-5.80683309427168,-296.231574449904
738504.46909077290911227465,-2.3818170720542,-5.79760124515519,-296.222342600787
738504.46909086324740201235,-2.34488967558824,-5.76990569780572,-296.11156041139
738504.46909095370210707188,-2.34488967558824,-5.76990569780572,-296.139255958739
738504.46909104415681213140,-2.28949858088931,-5.71451460310678,-296.130024109622
738504.46909113461151719093,-2.22487563707389,-5.64989165929136,-296.130024109622
738504.46909122506622225046,-2.23410748619037,-5.67758720664083,-296.093096713157
738504.46909131552092730999,-2.16025269325846,-5.62219611194189,-296.148487807855
738504.46909140597563236952,-2.0402386547441,-5.529877620777,-296.11156041139
738504.46909149631392210722,-2.02177495651112,-5.529877620777,-296.102328562273
738504.46909158676862716675,-1.93868831446272,-5.47448652607807,-296.11156041139
738504.46909167722333222628,-1.85560167241432,-5.42832728049562,-296.11156041139
738504.46909176767803728580,-1.81867427594836,-5.43755912961211,-296.065401165807
738504.46909185813274234533,-1.7909787285989,-5.42832728049562,-296.056169316691
738504.46909194858744740486,-1.68019653920103,-5.35447248756371,-296.056169316691
738504.46909203892573714256,-1.76328318124943,-5.46525467696158,-296.074633014924
738504.46909212938044220209,-1.77251503036592,-5.49295022431104,-296.074633014924
738504.46909221983514726162,-1.8740653706473,-5.55757316812647,-296.102328562273
738504.46909231028985232115,-1.9571520126957,-5.6129642628254,-296.166951506088
738504.46909240074455738068,-2.08639790032655,-5.66835535752434,-296.130024109622
738504.46909249119926244020,-2.15102084414197,-5.70528275399029,-296.046937467574
738504.46909258165396749973,-2.24333933530686,-5.73297830133976,-296.203878902554
738504.46909267199225723743,-2.42797631763665,-5.85299233985412,-296.26850184637
738504.46909276244696229696,-2.48336741233558,-5.8714560380871,-296.26850184637
738504.46909285290166735649,-2.50183111056856,-5.86222418897061,-296.203878902554
738504.46909294335637241602,-2.58491775261696,-5.92684713278603,-296.277733695486
738504.46909303381107747555,-2.62184514908292,-5.94531083101901,-296.213110751671
738504.46909312426578253508,-2.57568590350047,-5.89915158543657,-296.250038148137
738504.46909321460407227278,-2.6403088473159,-5.94531083101901,-296.277733695486
738504.46909330505877733231,-2.6403088473159,-5.9545426801355,-296.314661091952
738504.46909339551348239183,-2.63107699819941,-5.93607898190252,-296.286965544603
738504.46909348596818745136,-2.63107699819941,-5.92684713278603,-296.305429242836
738504.46909357642289251089,-2.6403088473159,-5.94531083101901,-296.305429242836
738504.46909366687759757042,-2.62184514908292,-5.92684713278603,-296.296197393719
738504.46909375733230262995,-2.64954069643239,-5.94531083101901,-296.250038148137
738504.46909384767059236765,-2.61261329996643,-5.91761528366955,-296.314661091952
738504.46909393812529742718,-2.62184514908292,-5.92684713278603,-296.314661091952
738504.46909402858000248671,-2.6403088473159,-5.94531083101901,-296.286965544603
738504.46909411903470754623,-2.6403088473159,-5.93607898190252,-296.314661091952
738504.46909420948941260576,-2.66800439466536,-5.96377452925199,-296.305429242836
738504.46909429994411766529,-2.65877254554888,-5.9545426801355,-296.333124790185
738504.46909439028240740299,-2.6403088473159,-5.93607898190252,-296.277733695486
738504.46909448073711246252,-2.56645405438398,-5.8714560380871,-296.250038148137
738504.46909457119181752205,-2.63107699819941,-5.92684713278603,-296.314661091952
738504.46909466164652258158,-2.66800439466536,-5.9545426801355,-296.314661091952
738504.46909475210122764111,-2.66800439466536,-5.9545426801355,-296.259269997253
738504.46909484255593270063,-2.63107699819941,-5.91761528366955,-296.314661091952
738504.46909493301063776016,-2.6403088473159,-5.91761528366955,-296.305429242836
738504.46909502334892749786,-2.63107699819941,-5.90838343455306,-296.222342600787
738504.46909511380363255739,-2.63107699819941,-5.90838343455306,-296.296197393719
738504.46909520425833761692,-2.62184514908292,-5.88991973632008,-296.305429242836
738504.46909529471304267645,-2.66800439466536,-5.92684713278603,-296.259269997253
738504.46909538516774773598,-2.61261329996643,-5.88991973632008,-296.203878902554
738504.46909547562245279551,-2.6403088473159,-5.90838343455306,-296.194647053438
738504.46909556596074253321,-2.67723624378185,-5.92684713278603,-296.24080629902
738504.46909565641544759274,-2.66800439466536,-5.92684713278603,-296.222342600787
738504.46909574687015265226,-2.65877254554888,-5.93607898190252,-296.203878902554
738504.46909583732485771179,-2.67723624378185,-5.92684713278603,-296.222342600787
738504.46909592777956277132,-2.64954069643239,-5.89915158543657,-296.11156041139
738504.46909601823426783085,-2.65877254554888,-5.91761528366955,-296.203878902554
738504.46909610868897289038,-2.69569994201483,-5.94531083101901,-296.222342600787
738504.46909619902726262808,-2.6403088473159,-5.88991973632008,-296.250038148137
738504.46909628948196768761,-2.64954069643239,-5.89915158543657,-296.213110751671
738504.46909637993667274714,-2.65877254554888,-5.90838343455306,-296.194647053438
738504.46909647039137780666,-2.67723624378185,-5.91761528366955,-296.194647053438
738504.46909656084608286619,-2.69569994201483,-5.94531083101901,-296.213110751671
738504.46909665130078792572,-2.6403088473159,-5.88991973632008,-296.203878902554
738504.46909674175549298525,-2.69569994201483,-5.94531083101901,-296.213110751671
738504.46909683209378272295,-2.66800439466536,-5.90838343455306,-296.213110751671
738504.46909692254848778248,-2.67723624378185,-5.92684713278603,-296.222342600787
738504.46909701300319284201,-2.69569994201483,-5.93607898190252,-296.259269997253
738504.46909710345789790154,-2.65877254554888,-5.91761528366955,-296.24080629902
738504.46909719391260296106,-2.64954069643239,-5.88991973632008,-296.231574449904
738504.46909728436730802059,-2.61261329996643,-5.84376049073763,-296.231574449904
738504.46909737470559775829,-2.71416364024781,-5.94531083101901,-296.277733695486
738504.46909746516030281782,-2.71416364024781,-5.94531083101901,-296.296197393719
738504.46909755561500787735,-2.63107699819941,-5.86222418897061,-296.286965544603
738504.46909764606971293688,-2.66800439466536,-5.88991973632008,-296.286965544603
738504.46909773652441799641,-2.67723624378185,-5.90838343455306,-296.286965544603
738504.46909782697912305593,-2.71416364024781,-5.93607898190252,-296.286965544603
738504.46909791743382811546,-2.68646809289834,-5.91761528366955,-296.231574449904
738504.46909800777211785316,-2.69569994201483,-5.92684713278603,-296.286965544603
738504.46909809822682291269,-2.68646809289834,-5.91761528366955,-296.286965544603
738504.46909818868152797222,-2.65877254554888,-5.88991973632008,-296.259269997253
738504.46909827913623303175,-2.70493179113132,-5.93607898190252,-296.296197393719
738504.46909836959093809128,-2.67723624378185,-5.90838343455306,-296.305429242836
738504.46909846004564315081,-2.57568590350047,-5.80683309427168,-296.314661091952
738504.46909855038393288851,-2.60338145084994,-5.82529679250465,-296.231574449904
738504.46909864083863794804,-2.69569994201483,-5.90838343455306,-296.286965544603
738504.46909873129334300756,-2.77878658406323,-6.00070192571795,-296.314661091952
738504.46909882174804806709,-2.73262733848079,-5.96377452925199,-296.222342600787
738504.46909891220275312662,-2.66800439466536,-5.89915158543657,-296.305429242836
738504.46909900265745818615,-2.65877254554888,-5.91761528366955,-296.305429242836
738504.46909909311216324568,-2.62184514908292,-5.88068788720359,-296.26850184637
738504.46909918345045298338,-2.62184514908292,-5.88991973632008,-296.277733695486
738504.46909927390515804291,-2.61261329996643,-5.88991973632008,-296.277733695486
738504.46909936435986310244,-2.61261329996643,-5.89915158543657,-296.314661091952
738504.46909945481456816196,-2.51106295968505,-5.83452864162114,-296.08386486404
738504.46909954526927322149,-2.50183111056856,-5.7883693960387,-296.203878902554
738504.46909963572397828102,-2.60338145084994,-5.86222418897061,-296.314661091952
738504.46909972606226801872,-2.6403088473159,-5.88068788720359,-296.203878902554
738504.46909981651697307825,-2.62184514908292,-5.8714560380871,-296.259269997253
738504.46909990697167813778,-2.66800439466536,-5.88991973632008,-296.213110751671
738504.46909999742638319731,-2.66800439466536,-5.88068788720359,-296.286965544603
738504.46910008788108825684,-2.67723624378185,-5.88991973632008,-296.250038148137
738504.46910017833579331636,-2.74185918759728,-5.93607898190252,-296.259269997253
738504.46910026879049837589,-2.74185918759728,-5.94531083101901,-296.213110751671
738504.46910035912878811359,-2.71416364024781,-5.90838343455306,-296.203878902554
738504.46910044958349317312,-2.68646809289834,-5.88068788720359,-296.26850184637
738504.46910054003819823265,-2.7233954893643,-5.90838343455306,-296.26850184637
738504.46910063049290329218,-2.68646809289834,-5.88991973632008,-296.277733695486
738504.46910072094760835171,-2.65877254554888,-5.86222418897061,-296.296197393719
738504.46910081140231341124,-2.69569994201483,-5.90838343455306,-296.305429242836
738504.46910090174060314894,-2.7233954893643,-5.92684713278603,-296.286965544603
738504.46910099219530820847,-2.7233954893643,-5.93607898190252,-296.24080629902
738504.46910108265001326799,-2.69569994201483,-5.90838343455306,-296.26850184637
738504.46910117310471832752,-2.67723624378185,-5.89915158543657,-296.286965544603
738504.46910126355942338705,-2.73262733848079,-5.92684713278603,-296.203878902554
738504.46910135401412844658,-2.69569994201483,-5.8714560380871,-296.194647053438
738504.46910144446883350611,-2.63107699819941,-5.79760124515519,-296.213110751671
738504.46910153480712324381,-2.52952665791803,-5.64989165929136,-296.176183355205
738504.46910162526182830334,-2.25257118442335,-5.53910946989349,-296.157719656972
738504.46910171571653336287,-1.698660237434,-5.64065981017487,-296.166951506088
738504.46910180617123842239,-1.33861812189093,-5.74221015045625,-296.166951506088
738504.46910189662594348192,-1.17244483779412,-5.9545426801355,-296.222342600787
738504.46910198708064854145,-1.9571520126957,-6.28688924832911,-296.351588488418
738504.46910207741893827915,-2.43720816675314,-6.8038727988525,-296.526993621632
738504.46910216787364333868,-2.42797631763665,-6.88695944090091,-296.563921018097
738504.46910225832834839821,-2.58491775261696,-6.76694540238655,-296.42544328135
738504.46910234878305345774,-2.48336741233558,-6.43459883419294,-296.42544328135
738504.46910243923775851727,-2.54799035615101,-6.23149815363018,-296.416211432234
738504.46910252969246357679,-2.57568590350047,-6.09302041688284,-296.342356639302
738504.46910262014716863632,-2.55722220526749,-5.9545426801355,-296.305429242836
738504.46910271048545837402,-2.63107699819941,-5.9545426801355,-296.305429242836
738504.46910280094016343355,-2.65877254554888,-5.9545426801355,-296.314661091952
738504.46910289139486849308,-2.56645405438398,-5.85299233985412,-296.250038148137
738504.46910298184957355261,-2.59414960173345,-5.89915158543657,-296.166951506088
738504.46910307230427861214,-2.55722220526749,-5.85299233985412,-296.203878902554
738504.46910316275898367167,-2.51106295968505,-5.81606494338816,-296.185415204321
738504.46910325309727340937,-2.50183111056856,-5.80683309427168,-296.250038148137
738504.46910334355197846889,-2.51106295968505,-5.82529679250465,-296.26850184637
738504.46910343400668352842,-2.49259926145207,-5.80683309427168,-296.222342600787
738504.46910352446138858795,-2.45567186498611,-5.7883693960387,-296.222342600787
738504.46910361491609364748,-2.4649037141026,-5.79760124515519,-296.259269997253
738504.46910370537079870701,-2.44644001586962,-5.7883693960387,-296.250038148137
738504.46910379582550376654,-2.40028077028718,-5.75144199957274,-296.222342600787
738504.46910388616379350424,-2.33565782647175,-5.69605090487381,-296.194647053438
738504.46910397661849856377,-2.31719412823878,-5.66835535752434,-296.231574449904
738504.46910406707320362329,-2.20641193884091,-5.56680501724296,-296.213110751671
738504.46910415752790868282,-2.25257118442335,-5.64989165929136,-296.11156041139
738504.46910424798261374235,-2.19718008972442,-5.59450056459243,-296.120792260506
738504.46910433843731880188,-2.13255714590899,-5.55757316812647,-296.065401165807
738504.46910442877560853958,-2.03100680562761,-5.49295022431104,-296.065401165807
738504.46910451923031359911,-2.00331125827815,-5.49295022431104,-296.074633014924
738504.46910460968501865864,-1.92945646534623,-5.4467909787286,-296.056169316691
738504.46910470013972371817,-1.86483352153081,-5.41909543137913,-296.056169316691
738504.46910479059442877769,-1.83713797418134,-5.41909543137913,-296.046937467574
738504.46910488104913383722,-1.77251503036592,-5.38216803491317,-296.065401165807
738504.46910497150383889675,-1.70789208655049,-5.34524063844722,-296.102328562273
738504.46910506184212863445,-1.80944242683187,-5.47448652607807,-296.074633014924
738504.46910515229683369398,-1.90176091799676,-5.53910946989349,-296.157719656972
738504.46910524275153875351,-1.96638386181219,-5.56680501724296,-296.185415204321
738504.46910533320624381304,-2.11409344767602,-5.64989165929136,-296.157719656972
738504.46910542366094887257,-2.23410748619037,-5.71451460310678,-296.166951506088
738504.46910551411565393209,-2.35412152470473,-5.76990569780572,-296.213110751671
738504.46910560445394366980,-2.40951261940367,-5.79760124515519,-296.213110751671
738504.46910569490864872932,-2.51106295968505,-5.85299233985412,-296.296197393719
738504.46910578536335378885,-2.52952665791803,-5.84376049073763,-296.26850184637
738504.46910587581805884838,-2.51106295968505,-5.80683309427168,-296.24080629902
738504.46910596627276390791,-2.64954069643239,-5.92684713278603,-296.305429242836
738504.46910605672746896744,-2.62184514908292,-5.88991973632008,-296.296197393719
738504.46910614718217402697,-2.58491775261696,-5.84376049073763,-296.250038148137
738504.46910623752046376467,-2.61261329996643,-5.88068788720359,-296.323892941069
738504.46910632797516882420,-2.67723624378185,-5.93607898190252,-296.314661091952
738504.46910641842987388372,-2.66800439466536,-5.92684713278603,-296.24080629902
738504.46910650888457894325,-2.65877254554888,-5.92684713278603,-296.194647053438
738504.46910659933928400278,-2.63107699819941,-5.90838343455306,-296.222342600787
738504.46910668979398906231,-2.64954069643239,-5.91761528366955,-296.277733695486
738504.46910678013227880001,-2.58491775261696,-5.86222418897061,-296.277733695486
738504.46910687058698385954,-2.60338145084994,-5.88068788720359,-296.305429242836
738504.46910696104168891907,-2.67723624378185,-5.96377452925199,-296.333124790185
738504.46910705149639397860,-2.65877254554888,-5.94531083101901,-296.24080629902
738504.46910714195109903812,-2.63107699819941,-5.91761528366955,-296.342356639302
738504.46910723240580409765,-2.60338145084994,-5.88068788720359,-296.323892941069
738504.46910732286050915718,-2.63107699819941,-5.91761528366955,-296.213110751671
738504.46910741319879889488,-2.64954069643239,-5.92684713278603,-296.26850184637
738504.46910750365350395441,-2.62184514908292,-5.89915158543657,-296.305429242836
738504.46910759410820901394,-2.58491775261696,-5.86222418897061,-296.305429242836
738504.46910768456291407347,-2.60338145084994,-5.88068788720359,-296.26850184637
738504.46910777501761913300,-2.65877254554888,-5.92684713278603,-296.333124790185
738504.46910786547232419252,-2.67723624378185,-5.94531083101901,-296.314661091952
738504.46910795581061393023,-2.6403088473159,-5.90838343455306,-296.213110751671
738504.46910804626531898975,-2.62184514908292,-5.88991973632008,-296.305429242836
738504.46910813672002404928,-2.6403088473159,-5.90838343455306,-296.333124790185
738504.46910822717472910881,-2.63107699819941,-5.89915158543657,-296.323892941069
738504.46910831762943416834,-2.59414960173345,-5.86222418897061,-296.323892941069
738504.46910840808413922787,-2.56645405438398,-5.81606494338816,-296.250038148137
738504.46910849853884428740,-2.67723624378185,-5.93607898190252,-296.203878902554
738504.46910858887713402510,-2.64954069643239,-5.90838343455306,-296.194647053438
738504.46910867933183908463,-2.69569994201483,-5.94531083101901,-296.185415204321
738504.46910876978654414415,-2.68646809289834,-5.93607898190252,-296.194647053438
738504.46910886024124920368,-2.65877254554888,-5.90838343455306,-296.194647053438
738504.46910895069595426321,-2.65877254554888,-5.90838343455306,-296.185415204321
738504.46910904115065932274,-2.65877254554888,-5.90838343455306,-296.203878902554
738504.46910913148894906044,-2.6403088473159,-5.88991973632008,-296.259269997253
738504.46910922194365411997,-2.60338145084994,-5.85299233985412,-296.24080629902
738504.46910931239835917950,-2.60338145084994,-5.85299233985412,-296.24080629902
738504.46910940285306423903,-2.67723624378185,-5.92684713278603,-296.194647053438
738504.46910949330776929855,-2.64954069643239,-5.89915158543657,-296.26850184637
738504.46910958376247435808,-2.64954069643239,-5.89915158543657,-296.286965544603
738504.46910967421717941761,-2.65877254554888,-5.88991973632008,-296.231574449904
738504.46910976455546915531,-2.66800439466536,-5.90838343455306,-296.286965544603
738504.46910985501017421484,-2.66800439466536,-5.90838343455306,-296.26850184637
738504.46910994546487927437,-2.62184514908292,-5.86222418897061,-296.26850184637
738504.46911003591958433390,-2.64954069643239,-5.88991973632008,-296.194647053438
738504.46911012637428939342,-2.65877254554888,-5.89915158543657,-296.148487807855
738504.46911021682899445295,-2.66800439466536,-5.91761528366955,-296.286965544603
738504.46911030716728419065,-2.65877254554888,-5.89915158543657,-296.305429242836
738504.46911039762198925018,-2.65877254554888,-5.88991973632008,-296.277733695486
738504.46911048807669430971,-2.64954069643239,-5.88991973632008,-296.277733695486
738504.46911057853139936924,-2.66800439466536,-5.90838343455306,-296.286965544603
738504.46911066898610442877,-2.65877254554888,-5.89915158543657,-296.314661091952
738504.46911075944080948830,-2.65877254554888,-5.88068788720359,-296.24080629902
738504.46911084989551454782,-2.63107699819941,-5.86222418897061,-296.333124790185
738504.46911094023380428553,-2.65877254554888,-5.88991973632008,-296.314661091952
738504.46911103068850934505,-2.65877254554888,-5.90838343455306,-296.24080629902
738504.46911112114321440458,-2.66800439466536,-5.90838343455306,-296.286965544603
738504.46911121159791946411,-2.63107699819941,-5.8714560380871,-296.314661091952
738504.46911130205262452364,-2.63107699819941,-5.8714560380871,-296.296197393719
738504.46911139250732958317,-2.64954069643239,-5.88991973632008,-296.250038148137
738504.46911148284561932087,-2.66800439466536,-5.89915158543657,-296.323892941069
738504.46911157330032438040,-2.69569994201483,-5.92684713278603,-296.333124790185
738504.46911166375502943993,-2.67723624378185,-5.90838343455306,-296.222342600787
738504.46911175420973449945,-2.67723624378185,-5.91761528366955,-296.286965544603
738504.46911184466443955898,-2.64954069643239,-5.88991973632008,-296.305429242836
738504.46911193511914461851,-2.65877254554888,-5.89915158543657,-296.24080629902
738504.46911202557384967804,-2.65877254554888,-5.89915158543657,-296.277733695486
738504.46911211591213941574,-2.6403088473159,-5.88068788720359,-296.305429242836
738504.46911220636684447527,-2.62184514908292,-5.86222418897061,-296.296197393719
738504.46911229682154953480,-2.6403088473159,-5.88068788720359,-296.277733695486
738504.46911238727625459433,-2.6403088473159,-5.88991973632008,-296.185415204321
738504.46911247773095965385,-2.68646809289834,-5.92684713278603,-296.185415204321
738504.46911256818566471338,-2.64954069643239,-5.88991973632008,-296.203878902554
738504.46911265852395445108,-2.65877254554888,-5.89915158543657,-296.194647053438
738504.46911274897865951061,-2.65877254554888,-5.90838343455306,-296.203878902554
738504.46911283943336457014,-2.62184514908292,-5.86222418897061,-296.203878902554
738504.46911292988806962967,-2.6403088473159,-5.88068788720359,-296.194647053438
738504.46911302034277468920,-2.66800439466536,-5.90838343455306,-296.213110751671
738504.46911311079747974873,-2.58491775261696,-5.83452864162114,-296.222342600787
738504.46911320125218480825,-2.64954069643239,-5.90838343455306,-296.250038148137
738504.46911329159047454596,-2.66800439466536,-5.9545426801355,-296.250038148137
738504.46911338204517960548,-2.63107699819941,-5.91761528366955,-296.259269997253
738504.46911347249988466501,-2.63107699819941,-5.91761528366955,-296.286965544603
738504.46911356295458972454,-2.60338145084994,-5.88991973632008,-296.203878902554
738504.46911365340929478407,-2.55722220526749,-5.86222418897061,-296.120792260506
738504.46911374386399984360,-2.49259926145207,-5.83452864162114,-296.286965544603
738504.46911383420228958130,-2.54799035615101,-5.86222418897061,-296.286965544603
738504.46911392465699464083,-2.57568590350047,-5.85299233985412,-296.203878902554
738504.46911401511169970036,-2.56645405438398,-5.81606494338816,-296.185415204321
738504.46911410556640475988,-2.56645405438398,-5.82529679250465,-296.24080629902
738504.46911419602110981941,-2.65877254554888,-5.91761528366955,-296.213110751671
738504.46911428647581487894,-2.68646809289834,-5.92684713278603,-296.231574449904
738504.46911437693051993847,-2.69569994201483,-5.91761528366955,-296.259269997253
738504.46911446726880967617,-2.66800439466536,-5.88068788720359,-296.296197393719
738504.46911455772351473570,-2.66800439466536,-5.88991973632008,-296.314661091952
738504.46911464817821979523,-2.69569994201483,-5.91761528366955,-296.277733695486
738504.46911473863292485476,-2.68646809289834,-5.90838343455306,-296.277733695486
738504.46911482908762991428,-2.67723624378185,-5.89915158543657,-296.305429242836
738504.46911491954233497381,-2.63107699819941,-5.86222418897061,-296.305429242836
738504.46911500988062471151,-2.62184514908292,-5.84376049073763,-296.259269997253
738504.46911510033532977104,-2.71416364024781,-5.93607898190252,-296.286965544603
738504.46911519079003483057,-2.73262733848079,-5.96377452925199,-296.323892941069
738504.46911528124473989010,-2.65877254554888,-5.89915158543657,-296.26850184637
738504.46911537169944494963,-2.67723624378185,-5.92684713278603,-296.213110751671
738504.46911546215415000916,-2.65877254554888,-5.89915158543657,-296.277733695486
738504.46911555260885506868,-2.68646809289834,-5.90838343455306,-296.286965544603
738504.46911564294714480639,-2.61261329996643,-5.81606494338816,-296.296197393719
738504.46911573340184986591,-2.57568590350047,-5.7883693960387,-296.222342600787
738504.46911582385655492544,-2.49259926145207,-5.66835535752434,-296.259269997253
738504.46911591431125998497,-2.14178899502548,-5.52064577166051,-296.166951506088
738504.46911600476596504450,-1.64326914273507,-5.76067384868923,-296.11156041139
738504.46911609522067010403,-1.07089449751274,-6.00070192571795,-296.176183355205
738504.46911618555895984173,-1.37554551835688,-6.22226630451369,-296.213110751671
738504.46911627601366490126,-2.09562974944304,-6.5546128727073,-296.333124790185
738504.46911636646836996078,-2.41874446852016,-6.97004608294931,-296.443906979583
738504.46911645692307502031,-2.52029480880154,-6.89619129001739,-296.4531388287
738504.46911654737778007984,-2.40028077028718,-6.48075807977538,-296.397747734001
738504.46911663783248513937,-2.48336741233558,-6.27765739921262,-296.379284035768
738504.46911672828719019890,-2.55722220526749,-6.15764336069826,-296.379284035768
738504.46911681862547993660,-2.56645405438398,-6.08378856776635,-296.370052186651
738504.46911690908018499613,-2.58491775261696,-5.99147007660146,-296.296197393719
738504.46911699953489005566,-2.61261329996643,-5.9545426801355,-296.24080629902
738504.46911708998959511518,-2.58491775261696,-5.90838343455306,-296.157719656972
738504.46911718044430017471,-2.58491775261696,-5.89915158543657,-296.130024109622
738504.46911727089900523424,-2.57568590350047,-5.88991973632008,-296.194647053438
738504.46911736123729497194,-2.49259926145207,-5.81606494338816,-296.194647053438
738504.46911745169200003147,-2.48336741233558,-5.82529679250465,-296.231574449904
738504.46911754214670509100,-2.4649037141026,-5.80683309427168,-296.176183355205
738504.46911763260141015053,-2.50183111056856,-5.84376049073763,-296.213110751671
738504.46911772305611521006,-2.47413556321909,-5.81606494338816,-296.203878902554
738504.46911781351082026958,-2.44644001586962,-5.79760124515519,-296.194647053438
738504.46911790396552532911,-2.45567186498611,-5.80683309427168,-296.148487807855
738504.46911799430381506681,-2.40951261940367,-5.77913754692221,-296.185415204321
738504.46911808475852012634,-2.37258522293771,-5.74221015045625,-296.166951506088
738504.46911817521322518587,-2.33565782647175,-5.72374645222327,-296.157719656972
738504.46911826566793024540,-2.2987304300058,-5.69605090487381,-296.176183355205
738504.46911835612263530493,-2.18794824060793,-5.60373241370891,-296.157719656972
738504.46911844657734036446,-2.16948454237495,-5.59450056459243,-296.148487807855
738504.46911853691563010216,-2.09562974944304,-5.54834131900998,-296.176183355205
738504.46911862737033516169,-2.07716605121006,-5.55757316812647,-296.102328562273
738504.46911871782504022121,-2.0402386547441,-5.53910946989349,-296.185415204321
738504.46911880827974528074,-1.97561571092868,-5.51141392254402,-296.157719656972
738504.46911889873445034027,-1.92022461622974,-5.49295022431104,-296.130024109622
738504.46911898918915539980,-1.82790612506485,-5.42832728049562,-296.120792260506
738504.46911907964386045933,-1.78174687948241,-5.40986358226264,-296.139255958739
738504.46911916998215019703,-1.74481948301645,-5.40986358226264,-296.139255958739
738504.46911926043685525656,-1.77251503036592,-5.46525467696158,-296.102328562273
738504.46911935089156031609,-1.71712393566698,-5.42832728049562,-296.176183355205
738504.46911944134626537561,-1.80944242683187,-5.49295022431104,-296.166951506088
738504.46911953180097043514,-1.97561571092868,-5.62219611194189,-296.11156041139
738504.46911962225567549467,-2.07716605121006,-5.66835535752434,-296.194647053438
738504.46911971259396523237,-2.16025269325846,-5.68681905575732,-296.222342600787
738504.46911980304867029190,-2.27103488265633,-5.74221015045625,-296.203878902554
738504.46911989350337535143,-2.33565782647175,-5.76990569780572,-296.259269997253
738504.46911998395808041096,-2.44644001586962,-5.82529679250465,-296.286965544603
738504.46912007441278547049,-2.53875850703452,-5.88068788720359,-296.259269997253
738504.46912016486749053001,-2.55722220526749,-5.88991973632008,-296.250038148137
738504.46912025532219558954,-2.55722220526749,-5.88068788720359,-296.26850184637
738504.46912034566048532724,-2.56645405438398,-5.88068788720359,-296.296197393719
738504.46912043611519038677,-2.58491775261696,-5.88991973632008,-296.213110751671
738504.46912052656989544630,-2.61261329996643,-5.90838343455306,-296.26850184637
738504.46912061702460050583,-2.58491775261696,-5.89915158543657,-296.24080629902
738504.46912070747930556536,-2.57568590350047,-5.89915158543657,-296.157719656972
738504.46912079793401062489,-2.56645405438398,-5.8714560380871,-296.250038148137
738504.46912088827230036259,-2.55722220526749,-5.8714560380871,-296.231574449904
738504.46912097872700542212,-2.61261329996643,-5.93607898190252,-296.213110751671
738504.46912106918171048164,-2.60338145084994,-5.91761528366955,-296.213110751671
738504.46912115963641554117,-2.55722220526749,-5.8714560380871,-296.222342600787
738504.46912125009112060070,-2.60338145084994,-5.91761528366955,-296.24080629902
738504.46912134054582566023,-2.61261329996643,-5.93607898190252,-296.222342600787
738504.46912143100053071976,-2.60338145084994,-5.92684713278603,-296.222342600787
738504.46912152133882045746,-2.60338145084994,-5.92684713278603,-296.250038148137
738504.46912161179352551699,-2.56645405438398,-5.94531083101901,-296.203878902554
738504.46912170224823057652,-2.57568590350047,-5.96377452925199,-296.222342600787
738504.46912179270293563604,-2.63107699819941,-5.9545426801355,-296.222342600787
738504.46912188315764069557,-2.59414960173345,-6.01916562395093,-296.231574449904
738504.46912197361234575510,-2.62184514908292,-5.99147007660146,-296.231574449904
738504.46912206395063549280,-2.60338145084994,-5.88068788720359,-296.26850184637
738504.46912215440534055233,-2.59414960173345,-5.86222418897061,-296.277733695486
738504.46912224486004561186,-2.59414960173345,-5.88068788720359,-296.176183355205
738504.46912233531475067139,-2.60338145084994,-5.88991973632008,-296.259269997253
738504.46912242576945573092,-2.57568590350047,-5.86222418897061,-296.286965544603
738504.46912251622416079044,-2.58491775261696,-5.86222418897061,-296.24080629902
738504.46912260667886584997,-2.58491775261696,-5.98223822748497,-296.250038148137
738504.46912269701715558767,-2.61261329996643,-6.08378856776635,-296.286965544603
738504.46912278747186064720,-2.61261329996643,-5.97300637836848,-296.323892941069
738504.46912287792656570673,-2.63107699819941,-6.05609302041688,-296.296197393719
738504.46912296838127076626,-2.59414960173345,-5.97300637836848,-296.259269997253
738504.46912305883597582579,-2.63107699819941,-5.76067384868923,-296.286965544603
738504.46912314929068088531,-2.60338145084994,-5.7883693960387,-296.286965544603
738504.46912323962897062302,-2.57568590350047,-5.76067384868923,-296.203878902554
738504.46912333008367568254,-2.60338145084994,-5.86222418897061,-296.259269997253
738504.46912342053838074207,-2.6403088473159,-5.91761528366955,-296.286965544603
738504.46912351099308580160,-2.60338145084994,-5.91761528366955,-296.286965544603
738504.46912360144779086113,-2.55722220526749,-6.05609302041688,-296.296197393719
738504.46912369190249592066,-2.59414960173345,-6.08378856776635,-296.323892941069
738504.46912378235720098019,-2.66800439466536,-5.83452864162114,-296.26850184637
738504.46912387269549071789,-2.66800439466536,-5.89915158543657,-296.24080629902
738504.46912396315019577742,-2.6403088473159,-5.86222418897061,-296.26850184637
738504.46912405360490083694,-2.63107699819941,-5.84376049073763,-296.314661091952
738504.46912414405960589647,-2.61261329996643,-5.82529679250465,-296.028473769341
738504.46912423451431095600,-2.60338145084994,-5.85299233985412,-296.11156041139
738504.46912432496901601553,-2.61261329996643,-5.86222418897061,-296.305429242836
738504.46912441530730575323,-2.59414960173345,-6.00070192571795,-296.323892941069
738504.46912450576201081276,-2.56645405438398,-6.05609302041688,-296.259269997253
738504.46912459621671587229,-2.56645405438398,-5.79760124515519,-296.277733695486
738504.46912468667142093182,-2.65877254554888,-5.90838343455306,-296.231574449904
738504.46912477712612599134,-2.64954069643239,-5.82529679250465,-296.176183355205
738504.46912486758083105087,-2.61261329996643,-5.7883693960387,-296.203878902554
738504.46912495803553611040,-2.56645405438398,-5.83452864162114,-296.213110751671
738504.46912504837382584810,-2.62184514908292,-5.89915158543657,-296.194647053438
738504.46912513882853090763,-2.68646809289834,-5.91761528366955,-296.259269997253
738504.46912522928323596716,-2.6403088473159,-5.84376049073763,-296.194647053438
738504.46912531973794102669,-2.60338145084994,-5.84376049073763,-296.203878902554
738504.46912541019264608622,-2.63107699819941,-6.09302041688284,-296.259269997253
738504.46912550064735114574,-2.62184514908292,-5.90838343455306,-296.203878902554
738504.46912559098564088345,-2.65877254554888,-5.88991973632008,-296.24080629902
738504.46912568144034594297,-2.6403088473159,-5.88991973632008,-296.296197393719
738504.46912577189505100250,-2.62184514908292,-5.80683309427168,-296.231574449904
738504.46912586234975606203,-2.59414960173345,-5.82529679250465,-296.213110751671
738504.46912595280446112156,-2.61261329996643,-5.76990569780572,-296.231574449904
738504.46912604325916618109,-2.63107699819941,-5.82529679250465,-296.231574449904
738504.46912613371387124062,-2.65877254554888,-5.8714560380871,-296.24080629902
738504.46912622405216097832,-2.59414960173345,-5.81606494338816,-296.26850184637
738504.46912631450686603785,-2.55722220526749,-5.79760124515519,-296.26850184637
738504.46912640496157109737,-2.67723624378185,-5.96377452925199,-296.296197393719
738504.46912649541627615690,-2.62184514908292,-5.90838343455306,-296.277733695486
738504.46912658587098121643,-2.66800439466536,-5.90838343455306,-296.222342600787
738504.46912667632568627596,-2.64954069643239,-5.83452864162114,-296.286965544603
738504.46912676666397601366,-2.64954069643239,-5.81606494338816,-296.323892941069
738504.46912685711868107319,-2.64954069643239,-5.84376049073763,-296.24080629902
738504.46912694757338613272,-2.65877254554888,-5.85299233985412,-296.305429242836
738504.46912703802809119225,-2.61261329996643,-5.82529679250465,-296.231574449904
738504.46912712848279625177,-2.63107699819941,-5.84376049073763,-296.277733695486
738504.46912721893750131130,-2.6403088473159,-5.84376049073763,-296.314661091952
738504.46912730939220637083,-2.56645405438398,-5.79760124515519,-296.296197393719
738504.46912739973049610853,-2.52952665791803,-5.75144199957274,-296.286965544603
738504.46912749018520116806,-2.7233954893643,-5.99147007660146,-296.314661091952
738504.46912758063990622759,-2.63107699819941,-5.92684713278603,-296.296197393719
738504.46912767109461128712,-2.54799035615101,-5.89915158543657,-296.102328562273
738504.46912776154931634665,-2.64954069643239,-5.84376049073763,-296.222342600787
738504.46912785200402140617,-2.6403088473159,-5.96377452925199,-296.333124790185
738504.46912794234231114388,-2.54799035615101,-5.84376049073763,-296.333124790185
738504.46912803279701620340,-2.52029480880154,-5.79760124515519,-296.286965544603
738504.46912812325172126293,-2.58491775261696,-5.76067384868923,-296.305429242836
738504.46912821370642632246,-2.57568590350047,-5.75144199957274,-296.296197393719
738504.46912830416113138199,-2.59414960173345,-5.77913754692221,-296.231574449904
738504.46912839461583644152,-2.57568590350047,-5.77913754692221,-296.286965544603
738504.46912848507054150105,-2.58491775261696,-5.77913754692221,-296.314661091952
738504.46912857540883123875,-2.64954069643239,-5.84376049073763,-296.250038148137
738504.46912866586353629827,-2.70493179113132,-5.88068788720359,-296.286965544603
738504.46912875631824135780,-2.67723624378185,-5.83452864162114,-296.314661091952
738504.46912884677294641733,-2.71416364024781,-5.88991973632008,-296.305429242836
738504.46912893722765147686,-2.71416364024781,-5.93607898190252,-296.333124790185
738504.46912902768235653639,-2.71416364024781,-5.8714560380871,-296.26850184637
738504.46912911802064627409,-2.69569994201483,-5.80683309427168,-296.231574449904
738504.46912920847535133362,-2.71416364024781,-5.86222418897061,-296.203878902554
738504.46912929893005639315,-2.67723624378185,-5.82529679250465,-296.231574449904
738504.46912938938476145267,-2.66800439466536,-5.84376049073763,-296.24080629902
738504.46912947983946651220,-2.68646809289834,-5.8714560380871,-296.277733695486
738504.46912957029417157173,-2.69569994201483,-5.91761528366955,-296.203878902554
738504.46912966074887663126,-2.64954069643239,-5.83452864162114,-296.231574449904
738504.46912975108716636896,-2.68646809289834,-5.96377452925199,-296.24080629902
738504.46912984154187142849,-2.7233954893643,-5.85299233985412,-296.277733695486
738504.46912993199657648802,-2.69569994201483,-5.76990569780572,-296.222342600787
738504.46913002245128154755,-2.63107699819941,-5.65912350840785,-296.203878902554
738504.46913011290598660707,-2.41874446852016,-5.52064577166051,-296.194647053438
738504.46913020336069166660,-1.92945646534623,-5.41909543137913,-296.166951506088
738504.46913029369898140430,-1.3570818201239,-5.64989165929136,-296.130024109622
738504.46913038415368646383,-1.26476332895901,-5.94531083101901,-296.203878902554
738504.46913047460839152336,-2.08639790032655,-6.25919370097964,-296.360820337535
738504.46913056506309658289,-2.51106295968505,-6.69309060945463,-296.526993621632
738504.46913065551780164242,-2.62184514908292,-6.86849574266793,-296.508529923399
738504.46913074597250670195,-2.62184514908292,-6.61923581652272,-296.508529923399
738504.46913083642721176147,-2.48336741233558,-6.34228034302805,-296.434675130467
738504.46913092676550149918,-2.51106295968505,-6.22226630451369,-296.333124790185
738504.46913101722020655870,-2.49259926145207,-5.97300637836848,-296.360820337535
738504.46913110767491161823,-2.59414960173345,-6.01916562395093,-296.370052186651
738504.46913119812961667776,-2.62184514908292,-5.85299233985412,-296.102328562273
738504.46913128858432173729,-2.52029480880154,-5.64989165929136,-296.194647053438
738504.46913137903902679682,-2.58491775261696,-5.80683309427168,-296.231574449904
738504.46913146937731653452,-2.48336741233558,-5.69605090487381,-296.305429242836
738504.46913155983202159405,-2.64954069643239,-5.89915158543657,-296.314661091952
738504.46913165028672665358,-2.53875850703452,-5.82529679250465,-296.24080629902
738504.46913174074143171310,-2.49259926145207,-5.7883693960387,-296.259269997253
738504.46913183119613677263,-2.53875850703452,-5.7883693960387,-296.286965544603
738504.46913192165084183216,-2.52029480880154,-5.85299233985412,-296.26850184637
738504.46913201210554689169,-2.4649037141026,-5.80683309427168,-296.176183355205
738504.46913210244383662939,-2.41874446852016,-5.74221015045625,-296.231574449904
738504.46913219289854168892,-2.40951261940367,-5.68681905575732,-296.259269997253
738504.46913228335324674845,-2.34488967558824,-5.70528275399029,-296.176183355205
738504.46913237380795180798,-2.23410748619037,-5.56680501724296,-296.222342600787
738504.46913246426265686750,-2.30796227912229,-5.58526871547594,-296.203878902554
738504.46913255471736192703,-2.31719412823878,-5.62219611194189,-296.24080629902
738504.46913264505565166473,-2.25257118442335,-5.57603686635945,-296.130024109622
738504.46913273551035672426,-2.20641193884091,-5.55757316812647,-296.203878902554
738504.46913282596506178379,-2.09562974944304,-5.51141392254402,-296.194647053438
738504.46913291641976684332,-2.01254310739463,-5.529877620777,-296.11156041139
738504.46913300687447190285,-1.94792016357921,-5.46525467696158,-296.093096713157
738504.46913309732917696238,-1.82790612506485,-5.32677694021424,-296.065401165807
738504.46913318778388202190,-1.81867427594836,-5.35447248756371,-296.065401165807
738504.46913327812217175961,-1.7909787285989,-5.4467909787286,-296.056169316691
738504.46913336857687681913,-1.7909787285989,-5.60373241370891,-296.08386486404
738504.46913345903158187866,-1.75405133213294,-5.4467909787286,-296.130024109622
738504.46913354948628693819,-1.70789208655049,-5.28061769463179,-296.074633014924
738504.46913363994099199772,-1.71712393566698,-5.19753105258339,-296.074633014924
738504.46913373039569705725,-1.93868831446272,-5.45602282784509,-296.102328562273
738504.46913382085040211678,-1.98484756004517,-5.51141392254402,-296.120792260506
738504.46913391118869185448,-2.16025269325846,-5.64065981017487,-296.157719656972
738504.46913400164339691401,-2.26180303353984,-5.69605090487381,-296.157719656972
738504.46913409209810197353,-2.39104892117069,-5.75144199957274,-296.259269997253
738504.46913418255280703306,-2.40028077028718,-5.72374645222327,-296.194647053438
738504.46913427300751209259,-2.43720816675314,-5.76990569780572,-296.213110751671
738504.46913436346221715212,-2.58491775261696,-6.02839747306742,-296.286965544603
738504.46913445380050688982,-2.52952665791803,-5.7883693960387,-296.203878902554
738504.46913454425521194935,-2.53875850703452,-5.68681905575732,-296.26850184637
738504.46913463470991700888,-2.59414960173345,-5.7883693960387,-296.305429242836
738504.46913472516462206841,-2.52029480880154,-5.73297830133976,-296.120792260506
738504.46913481561932712793,-2.54799035615101,-5.77913754692221,-296.203878902554
738504.46913490607403218746,-2.61261329996643,-5.84376049073763,-296.203878902554
738504.46913499652873724699,-2.62184514908292,-5.97300637836848,-296.250038148137
738504.46913508686702698469,-2.53875850703452,-5.74221015045625,-296.24080629902
738504.46913517732173204422,-2.60338145084994,-5.94531083101901,-296.26850184637
738504.46913526777643710375,-2.63107699819941,-5.88991973632008,-296.314661091952
738504.46913535823114216328,-2.60338145084994,-5.80683309427168,-296.286965544603
738504.46913544868584722281,-2.55722220526749,-5.70528275399029,-296.24080629902
738504.46913553914055228233,-2.6403088473159,-5.81606494338816,-296.259269997253
738504.46913562947884202003,-2.63107699819941,-5.82529679250465,-296.213110751671
738504.46913571993354707956,-2.52029480880154,-5.74221015045625,-296.26850184637
738504.46913581038825213909,-2.57568590350047,-5.82529679250465,-296.305429242836
738504.46913590084295719862,-2.59414960173345,-5.89915158543657,-296.333124790185
738504.46913599129766225815,-2.48336741233558,-5.71451460310678,-296.259269997253
738504.46913608175236731768,-2.60338145084994,-5.85299233985412,-296.333124790185
738504.46913617220707237720,-2.63107699819941,-5.83452864162114,-296.286965544603
738504.46913626254536211491,-2.61261329996643,-5.84376049073763,-296.231574449904
738504.46913635300006717443,-2.59414960173345,-5.7883693960387,-296.314661091952
738504.46913644345477223396,-2.60338145084994,-5.81606494338816,-296.314661091952
738504.46913653390947729349,-2.59414960173345,-5.79760124515519,-296.203878902554
738504.46913662436418235302,-2.65877254554888,-5.81606494338816,-296.296197393719
738504.46913671481888741255,-2.57568590350047,-5.7883693960387,-296.286965544603
738504.46913680515717715025,-2.57568590350047,-5.79760124515519,-296.250038148137
738504.46913689561188220978,-2.50183111056856,-5.76990569780572,-296.286965544603
738504.46913698606658726931,-2.69569994201483,-5.8714560380871,-296.323892941069
738504.46913707652129232883,-2.63107699819941,-5.79760124515519,-296.26850184637
738504.46913716697599738836,-2.62184514908292,-5.81606494338816,-296.24080629902
738504.46913725743070244789,-2.61261329996643,-5.85299233985412,-296.333124790185
738504.46913734788540750742,-2.60338145084994,-5.83452864162114,-296.296197393719
738504.46913743822369724512,-2.61261329996643,-5.7883693960387,-296.277733695486
738504.46913752867840230465,-2.6403088473159,-5.81606494338816,-296.259269997253
738504.46913761913310736418,-2.66800439466536,-5.92684713278603,-296.314661091952
738504.46913770958781242371,-2.52029480880154,-5.74221015045625,-296.333124790185
738504.46913780004251748323,-2.59414960173345,-5.88991973632008,-296.305429242836
738504.46913789049722254276,-2.69569994201483,-5.86222418897061,-296.259269997253
738504.46913798083551228046,-2.58491775261696,-5.72374645222327,-296.296197393719
738504.46913807129021733999,-2.53875850703452,-5.68681905575732,-296.305429242836
738504.46913816174492239952,-2.69569994201483,-5.84376049073763,-296.213110751671
738504.46913825219962745905,-2.65877254554888,-5.82529679250465,-296.176183355205
738504.46913834265433251858,-2.65877254554888,-5.8714560380871,-296.203878902554
738504.46913843310903757811,-2.61261329996643,-5.84376049073763,-296.231574449904
738504.46913852356374263763,-2.56645405438398,-5.74221015045625,-296.194647053438
738504.46913861390203237534,-2.64954069643239,-5.88991973632008,-296.203878902554
738504.46913870435673743486,-2.6403088473159,-5.92684713278603,-296.185415204321
738504.46913879481144249439,-2.59414960173345,-5.83452864162114,-296.185415204321
738504.46913888526614755392,-2.58491775261696,-5.72374645222327,-296.203878902554
738504.46913897572085261345,-2.60338145084994,-5.74221015045625,-296.203878902554
738504.46913906617555767298,-2.60338145084994,-5.73297830133976,-296.231574449904
738504.46913915651384741068,-2.64954069643239,-5.81606494338816,-296.194647053438
738504.46913924696855247021,-2.61261329996643,-5.80683309427168,-296.24080629902
738504.46913933742325752974,-2.69569994201483,-5.88991973632008,-296.250038148137
738504.46913942787796258926,-2.61261329996643,-5.81606494338816,-296.203878902554
738504.46913951833266764879,-2.60338145084994,-5.85299233985412,-296.222342600787
738504.46913960878737270832,-2.63107699819941,-5.86222418897061,-296.203878902554
738504.46913969924207776785,-2.64954069643239,-5.88068788720359,-296.231574449904
738504.46913978958036750555,-2.65877254554888,-5.9545426801355,-296.24080629902
738504.46913988003507256508,-2.64954069643239,-5.81606494338816,-296.24080629902
738504.46913997048977762461,-2.59414960173345,-5.73297830133976,-296.259269997253
738504.46914006094448268414,-2.53875850703452,-5.71451460310678,-296.286965544603
738504.46914015139918774366,-2.60338145084994,-5.7883693960387,-296.305429242836
738504.46914024185389280319,-2.58491775261696,-5.83452864162114,-296.250038148137
738504.46914033219218254089,-2.53875850703452,-5.83452864162114,-296.277733695486
738504.46914042264688760042,-2.49259926145207,-5.77913754692221,-296.286965544603
738504.46914051310159265995,-2.50183111056856,-5.71451460310678,-296.250038148137
738504.46914060355629771948,-2.51106295968505,-5.82529679250465,-296.286965544603
738504.46914069401100277901,-2.53875850703452,-5.88991973632008,-296.305429242836
738504.46914078446570783854,-2.55722220526749,-5.79760124515519,-296.250038148137
738504.46914087492041289806,-2.53875850703452,-5.85299233985412,-296.250038148137
738504.46914096525870263577,-2.4649037141026,-5.55757316812647,-296.24080629902
738504.46914105571340769529,-2.68646809289834,-5.86222418897061,-296.259269997253
738504.46914114616811275482,-2.69569994201483,-5.86222418897061,-296.213110751671
738504.46914123662281781435,-2.63107699819941,-5.82529679250465,-296.259269997253
738504.46914132707752287388,-2.57568590350047,-5.85299233985412,-296.296197393719
738504.46914141753222793341,-2.65877254554888,-5.84376049073763,-296.259269997253
738504.46914150787051767111,-2.61261329996643,-5.76990569780572,-296.231574449904
738504.46914159832522273064,-2.65877254554888,-5.88991973632008,-296.296197393719
738504.46914168877992779016,-2.55722220526749,-5.7883693960387,-296.296197393719
738504.46914177923463284969,-2.66800439466536,-5.83452864162114,-296.11156041139
738504.46914186968933790922,-2.68646809289834,-5.8714560380871,-296.157719656972
738504.46914196014404296875,-2.62184514908292,-5.80683309427168,-296.203878902554
738504.46914205059874802828,-2.64954069643239,-5.77913754692221,-296.250038148137
738504.46914214093703776598,-2.65877254554888,-5.83452864162114,-296.185415204321
738504.46914223139174282551,-2.55722220526749,-5.76067384868923,-296.194647053438
738504.46914232184644788504,-2.67723624378185,-5.88068788720359,-296.231574449904
738504.46914241230115294456,-2.67723624378185,-5.82529679250465,-296.203878902554
738504.46914250275585800409,-2.51106295968505,-5.69605090487381,-296.194647053438
738504.46914259321056306362,-2.51106295968505,-5.69605090487381,-296.157719656972
738504.46914268354885280132,-2.42797631763665,-5.64989165929136,-296.157719656972
738504.46914277400355786085,-2.0402386547441,-5.59450056459243,-296.120792260506
738504.46914286445826292038,-1.42170476393933,-5.83452864162114,-296.148487807855
738504.46914295491296797991,-0.932416760765404,-5.92684713278603,-296.157719656972
738504.46914304536767303944,-1.12628559221168,-6.00070192571795,-296.130024109622
738504.46914313582237809896,-2.06793420209357,-6.44383068330943,-296.305429242836
738504.46914322627708315849,-2.39104892117069,-6.78540910061953,-296.406979583117
738504.46914331661537289619,-2.4649037141026,-6.8038727988525,-296.434675130467
738504.46914340707007795572,-2.45567186498611,-6.52691732535783,-296.351588488418
738504.46914349752478301525,-2.42797631763665,-6.23149815363018,-296.323892941069
738504.46914358797948807478,-2.4649037141026,-6.02839747306742,-296.314661091952
738504.46914367843419313431,-2.47413556321909,-5.91761528366955,-296.259269997253
738504.46914376888889819384,-2.55722220526749,-5.90838343455306,-296.213110751671
738504.46914385922718793154,-2.53875850703452,-5.86222418897061,-296.250038148137
738504.46914394968189299107,-2.60338145084994,-5.83452864162114,-296.259269997253
738504.46914404013659805059,-2.55722220526749,-5.80683309427168,-296.194647053438
738504.46914413059130311012,-2.52952665791803,-5.79760124515519,-296.250038148137
738504.46914422104600816965,-2.44644001586962,-5.75144199957274,-296.231574449904
738504.46914431150071322918,-2.44644001586962,-5.74221015045625,-296.176183355205
738504.46914440195541828871,-2.41874446852016,-5.70528275399029,-296.24080629902
738504.46914449229370802641,-2.41874446852016,-5.72374645222327,-296.231574449904
738504.46914458274841308594,-2.35412152470473,-5.67758720664083,-296.203878902554
738504.46914467320311814547,-2.39104892117069,-5.67758720664083,-296.203878902554
738504.46914476365782320499,-2.40028077028718,-5.73297830133976,-296.24080629902
738504.46914485411252826452,-2.39104892117069,-5.74221015045625,-296.203878902554
738504.46914494456723332405,-2.36335337382122,-5.67758720664083,-296.157719656972
738504.46914503490552306175,-2.30796227912229,-5.64989165929136,-296.203878902554
738504.46914512536022812128,-2.28026673177282,-5.65912350840785,-296.222342600787
738504.46914521581493318081,-2.23410748619037,-5.59450056459243,-296.194647053438
738504.46914530626963824034,-2.14178899502548,-5.52064577166051,-296.093096713157
738504.46914539672434329987,-2.07716605121006,-5.49295022431104,-296.065401165807
738504.46914548717904835939,-1.93868831446272,-5.3637043366802,-296.120792260506
738504.46914557763375341892,-1.90176091799676,-5.40063173314615,-296.166951506088
738504.46914566797204315662,-1.93868831446272,-5.529877620777,-296.148487807855
738504.46914575842674821615,-1.84636982329783,-5.37293618579669,-296.08386486404
738504.46914584888145327568,-1.71712393566698,-5.28984954374828,-296.11156041139
738504.46914593933615833521,-1.74481948301645,-5.39139988402966,-296.148487807855
738504.46914602979086339474,-1.70789208655049,-5.3637043366802,-296.019241920225
738504.46914612024556845427,-1.71712393566698,-5.40986358226264,-296.010010071108
738504.46914621058385819197,-1.74481948301645,-5.43755912961211,-296.000778221992
738504.46914630103856325150,-1.81867427594836,-5.47448652607807,-296.037705618458
738504.46914639149326831102,-1.92945646534623,-5.55757316812647,-296.074633014924
738504.46914648194797337055,-2.05870235297708,-5.63142796105838,-296.093096713157
738504.46914657240267843008,-2.15102084414197,-5.62219611194189,-296.148487807855
738504.46914666285738348961,-2.28949858088931,-5.70528275399029,-296.166951506088
738504.46914675331208854914,-2.39104892117069,-5.76067384868923,-296.157719656972
738504.46914684365037828684,-2.43720816675314,-5.79760124515519,-296.213110751671
738504.46914693410508334637,-2.48336741233558,-5.81606494338816,-296.203878902554
738504.46914702455978840590,-2.50183111056856,-5.7883693960387,-296.213110751671
738504.46914711501449346542,-2.54799035615101,-5.82529679250465,-296.176183355205
738504.46914720546919852495,-2.52029480880154,-5.77913754692221,-296.185415204321
738504.46914729592390358448,-2.56645405438398,-5.84376049073763,-296.222342600787
738504.46914738626219332218,-2.56645405438398,-5.84376049073763,-296.222342600787
738504.46914747671689838171,-2.55722220526749,-5.82529679250465,-296.24080629902
738504.46914756717160344124,-2.57568590350047,-5.84376049073763,-296.185415204321
738504.46914765762630850077,-2.59414960173345,-5.85299233985412,-296.203878902554
738504.46914774808101356030,-2.57568590350047,-5.86222418897061,-296.222342600787
738504.46914783853571861982,-2.54799035615101,-5.82529679250465,-296.222342600787
738504.46914792899042367935,-2.54799035615101,-5.86222418897061,-296.231574449904
738504.46914801932871341705,-2.51106295968505,-5.79760124515519,-296.250038148137
738504.46914810978341847658,-2.63107699819941,-5.88068788720359,-296.259269997253
738504.46914820023812353611,-2.49259926145207,-5.74221015045625,-296.176183355205
738504.46914829069282859564,-2.62184514908292,-5.89915158543657,-296.259269997253
738504.46914838114753365517,-2.61261329996643,-5.88991973632008,-296.259269997253
738504.46914847160223871469,-2.56645405438398,-5.88068788720359,-296.277733695486
738504.46914856194052845240,-2.55722220526749,-5.83452864162114,-296.185415204321
738504.46914865239523351192,-2.55722220526749,-5.84376049073763,-296.26850184637
738504.46914874284993857145,-2.56645405438398,-5.84376049073763,-296.26850184637
738504.46914883330464363098,-2.55722220526749,-5.83452864162114,-296.231574449904
738504.46914892375934869051,-2.50183111056856,-5.7883693960387,-296.130024109622
738504.46914901421405375004,-2.54799035615101,-5.83452864162114,-296.26850184637
738504.46914910466875880957,-2.57568590350047,-5.8714560380871,-296.296197393719
738504.46914919500704854727,-2.4649037141026,-5.73297830133976,-296.185415204321
738504.46914928546175360680,-2.58491775261696,-5.89915158543657,-296.26850184637
738504.46914937591645866632,-2.55722220526749,-5.83452864162114,-296.26850184637
738504.46914946637116372585,-2.59414960173345,-5.85299233985412,-296.259269997253
738504.46914955682586878538,-2.61261329996643,-5.90838343455306,-296.26850184637
738504.46914964728057384491,-2.57568590350047,-5.86222418897061,-296.286965544603
738504.46914973761886358261,-2.58491775261696,-5.81606494338816,-296.286965544603
738504.46914982807356864214,-2.57568590350047,-5.82529679250465,-296.194647053438
738504.46914991852827370167,-2.55722220526749,-5.81606494338816,-296.250038148137
738504.46915000898297876120,-2.50183111056856,-5.76067384868923,-296.213110751671
738504.46915009943768382072,-2.55722220526749,-5.81606494338816,-296.185415204321
738504.46915018989238888025,-2.56645405438398,-5.85299233985412,-296.194647053438
738504.46915028034709393978,-2.57568590350047,-5.86222418897061,-296.194647053438
738504.46915037068538367748,-2.58491775261696,-5.84376049073763,-296.194647053438
738504.46915046114008873701,-2.58491775261696,-5.84376049073763,-296.148487807855
738504.46915055159479379654,-2.56645405438398,-5.85299233985412,-296.24080629902
738504.46915064204949885607,-2.55722220526749,-5.80683309427168,-296.203878902554
738504.46915073250420391560,-2.57568590350047,-5.82529679250465,-296.24080629902
738504.46915082295890897512,-2.56645405438398,-5.83452864162114,-296.222342600787
738504.46915091329719871283,-2.52952665791803,-5.76067384868923,-296.203878902554
738504.46915100375190377235,-2.60338145084994,-5.86222418897061,-296.213110751671
738504.46915109420660883188,-2.55722220526749,-5.83452864162114,-296.213110751671
738504.46915118466131389141,-2.60338145084994,-5.90838343455306,-296.213110751671
738504.46915127511601895094,-2.61261329996643,-5.88068788720359,-296.194647053438
738504.46915136557072401047,-2.57568590350047,-5.82529679250465,-296.231574449904
738504.46915145602542907000,-2.58491775261696,-5.81606494338816,-296.222342600787
738504.46915154636371880770,-2.52952665791803,-5.7883693960387,-296.185415204321
738504.46915163681842386723,-2.56645405438398,-5.83452864162114,-296.231574449904
738504.46915172727312892675,-2.52029480880154,-5.79760124515519,-296.213110751671
738504.46915181772783398628,-2.59414960173345,-5.84376049073763,-296.24080629902
738504.46915190818253904581,-2.59414960173345,-5.82529679250465,-296.250038148137
738504.46915199863724410534,-2.58491775261696,-5.83452864162114,-296.259269997253
738504.46915208897553384304,-2.52952665791803,-5.77913754692221,-296.277733695486
738504.46915217943023890257,-2.58491775261696,-5.8714560380871,-296.203878902554
738504.46915226988494396210,-2.55722220526749,-5.82529679250465,-296.259269997253
738504.46915236033964902163,-2.53875850703452,-5.81606494338816,-296.176183355205
738504.46915245079435408115,-2.58491775261696,-5.83452864162114,-296.139255958739
738504.46915254124905914068,-2.60338145084994,-5.85299233985412,-296.259269997253
738504.46915263170376420021,-2.58491775261696,-5.81606494338816,-296.26850184637
738504.46915272204205393791,-2.58491775261696,-5.84376049073763,-296.277733695486
738504.46915281249675899744,-2.52952665791803,-5.81606494338816,-296.250038148137
738504.46915290295146405697,-2.56645405438398,-5.88068788720359,-296.296197393719
738504.46915299340616911650,-2.54799035615101,-5.88068788720359,-296.277733695486
738504.46915308386087417603,-2.54799035615101,-5.84376049073763,-296.24080629902
738504.46915317431557923555,-2.51106295968505,-5.79760124515519,-296.26850184637
738504.46915326465386897326,-2.49259926145207,-5.82529679250465,-296.305429242836
738504.46915335510857403278,-2.39104892117069,-5.72374645222327,-296.176183355205
738504.46915344556327909231,-2.44644001586962,-5.76990569780572,-296.286965544603
738504.46915353601798415184,-2.54799035615101,-5.86222418897061,-296.259269997253
738504.46915362647268921137,-2.51106295968505,-5.77913754692221,-296.203878902554
738504.46915371692739427090,-2.52952665791803,-5.82529679250465,-296.250038148137
738504.46915380738209933043,-2.58491775261696,-5.88068788720359,-296.305429242836
738504.46915389772038906813,-2.58491775261696,-5.82529679250465,-296.26850184637
738504.46915398817509412766,-2.63107699819941,-5.86222418897061,-296.231574449904
738504.46915407862979918718,-2.60338145084994,-5.84376049073763,-296.277733695486
738504.46915416908450424671,-2.52952665791803,-5.76990569780572,-296.26850184637
738504.46915425953920930624,-2.55722220526749,-5.79760124515519,-296.250038148137
738504.46915434999391436577,-2.6403088473159,-5.8714560380871,-296.24080629902
738504.46915444033220410347,-2.59414960173345,-5.79760124515519,-296.277733695486
738504.46915453078690916300,-2.65877254554888,-5.91761528366955,-296.286965544603
738504.46915462124161422253,-2.6403088473159,-5.90838343455306,-296.231574449904
738504.46915471169631928205,-2.60338145084994,-5.84376049073763,-296.286965544603
738504.46915480215102434158,-2.57568590350047,-5.79760124515519,-296.185415204321
738504.46915489260572940111,-2.61261329996643,-5.85299233985412,-296.148487807855
738504.46915498306043446064,-2.59414960173345,-5.85299233985412,-296.176183355205
738504.46915507339872419834,-2.62184514908292,-5.8714560380871,-296.176183355205
738504.46915516385342925787,-2.58491775261696,-5.82529679250465,-296.166951506088
738504.46915525430813431740,-2.52029480880154,-5.74221015045625,-296.157719656972
738504.46915534476283937693,-2.57568590350047,-5.80683309427168,-296.157719656972
738504.46915543521754443645,-2.45567186498611,-5.66835535752434,-296.148487807855
738504.46915552567224949598,-2.33565782647175,-5.58526871547594,-296.139255958739
738504.46915561601053923368,-1.84636982329783,-5.59450056459243,-296.056169316691
738504.46915570646524429321,-1.25553147984252,-5.90838343455306,-296.08386486404
738504.46915579691994935274,-1.15398113956114,-6.10225226599933,-296.148487807855
738504.46915588737465441227,-1.85560167241432,-6.35151219214454,-296.102328562273
738504.46915597782935947180,-2.2987304300058,-6.75771355327006,-296.296197393719
738504.46915606828406453133,-2.35412152470473,-6.88695944090091,-296.397747734001
738504.46915615873876959085,-2.41874446852016,-6.76694540238655,-296.434675130467
738504.46915624907705932856,-2.3818170720542,-6.42536698507645,-296.388515884884
738504.46915633953176438808,-2.40028077028718,-6.17610705893124,-296.360820337535
738504.46915642998646944761,-2.44644001586962,-6.06532486953337,-296.333124790185
738504.46915652044117450714,-2.50183111056856,-5.92684713278603,-296.277733695486
738504.46915661089587956667,-2.54799035615101,-5.92684713278603,-296.24080629902
738504.46915670135058462620,-2.57568590350047,-5.8714560380871,-296.231574449904
738504.46915679168887436390,-2.49259926145207,-5.76990569780572,-296.222342600787
738504.46915688214357942343,-2.52029480880154,-5.84376049073763,-296.203878902554
738504.46915697259828448296,-2.48336741233558,-5.76067384868923,-296.222342600787
738504.46915706305298954248,-2.54799035615101,-5.84376049073763,-296.24080629902
738504.46915715350769460201,-2.44644001586962,-5.75144199957274,-296.26850184637
738504.46915724396239966154,-2.40951261940367,-5.70528275399029,-296.176183355205
738504.46915733441710472107,-2.40951261940367,-5.76990569780572,-296.213110751671
738504.46915742475539445877,-2.42797631763665,-5.76990569780572,-296.24080629902
738504.46915751521009951830,-2.2987304300058,-5.63142796105838,-296.194647053438
738504.46915760566480457783,-2.40028077028718,-5.69605090487381,-296.194647053438
738504.46915769611950963736,-2.39104892117069,-5.72374645222327,-296.213110751671
738504.46915778657421469688,-2.32642597735527,-5.69605090487381,-296.185415204321
