time_dn,ecg_projection_ll_ra_mV,ecg_projection_la_ra_mV,ecg_projection_vx_rl_mV
738504.41321155417244881392,-6.49922177800836,-4.62515640736106,-297.127063814203
738504.41321164462715387344,-6.48998992889187,-4.57899716177862,-297.127063814203
738504.41321173508185893297,-6.38843958861049,-4.50514236884671,-297.154759361553
738504.41321182553656399250,-6.36074404126102,-4.40359202856532,-297.080904568621
738504.41321191599126905203,-5.98223822748497,-4.28357799005097,-297.025513473922
738504.41321200632955878973,-5.48371837519456,-4.45898312326426,-297.016281624805
738504.41321209678426384926,-5.09598071230201,-4.56976531266213,-297.043977172155
738504.41321218723896890879,-4.71747489852596,-4.72670674764244,-297.145527512436
738504.41321227769367396832,-5.45602282784509,-4.98519852290414,-297.274773400067
738504.41321236814837902784,-6.18533890804773,-5.49295022431104,-297.422482985931
738504.41321245860308408737,-6.35151219214454,-5.65912350840785,-297.487105929746
738504.41321254905778914690,-6.39767143772698,-5.41909543137913,-297.45017853328
738504.41321263939607888460,-6.379207739494,-5.11444441053499,-297.404019287698
738504.41321272985078394413,-6.39767143772698,-4.91134372997223,-297.302468947417
738504.41321282030548900366,-6.41613513595996,-4.78209784234138,-297.302468947417
738504.41321291076019406319,-6.39767143772698,-4.68977935117649,-297.256309701834
738504.41321300121489912271,-6.44383068330943,-4.66208380382702,-297.173223059786
738504.41321309166960418224,-6.39767143772698,-4.63438825647755,-297.228614154485
738504.41321318200789391994,-6.39767143772698,-4.60669270912809,-297.265541550951
738504.41321327246259897947,-6.32381664479507,-4.57899716177862,-297.145527512436
738504.41321336291730403900,-6.32381664479507,-4.56053346354564,-297.200918607135
738504.41321345337200909853,-6.25919370097964,-4.54206976531266,-297.191686758019
738504.41321354382671415806,-6.25919370097964,-4.53283791619617,-297.200918607135
738504.41321363428141921759,-6.20380260628071,-4.51437421796319,-297.145527512436
738504.41321372473612427711,-6.20380260628071,-4.50514236884671,-297.210150456252
738504.41321381507441401482,-6.14841151158177,-4.48667867061373,-297.200918607135
738504.41321390552911907434,-6.13917966246528,-4.46821497238075,-297.191686758019
738504.41321399598382413387,-6.12071596423231,-4.45898312326426,-297.173223059786
738504.41321408643852919340,-6.05609302041688,-4.44051942503128,-297.191686758019
738504.41321417689323425293,-6.02839747306742,-4.4220557267983,-297.182454908902
738504.41321426734793931246,-5.93607898190252,-4.38512833033235,-297.127063814203
738504.41321435768622905016,-5.89915158543657,-4.34820093386639,-297.080904568621
738504.41321444814093410969,-5.79760124515519,-4.31127353740043,-296.95165868099
738504.41321453859563916922,-5.75144199957274,-4.28357799005097,-297.062440870388
738504.41321462905034422874,-5.64065981017487,-4.24665059358501,-297.043977172155
738504.41321471950504928827,-5.59450056459243,-4.21895504623554,-297.016281624805
738504.41321480995975434780,-5.52064577166051,-4.20049134800256,-297.016281624805
738504.41321490041445940733,-5.50218207342753,-4.19125949888607,-297.007049775689
738504.41321499075274914503,-5.45602282784509,-4.19125949888607,-297.007049775689
738504.41321508120745420456,-5.49295022431104,-4.20972319711905,-297.053209021271
738504.41321517166215926409,-5.51141392254402,-4.23741874446852,-297.062440870388
738504.41321526211686432362,-5.6129642628254,-4.29280983916745,-297.080904568621
738504.41321535257156938314,-5.71451460310678,-4.3389690847499,-297.053209021271
738504.41321544302627444267,-5.86222418897061,-4.39436017944884,-297.080904568621
738504.41321553336456418037,-5.98223822748497,-4.44051942503128,-297.13629566332
738504.41321562381926923990,-6.10225226599933,-4.48667867061373,-297.145527512436
738504.41321571427397429943,-6.19457075716422,-4.51437421796319,-297.173223059786
738504.41321580472867935896,-6.20380260628071,-4.52360606707968,-297.173223059786
738504.41321589518338441849,-6.28688924832911,-4.55130161442915,-297.247077852718
738504.41321598563808947802,-6.28688924832911,-4.56053346354564,-297.182454908902
738504.41321607609279453754,-6.34228034302805,-4.57899716177862,-297.191686758019
738504.41321616643108427525,-6.33304849391156,-4.57899716177862,-297.173223059786
738504.41321625688578933477,-6.36997589037751,-4.58822901089511,-297.210150456252
738504.41321634734049439430,-6.35151219214454,-4.58822901089511,-297.182454908902
738504.41321643779519945383,-6.36997589037751,-4.58822901089511,-297.154759361553
738504.41321652824990451336,-6.35151219214454,-4.58822901089511,-297.154759361553
738504.41321661870460957289,-6.36997589037751,-4.5974608600116,-297.200918607135
738504.41321670904289931059,-6.35151219214454,-4.5974608600116,-297.210150456252
738504.41321679949760437012,-6.36074404126102,-4.5974608600116,-297.219382305368
738504.41321688995230942965,-6.36074404126102,-4.5974608600116,-297.210150456252
738504.41321698040701448917,-6.35151219214454,-4.5974608600116,-297.219382305368
738504.41321707086171954870,-6.35151219214454,-4.5974608600116,-297.210150456252
738504.41321716131642460823,-6.34228034302805,-4.5974608600116,-297.145527512436
738504.41321725177112966776,-6.35151219214454,-4.58822901089511,-297.191686758019
738504.41321734210941940546,-6.33304849391156,-4.58822901089511,-297.237846003601
738504.41321743256412446499,-6.35151219214454,-4.58822901089511,-297.163991210669
738504.41321752301882952452,-6.34228034302805,-4.58822901089511,-297.200918607135
738504.41321761347353458405,-6.36074404126102,-4.58822901089511,-297.219382305368
738504.41321770392823964357,-6.34228034302805,-4.58822901089511,-297.219382305368
738504.41321779438294470310,-6.36074404126102,-4.58822901089511,-297.154759361553
738504.41321788483764976263,-6.35151219214454,-4.58822901089511,-297.154759361553
738504.41321797517593950033,-6.36074404126102,-4.57899716177862,-297.10860011597
738504.41321806563064455986,-6.36074404126102,-4.57899716177862,-297.210150456252
738504.41321815608534961939,-6.36997589037751,-4.57899716177862,-297.210150456252
738504.41321824654005467892,-6.36997589037751,-4.57899716177862,-297.228614154485
738504.41321833699475973845,-6.36997589037751,-4.57899716177862,-297.210150456252
738504.41321842744946479797,-6.379207739494,-4.57899716177862,-297.154759361553
738504.41321851778775453568,-6.36997589037751,-4.57899716177862,-297.228614154485
738504.41321860824245959520,-6.38843958861049,-4.57899716177862,-297.228614154485
738504.41321869869716465473,-6.36997589037751,-4.58822901089511,-297.13629566332
738504.41321878915186971426,-6.38843958861049,-4.57899716177862,-297.219382305368
738504.41321887960657477379,-6.36074404126102,-4.57899716177862,-297.219382305368
738504.41321897006127983332,-6.39767143772698,-4.57899716177862,-297.210150456252
738504.41321906051598489285,-6.36997589037751,-4.57899716177862,-297.191686758019
738504.41321915085427463055,-6.39767143772698,-4.57899716177862,-297.163991210669
738504.41321924130897969007,-6.36997589037751,-4.57899716177862,-297.13629566332
738504.41321933176368474960,-6.39767143772698,-4.57899716177862,-297.163991210669
738504.41321942221838980913,-6.36997589037751,-4.57899716177862,-297.145527512436
738504.41321951267309486866,-6.39767143772698,-4.57899716177862,-297.127063814203
738504.41321960312779992819,-6.379207739494,-4.57899716177862,-297.127063814203
738504.41321969346608966589,-6.379207739494,-4.57899716177862,-297.10860011597
738504.41321978392079472542,-6.38843958861049,-4.57899716177862,-297.127063814203
738504.41321987437549978495,-6.379207739494,-4.57899716177862,-297.117831965087
738504.41321996483020484447,-6.38843958861049,-4.57899716177862,-297.127063814203
738504.41322005528490990400,-6.36997589037751,-4.57899716177862,-297.145527512436
738504.41322014573961496353,-6.39767143772698,-4.58822901089511,-297.145527512436
738504.41322023619432002306,-6.36997589037751,-4.57899716177862,-297.154759361553
738504.41322032653260976076,-6.39767143772698,-4.57899716177862,-297.145527512436
738504.41322041698731482029,-6.36074404126102,-4.57899716177862,-297.13629566332
738504.41322050744201987982,-6.38843958861049,-4.57899716177862,-297.145527512436
738504.41322059789672493935,-6.35151219214454,-4.57899716177862,-297.163991210669
738504.41322068835142999887,-6.34228034302805,-4.57899716177862,-297.200918607135
738504.41322077880613505840,-6.31458479567858,-4.56976531266213,-297.182454908902
738504.41322086914442479610,-6.33304849391156,-4.56976531266213,-297.182454908902
738504.41322095959912985563,-6.27765739921262,-4.56976531266213,-297.191686758019
738504.41322105005383491516,-6.24996185186316,-4.55130161442915,-297.219382305368
738504.41322114050853997469,-6.2130344553972,-4.52360606707968,-297.228614154485
738504.41322123096324503422,-6.24996185186316,-4.53283791619617,-297.13629566332
738504.41322132141795009375,-6.27765739921262,-4.54206976531266,-297.210150456252
738504.41322141187265515327,-6.31458479567858,-4.54206976531266,-297.182454908902
738504.41322150221094489098,-6.32381664479507,-4.54206976531266,-297.071672719504
738504.41322159266564995050,-6.32381664479507,-4.55130161442915,-297.154759361553
738504.41322168312035501003,-6.39767143772698,-4.57899716177862,-297.228614154485
738504.41322177357506006956,-6.38843958861049,-4.57899716177862,-297.210150456252
738504.41322186402976512909,-6.41613513595996,-4.57899716177862,-297.13629566332
738504.41322195448447018862,-6.38843958861049,-4.56976531266213,-297.191686758019
738504.41322204482275992632,-6.42536698507645,-4.57899716177862,-297.200918607135
738504.41322213527746498585,-6.40690328684347,-4.57899716177862,-297.173223059786
738504.41322222573217004538,-6.42536698507645,-4.58822901089511,-297.191686758019
738504.41322231618687510490,-6.41613513595996,-4.58822901089511,-297.219382305368
738504.41322240664158016443,-6.42536698507645,-4.58822901089511,-297.219382305368
738504.41322249709628522396,-6.41613513595996,-4.58822901089511,-297.173223059786
738504.41322258755099028349,-6.42536698507645,-4.58822901089511,-297.237846003601
738504.41322267788928002119,-6.40690328684347,-4.58822901089511,-297.256309701834
738504.41322276834398508072,-6.40690328684347,-4.57899716177862,-297.127063814203
738504.41322285879869014025,-6.40690328684347,-4.56053346354564,-297.200918607135
738504.41322294925339519978,-6.36997589037751,-4.51437421796319,-297.210150456252
738504.41322303970810025930,-6.30535294656209,-4.44975127414777,-297.117831965087
738504.41322313016280531883,-6.15764336069826,-4.30204168828394,-297.145527512436
738504.41322322061751037836,-5.7883693960387,-4.2558824427015,-297.10860011597
738504.41322331095580011606,-5.51141392254402,-4.36666463209937,-297.099368266854
738504.41322340141050517559,-4.85595263527329,-4.63438825647755,-297.034745323038
738504.41322349186521023512,-4.77286599322489,-4.85595263527329,-297.099368266854
738504.41322358231991529465,-5.65912350840785,-5.15137180700095,-297.237846003601
738504.41322367277462035418,-6.12071596423231,-5.59450056459243,-297.394787438581
738504.41322376322932541370,-6.2961210974456,-5.64989165929136,-297.357860042116
738504.41322385356761515141,-6.30535294656209,-5.35447248756371,-297.32093264565
738504.41322394402232021093,-6.24073000274667,-5.00366222113712,-297.284005249184
738504.41322403447702527046,-6.2961210974456,-4.82825708792383,-297.210150456252
738504.41322412493173032999,-6.30535294656209,-4.69901120029298,-297.210150456252
738504.41322421538643538952,-6.34228034302805,-4.64362010559404,-297.182454908902
738504.41322430584114044905,-6.34228034302805,-4.61592455824457,-297.219382305368
738504.41322439629584550858,-6.33304849391156,-4.58822901089511,-297.200918607135
738504.41322448663413524628,-6.28688924832911,-4.56053346354564,-297.099368266854
738504.41322457708884030581,-6.26842555009613,-4.54206976531266,-297.182454908902
738504.41322466754354536533,-6.2130344553972,-4.52360606707968,-297.117831965087
738504.41322475799825042486,-6.2130344553972,-4.51437421796319,-297.127063814203
738504.41322484845295548439,-6.14841151158177,-4.48667867061373,-297.117831965087
738504.41322493890766054392,-6.15764336069826,-4.47744682149724,-296.933194982757
738504.41322502924595028162,-6.09302041688284,-4.44975127414777,-297.025513473922
738504.41322511970065534115,-6.09302041688284,-4.43128757591479,-297.080904568621
738504.41322521015536040068,-6.06532486953337,-4.4220557267983,-297.053209021271
738504.41322530061006546021,-6.01916562395093,-4.40359202856532,-297.062440870388
738504.41322539106477051973,-5.98223822748497,-4.37589648121586,-297.090136417737
738504.41322548151947557926,-5.92684713278603,-4.34820093386639,-297.090136417737
738504.41322557197418063879,-5.88991973632008,-4.32050538651692,-297.090136417737
738504.41322566231247037649,-5.7883693960387,-4.27434614093448,-297.099368266854
738504.41322575276717543602,-5.72374645222327,-4.22818689535203,-297.099368266854
738504.41322584322188049555,-5.62219611194189,-4.19125949888607,-297.007049775689
738504.41322593367658555508,-5.56680501724296,-4.16356395153661,-297.062440870388
738504.41322602413129061460,-5.49295022431104,-4.14510025330363,-297.090136417737
738504.41322611458599567413,-5.47448652607807,-4.13586840418714,-296.988586077456
738504.41322620492428541183,-5.40986358226264,-4.12663655507065,-297.043977172155
738504.41322629537899047136,-5.42832728049562,-4.13586840418714,-297.071672719504
738504.41322638583369553089,-5.40986358226264,-4.14510025330363,-297.090136417737
738504.41322647628840059042,-5.49295022431104,-4.18202764976959,-297.034745323038
738504.41322656674310564995,-5.53910946989349,-4.21895504623554,-297.080904568621
738504.41322665719781070948,-5.70528275399029,-4.28357799005097,-297.127063814203
738504.41322674765251576900,-5.80683309427168,-4.3389690847499,-297.062440870388
738504.41322683799080550671,-5.96377452925199,-4.40359202856532,-297.182454908902
738504.41322692844551056623,-6.04686117130039,-4.44975127414777,-297.191686758019
738504.41322701890021562576,-6.14841151158177,-4.48667867061373,-297.191686758019
738504.41322710935492068529,-6.16687520981475,-4.49591051973022,-297.219382305368
738504.41322719980962574482,-6.19457075716422,-4.50514236884671,-297.127063814203
738504.41322729026433080435,-6.24996185186316,-4.51437421796319,-297.191686758019
738504.41322738060262054205,-6.24996185186316,-4.54206976531266,-297.191686758019
738504.41322747105732560158,-6.28688924832911,-4.54206976531266,-297.191686758019
738504.41322756151203066111,-6.26842555009613,-4.55130161442915,-297.210150456252
738504.41322765196673572063,-6.30535294656209,-4.56976531266213,-297.237846003601
738504.41322774242144078016,-6.27765739921262,-4.56053346354564,-297.154759361553
738504.41322783287614583969,-6.30535294656209,-4.56053346354564,-297.090136417737
738504.41322792333085089922,-6.26842555009613,-4.55130161442915,-297.13629566332
738504.41322801366914063692,-6.2961210974456,-4.56053346354564,-297.127063814203
738504.41322810412384569645,-6.24996185186316,-4.54206976531266,-297.154759361553
738504.41322819457855075598,-6.25919370097964,-4.53283791619617,-297.173223059786
738504.41322828503325581551,-6.28688924832911,-4.57899716177862,-297.182454908902
738504.41322837548796087503,-6.30535294656209,-4.57899716177862,-297.182454908902
738504.41322846594266593456,-6.2961210974456,-4.57899716177862,-296.979354228339
738504.41322855639737099409,-6.32381664479507,-4.5974608600116,-297.117831965087
738504.41322864673566073179,-6.30535294656209,-4.57899716177862,-297.200918607135
738504.41322873719036579132,-6.2961210974456,-4.56976531266213,-297.13629566332
738504.41322882764507085085,-6.27765739921262,-4.55130161442915,-297.182454908902
738504.41322891809977591038,-6.25919370097964,-4.53283791619617,-297.191686758019
738504.41322900855448096991,-6.25919370097964,-4.51437421796319,-297.173223059786
738504.41322909900918602943,-6.26842555009613,-4.54206976531266,-297.163991210669
738504.41322918934747576714,-6.28688924832911,-4.53283791619617,-297.182454908902
738504.41322927980218082666,-6.28688924832911,-4.56976531266213,-297.219382305368
738504.41322937025688588619,-6.35151219214454,-4.60669270912809,-297.210150456252
738504.41322946071159094572,-6.24996185186316,-4.50514236884671,-297.154759361553
738504.41322955116629600525,-6.35151219214454,-4.5974608600116,-297.219382305368
738504.41322964162100106478,-6.34228034302805,-4.58822901089511,-297.219382305368
738504.41322973207570612431,-6.31458479567858,-4.52360606707968,-297.13629566332
738504.41322982241399586201,-6.35151219214454,-4.56053346354564,-297.182454908902
738504.41322991286870092154,-6.379207739494,-4.58822901089511,-297.191686758019
738504.41323000332340598106,-6.34228034302805,-4.56053346354564,-297.10860011597
738504.41323009377811104059,-6.36997589037751,-4.58822901089511,-297.117831965087
738504.41323018423281610012,-6.36997589037751,-4.57899716177862,-297.127063814203
738504.41323027468752115965,-6.35151219214454,-4.56976531266213,-297.117831965087
738504.41323036502581089735,-6.35151219214454,-4.56976531266213,-297.099368266854
738504.41323045548051595688,-6.35151219214454,-4.57899716177862,-297.173223059786
738504.41323054593522101641,-6.36997589037751,-4.56976531266213,-297.219382305368
738504.41323063638992607594,-6.33304849391156,-4.56976531266213,-297.154759361553
738504.41323072684463113546,-6.36997589037751,-4.56976531266213,-297.200918607135
738504.41323081729933619499,-6.36074404126102,-4.56976531266213,-297.210150456252
738504.41323090775404125452,-6.36074404126102,-4.56053346354564,-297.191686758019
738504.41323099809233099222,-6.35151219214454,-4.56053346354564,-297.13629566332
738504.41323108854703605175,-6.34228034302805,-4.52360606707968,-297.173223059786
738504.41323117900174111128,-6.33304849391156,-4.53283791619617,-297.191686758019
738504.41323126945644617081,-6.38843958861049,-4.57899716177862,-297.182454908902
738504.41323135991115123034,-6.36997589037751,-4.56976531266213,-297.163991210669
738504.41323145036585628986,-6.379207739494,-4.57899716177862,-297.163991210669
738504.41323154070414602757,-6.36997589037751,-4.53283791619617,-297.154759361553
738504.41323163115885108709,-6.33304849391156,-4.52360606707968,-297.117831965087
738504.41323172161355614662,-6.41613513595996,-4.5974608600116,-297.13629566332
738504.41323181206826120615,-6.36997589037751,-4.56976531266213,-297.145527512436
738504.41323190252296626568,-6.379207739494,-4.60669270912809,-297.145527512436
738504.41323199297767132521,-6.27765739921262,-4.54206976531266,-296.970122379223
738504.41323208343237638474,-6.30535294656209,-4.50514236884671,-297.043977172155
738504.41323217377066612244,-6.33304849391156,-4.56053346354564,-297.154759361553
738504.41323226422537118196,-6.34228034302805,-4.56976531266213,-297.13629566332
738504.41323235468007624149,-6.22226630451369,-4.53283791619617,-297.200918607135
738504.41323244513478130102,-6.23149815363018,-4.51437421796319,-297.13629566332
738504.41323253558948636055,-6.23149815363018,-4.52360606707968,-297.145527512436
738504.41323262604419142008,-6.27765739921262,-4.47744682149724,-297.154759361553
738504.41323271638248115778,-6.26842555009613,-4.45898312326426,-297.173223059786
738504.41323280683718621731,-6.26842555009613,-4.45898312326426,-297.090136417737
738504.41323289729189127684,-6.36074404126102,-4.51437421796319,-297.117831965087
738504.41323298774659633636,-6.39767143772698,-4.56053346354564,-297.10860011597
738504.41323307820130139589,-6.39767143772698,-4.53283791619617,-297.13629566332
738504.41323316865600645542,-6.39767143772698,-4.54206976531266,-297.163991210669
738504.41323325911071151495,-6.44383068330943,-4.56976531266213,-297.117831965087
738504.41323334944900125265,-6.45306253242592,-4.57899716177862,-297.10860011597
738504.41323343990370631218,-6.45306253242592,-4.55130161442915,-297.10860011597
738504.41323353035841137171,-6.45306253242592,-4.58822901089511,-297.10860011597
738504.41323362081311643124,-6.44383068330943,-4.56053346354564,-297.182454908902
738504.41323371126782149076,-6.35151219214454,-4.47744682149724,-297.191686758019
738504.41323380172252655029,-6.49922177800836,-4.5974608600116,-297.182454908902
738504.41323389217723160982,-6.41613513595996,-4.56976531266213,-297.182454908902
738504.41323398251552134752,-6.45306253242592,-4.56053346354564,-297.219382305368
738504.41323407297022640705,-6.47152623065889,-4.5974608600116,-297.154759361553
738504.41323416342493146658,-6.48075807977538,-4.56976531266213,-297.154759361553
738504.41323425387963652611,-6.43459883419294,-4.51437421796319,-297.182454908902
738504.41323434433434158564,-6.36074404126102,-4.40359202856532,-297.173223059786
738504.41323443478904664516,-6.19457075716422,-4.23741874446852,-297.053209021271
738504.41323452512733638287,-5.89915158543657,-4.23741874446852,-297.053209021271
738504.41323461558204144239,-5.63142796105838,-4.30204168828394,-297.062440870388
738504.41323470603674650192,-4.90211188085574,-4.50514236884671,-297.043977172155
738504.41323479649145156145,-4.91134372997223,-4.68977935117649,-297.090136417737
738504.41323488694615662098,-5.8714560380871,-5.04982146671956,-297.2932370983
738504.41323497740086168051,-6.36074404126102,-5.54834131900998,-297.440946684164
738504.41323506785556674004,-6.39767143772698,-5.60373241370891,-297.330164494766
738504.41323515819385647774,-6.43459883419294,-5.33600878933073,-297.311700796533
738504.41323524864856153727,-6.2961210974456,-4.99443037202063,-297.247077852718
738504.41323533910326659679,-6.39767143772698,-4.81902523880734,-297.163991210669
738504.41323542955797165632,-6.36074404126102,-4.70824304940947,-297.154759361553
738504.41323552001267671585,-6.42536698507645,-4.66208380382702,-297.071672719504
738504.41323561046738177538,-6.40690328684347,-4.62515640736106,-297.071672719504
738504.41323570080567151308,-6.379207739494,-4.54206976531266,-297.173223059786
738504.41323579126037657261,-6.36074404126102,-4.56976531266213,-297.173223059786
738504.41323588171508163214,-6.31458479567858,-4.54206976531266,-297.200918607135
738504.41323597216978669167,-6.25919370097964,-4.49591051973022,-297.117831965087
738504.41323606262449175119,-6.24073000274667,-4.48667867061373,-297.145527512436
738504.41323615307919681072,-6.2130344553972,-4.44975127414777,-297.071672719504
738504.41323624353390187025,-6.12071596423231,-4.38512833033235,-297.071672719504
738504.41323633387219160795,-6.1299478133488,-4.40359202856532,-297.13629566332
738504.41323642432689666748,-6.13917966246528,-4.43128757591479,-297.090136417737
738504.41323651478160172701,-6.10225226599933,-4.39436017944884,-297.090136417737
738504.41323660523630678654,-6.04686117130039,-4.37589648121586,-297.099368266854
738504.41323669569101184607,-6.00993377483444,-4.32973723563341,-297.053209021271
738504.41323678614571690559,-6.02839747306742,-4.36666463209937,-297.043977172155
738504.41323687648400664330,-5.94531083101901,-4.32050538651692,-297.025513473922
738504.41323696693871170282,-5.82529679250465,-4.22818689535203,-297.043977172155
738504.41323705739341676235,-5.76990569780572,-4.20049134800256,-297.025513473922
738504.41323714784812182188,-5.67758720664083,-4.15433210242012,-297.016281624805
738504.41323723830282688141,-5.59450056459243,-4.12663655507065,-297.007049775689
738504.41323732875753194094,-5.54834131900998,-4.11740470595416,-296.988586077456
738504.41323741921223700047,-5.45602282784509,-4.07124546037172,-296.988586077456
738504.41323750955052673817,-5.47448652607807,-4.08970915860469,-297.016281624805
738504.41323760000523179770,-5.42832728049562,-4.0804773094882,-297.007049775689
738504.41323769045993685722,-5.45602282784509,-4.10817285683767,-296.997817926572
738504.41323778091464191675,-5.52064577166051,-4.16356395153661,-297.016281624805
738504.41323787136934697628,-5.64065981017487,-4.21895504623554,-297.071672719504
738504.41323796182405203581,-5.72374645222327,-4.27434614093448,-297.10860011597
738504.41323805216234177351,-5.88068788720359,-4.3389690847499,-297.10860011597
738504.41323814261704683304,-5.94531083101901,-4.36666463209937,-297.10860011597
738504.41323823307175189257,-6.09302041688284,-4.40359202856532,-297.127063814203
738504.41323832352645695210,-6.05609302041688,-4.34820093386639,-297.13629566332
738504.41323841398116201162,-6.20380260628071,-4.47744682149724,-297.13629566332
738504.41323850443586707115,-6.30535294656209,-4.53283791619617,-297.163991210669
738504.41323859489057213068,-6.36997589037751,-4.60669270912809,-297.173223059786
738504.41323868522886186838,-6.39767143772698,-4.5974608600116,-297.182454908902
738504.41323877568356692791,-6.34228034302805,-4.55130161442915,-297.154759361553
738504.41323886613827198744,-6.36997589037751,-4.56053346354564,-297.13629566332
738504.41323895659297704697,-6.36074404126102,-4.58822901089511,-297.099368266854
738504.41323904704768210649,-6.30535294656209,-4.48667867061373,-296.979354228339
738504.41323913750238716602,-6.26842555009613,-4.53283791619617,-296.997817926572
738504.41323922795709222555,-6.35151219214454,-4.55130161442915,-297.090136417737
738504.41323931829538196325,-6.36997589037751,-4.5974608600116,-297.080904568621
738504.41323940875008702278,-6.36997589037751,-4.58822901089511,-297.163991210669
738504.41323949920479208231,-6.28688924832911,-4.53283791619617,-297.173223059786
738504.41323958965949714184,-6.40690328684347,-4.63438825647755,-297.145527512436
738504.41323968011420220137,-6.26842555009613,-4.51437421796319,-297.145527512436
738504.41323977056890726089,-6.32381664479507,-4.56976531266213,-297.200918607135
738504.41323986090719699860,-6.35151219214454,-4.60669270912809,-297.090136417737
738504.41323995136190205812,-6.31458479567858,-4.53283791619617,-297.117831965087
738504.41324004181660711765,-6.32381664479507,-4.55130161442915,-297.090136417737
738504.41324013227131217718,-6.39767143772698,-4.5974608600116,-297.10860011597
738504.41324022272601723671,-6.379207739494,-4.58822901089511,-297.117831965087
738504.41324031318072229624,-6.34228034302805,-4.56976531266213,-297.154759361553
738504.41324040363542735577,-6.379207739494,-4.5974608600116,-297.154759361553
738504.41324049397371709347,-6.2961210974456,-4.54206976531266,-297.099368266854
738504.41324058442842215300,-6.34228034302805,-4.52360606707968,-297.080904568621
738504.41324067488312721252,-6.2961210974456,-4.54206976531266,-297.099368266854
738504.41324076533783227205,-6.33304849391156,-4.50514236884671,-297.10860011597
738504.41324085579253733158,-6.32381664479507,-4.54206976531266,-297.13629566332
738504.41324094624724239111,-6.38843958861049,-4.56976531266213,-297.182454908902
738504.41324103658553212881,-6.40690328684347,-4.62515640736106,-297.173223059786
738504.41324112704023718834,-6.41613513595996,-4.5974608600116,-297.182454908902
738504.41324121749494224787,-6.33304849391156,-4.54206976531266,-297.099368266854
738504.41324130794964730740,-6.26842555009613,-4.44051942503128,-297.090136417737
738504.41324139840435236692,-6.31458479567858,-4.52360606707968,-297.145527512436
738504.41324148885905742645,-6.48075807977538,-4.68054750206,-297.145527512436
738504.41324157931376248598,-6.42536698507645,-4.61592455824457,-297.173223059786
738504.41324166965205222368,-6.38843958861049,-4.57899716177862,-297.200918607135
738504.41324176010675728321,-6.41613513595996,-4.61592455824457,-297.173223059786
738504.41324185056146234274,-6.36997589037751,-4.57899716177862,-297.163991210669
738504.41324194101616740227,-6.36074404126102,-4.54206976531266,-297.182454908902
738504.41324203147087246180,-6.34228034302805,-4.54206976531266,-297.182454908902
738504.41324212192557752132,-6.32381664479507,-4.51437421796319,-297.10860011597
738504.41324221226386725903,-6.26842555009613,-4.47744682149724,-297.145527512436
738504.41324230271857231855,-6.45306253242592,-4.61592455824457,-297.191686758019
738504.41324239317327737808,-6.36997589037751,-4.57899716177862,-297.173223059786
738504.41324248362798243761,-6.40690328684347,-4.5974608600116,-297.145527512436
738504.41324257408268749714,-6.25919370097964,-4.47744682149724,-297.10860011597
738504.41324266453739255667,-6.4622943815424,-4.64362010559404,-297.062440870388
738504.41324275499209761620,-6.43459883419294,-4.64362010559404,-297.145527512436
738504.41324284533038735390,-6.38843958861049,-4.5974608600116,-297.173223059786
738504.41324293578509241343,-6.33304849391156,-4.53283791619617,-297.173223059786
738504.41324302623979747295,-6.39767143772698,-4.57899716177862,-297.191686758019
738504.41324311669450253248,-6.41613513595996,-4.5974608600116,-297.127063814203
738504.41324320714920759201,-6.34228034302805,-4.56053346354564,-297.154759361553
738504.41324329760391265154,-6.36997589037751,-4.56976531266213,-297.191686758019
738504.41324338794220238924,-6.33304849391156,-4.57899716177862,-297.117831965087
738504.41324347839690744877,-6.30535294656209,-4.53283791619617,-297.182454908902
738504.41324356885161250830,-6.32381664479507,-4.57899716177862,-297.200918607135
738504.41324365930631756783,-6.32381664479507,-4.58822901089511,-297.13629566332
738504.41324374976102262735,-6.24073000274667,-4.58822901089511,-297.173223059786
738504.41324384021572768688,-6.23149815363018,-4.53283791619617,-297.191686758019
738504.41324393067043274641,-6.22226630451369,-4.53283791619617,-297.182454908902
738504.41324402100872248411,-6.26842555009613,-4.55130161442915,-297.117831965087
738504.41324411146342754364,-6.25919370097964,-4.52360606707968,-297.090136417737
738504.41324420191813260317,-6.28688924832911,-4.52360606707968,-297.080904568621
738504.41324429237283766270,-6.30535294656209,-4.53283791619617,-297.117831965087
738504.41324438282754272223,-6.42536698507645,-4.64362010559404,-297.13629566332
738504.41324447328224778175,-6.41613513595996,-4.60669270912809,-297.10860011597
738504.41324456362053751945,-6.39767143772698,-4.5974608600116,-297.090136417737
738504.41324465407524257898,-6.43459883419294,-4.5974608600116,-297.080904568621
738504.41324474452994763851,-6.36997589037751,-4.56976531266213,-297.080904568621
738504.41324483498465269804,-6.42536698507645,-4.57899716177862,-297.10860011597
738504.41324492543935775757,-6.39767143772698,-4.60669270912809,-297.053209021271
738504.41324501589406281710,-6.45306253242592,-4.5974608600116,-297.071672719504
738504.41324510634876787663,-6.40690328684347,-4.61592455824457,-297.090136417737
738504.41324519668705761433,-6.4622943815424,-4.62515640736106,-297.145527512436
738504.41324528714176267385,-6.35151219214454,-4.57899716177862,-297.099368266854
738504.41324537759646773338,-6.42536698507645,-4.58822901089511,-297.154759361553
738504.41324546805117279291,-6.40690328684347,-4.64362010559404,-297.163991210669
738504.41324555850587785244,-6.45306253242592,-4.61592455824457,-297.163991210669
738504.41324564896058291197,-6.379207739494,-4.56976531266213,-297.145527512436
738504.41324573941528797150,-6.35151219214454,-4.48667867061373,-297.182454908902
738504.41324582975357770920,-6.30535294656209,-4.43128757591479,-297.053209021271
738504.41324592020828276873,-6.1299478133488,-4.32050538651692,-297.025513473922
738504.41324601066298782825,-5.70528275399029,-4.32050538651692,-297.025513473922
738504.41324610111769288778,-4.99443037202063,-4.5974608600116,-297.007049775689
738504.41324619157239794731,-4.62515640736106,-4.71747489852596,-296.942426831873
738504.41324628202710300684,-5.3637043366802,-5.04982146671956,-297.191686758019
738504.41324637236539274454,-6.13917966246528,-5.58526871547594,-297.376323740348
738504.41324646282009780407,-6.19457075716422,-5.68681905575732,-297.440946684164
738504.41324655327480286360,-6.39767143772698,-5.50218207342753,-297.431714835047
738504.41324664372950792313,-6.25919370097964,-5.15137180700095,-297.284005249184
738504.41324673418421298265,-6.36997589037751,-4.92980742820521,-297.284005249184
738504.41324682463891804218,-6.24073000274667,-4.72670674764244,-297.228614154485
738504.41324691509362310171,-6.379207739494,-4.68977935117649,-297.154759361553
738504.41324700543191283941,-6.34228034302805,-4.66208380382702,-297.163991210669
738504.41324709588661789894,-6.40690328684347,-4.65285195471053,-297.219382305368
738504.41324718634132295847,-6.25919370097964,-4.57899716177862,-297.10860011597
738504.41324727679602801800,-6.27765739921262,-4.56053346354564,-297.154759361553
738504.41324736725073307753,-6.24996185186316,-4.57899716177862,-297.145527512436
738504.41324745770543813705,-6.24073000274667,-4.56976531266213,-297.182454908902
738504.41324754804372787476,-6.19457075716422,-4.53283791619617,-297.117831965087
738504.41324763849843293428,-6.15764336069826,-4.50514236884671,-297.13629566332
738504.41324772895313799381,-6.16687520981475,-4.48667867061373,-297.182454908902
738504.41324781940784305334,-6.04686117130039,-4.44051942503128,-297.090136417737
738504.41324790986254811287,-6.11148411511582,-4.45898312326426,-297.13629566332
738504.41324800031725317240,-6.00993377483444,-4.43128757591479,-297.099368266854
738504.41324809077195823193,-6.05609302041688,-4.44051942503128,-297.127063814203
738504.41324818111024796963,-5.92684713278603,-4.38512833033235,-297.071672719504
738504.41324827156495302916,-5.92684713278603,-4.35743278298288,-297.099368266854
738504.41324836201965808868,-5.7883693960387,-4.30204168828394,-297.10860011597
738504.41324845247436314821,-5.7883693960387,-4.29280983916745,-296.997817926572
738504.41324854292906820774,-5.64989165929136,-4.22818689535203,-297.043977172155
738504.41324863338377326727,-5.64065981017487,-4.2558824427015,-297.053209021271
738504.41324872372206300497,-5.54834131900998,-4.21895504623554,-296.979354228339
738504.41324881417676806450,-5.51141392254402,-4.19125949888607,-297.034745323038
738504.41324890463147312403,-5.41909543137913,-4.12663655507065,-297.025513473922
738504.41324899508617818356,-5.40063173314615,-4.13586840418714,-297.025513473922
738504.41324908554088324308,-5.45602282784509,-4.20049134800256,-297.016281624805
738504.41324917599558830261,-5.46525467696158,-4.20972319711905,-297.043977172155
738504.41324926645029336214,-5.54834131900998,-4.23741874446852,-297.10860011597
738504.41324935678858309984,-5.62219611194189,-4.28357799005097,-297.071672719504
738504.41324944724328815937,-5.77913754692221,-4.32050538651692,-297.10860011597
738504.41324953769799321890,-5.82529679250465,-4.37589648121586,-297.13629566332
738504.41324962815269827843,-6.04686117130039,-4.47744682149724,-297.117831965087
738504.41324971860740333796,-6.06532486953337,-4.47744682149724,-296.95165868099
738504.41324980906210839748,-6.2130344553972,-4.56976531266213,-297.13629566332
738504.41324989940039813519,-6.24073000274667,-4.58822901089511,-297.163991210669
738504.41324998985510319471,-6.23149815363018,-4.53283791619617,-297.145527512436
738504.41325008030980825424,-6.30535294656209,-4.61592455824457,-297.13629566332
738504.41325017076451331377,-6.35151219214454,-4.64362010559404,-297.173223059786
738504.41325026121921837330,-6.33304849391156,-4.61592455824457,-297.182454908902
738504.41325035167392343283,-6.26842555009613,-4.56053346354564,-297.117831965087
738504.41325044212862849236,-6.31458479567858,-4.58822901089511,-297.154759361553
738504.41325053246691823006,-6.26842555009613,-4.57899716177862,-297.117831965087
738504.41325062292162328959,-6.34228034302805,-4.61592455824457,-297.200918607135
738504.41325071337632834911,-6.30535294656209,-4.62515640736106,-297.173223059786
738504.41325080383103340864,-6.32381664479507,-4.5974608600116,-297.145527512436
738504.41325089428573846817,-6.27765739921262,-4.62515640736106,-297.191686758019
738504.41325098474044352770,-6.379207739494,-4.65285195471053,-297.173223059786
738504.41325107519514858723,-6.2961210974456,-4.63438825647755,-297.090136417737
738504.41325116553343832493,-6.2961210974456,-4.58822901089511,-297.154759361553
738504.41325125598814338446,-6.27765739921262,-4.61592455824457,-297.145527512436
738504.41325134644284844398,-6.34228034302805,-4.62515640736106,-297.145527512436
738504.41325143689755350351,-6.30535294656209,-4.61592455824457,-297.10860011597
738504.41325152735225856304,-6.31458479567858,-4.63438825647755,-297.154759361553
738504.41325161780696362257,-6.30535294656209,-4.61592455824457,-297.163991210669
738504.41325170814525336027,-6.26842555009613,-4.58822901089511,-297.117831965087
738504.41325179859995841980,-6.28688924832911,-4.56976531266213,-297.154759361553
738504.41325188905466347933,-6.33304849391156,-4.66208380382702,-297.145527512436
738504.41325197950936853886,-6.32381664479507,-4.5974608600116,-297.154759361553
738504.41325206996407359838,-6.28688924832911,-4.61592455824457,-297.13629566332
738504.41325216041877865791,-6.36074404126102,-4.63438825647755,-297.154759361553
738504.41325225087348371744,-6.27765739921262,-4.58822901089511,-297.13629566332
738504.41325234121177345514,-6.36997589037751,-4.62515640736106,-297.090136417737
738504.41325243166647851467,-6.32381664479507,-4.63438825647755,-297.080904568621
738504.41325252212118357420,-6.34228034302805,-4.57899716177862,-297.053209021271
738504.41325261257588863373,-6.26842555009613,-4.57899716177862,-297.080904568621
738504.41325270303059369326,-6.40690328684347,-4.66208380382702,-297.090136417737
738504.41325279348529875278,-6.28688924832911,-4.57899716177862,-297.071672719504
738504.41325288382358849049,-6.379207739494,-4.61592455824457,-297.090136417737
738504.41325297427829355001,-6.36074404126102,-4.65285195471053,-297.071672719504
738504.41325306473299860954,-6.36997589037751,-4.61592455824457,-297.145527512436
738504.41325315518770366907,-6.33304849391156,-4.61592455824457,-297.10860011597
738504.41325324564240872860,-6.379207739494,-4.62515640736106,-297.127063814203
738504.41325333609711378813,-6.38843958861049,-4.62515640736106,-297.145527512436
738504.41325342655181884766,-6.30535294656209,-4.5974608600116,-297.127063814203
738504.41325351689010858536,-6.34228034302805,-4.57899716177862,-297.145527512436
738504.41325360734481364489,-6.26842555009613,-4.55130161442915,-297.173223059786
738504.41325369779951870441,-6.42536698507645,-4.65285195471053,-297.090136417737
738504.41325378825422376394,-6.36074404126102,-4.64362010559404,-297.145527512436
738504.41325387870892882347,-6.40690328684347,-4.63438825647755,-297.145527512436
738504.41325396916363388300,-6.2961210974456,-4.58822901089511,-297.080904568621
738504.41325405950192362070,-6.379207739494,-4.60669270912809,-297.099368266854
738504.41325414995662868023,-6.34228034302805,-4.62515640736106,-297.117831965087
738504.41325424041133373976,-6.36997589037751,-4.5974608600116,-297.099368266854
738504.41325433086603879929,-6.30535294656209,-4.58822901089511,-297.090136417737
738504.41325442132074385881,-6.39767143772698,-4.62515640736106,-297.13629566332
738504.41325451177544891834,-6.35151219214454,-4.61592455824457,-297.10860011597
738504.41325460223015397787,-6.35151219214454,-4.58822901089511,-297.182454908902
738504.41325469256844371557,-6.32381664479507,-4.58822901089511,-297.145527512436
738504.41325478302314877510,-6.38843958861049,-4.64362010559404,-297.127063814203
738504.41325487347785383463,-6.36997589037751,-4.62515640736106,-297.145527512436
738504.41325496393255889416,-6.36997589037751,-4.62515640736106,-297.191686758019
738504.41325505438726395369,-6.36997589037751,-4.61592455824457,-297.173223059786
738504.41325514484196901321,-6.30535294656209,-4.58822901089511,-297.080904568621
738504.41325523518025875092,-6.35151219214454,-4.57899716177862,-297.200918607135
738504.41325532563496381044,-6.36997589037751,-4.65285195471053,-297.182454908902
738504.41325541608966886997,-6.39767143772698,-4.62515640736106,-297.117831965087
738504.41325550654437392950,-6.32381664479507,-4.5974608600116,-297.154759361553
738504.41325559699907898903,-6.379207739494,-4.61592455824457,-297.200918607135
738504.41325568745378404856,-6.34228034302805,-4.60669270912809,-297.163991210669
738504.41325577790848910809,-6.35151219214454,-4.5974608600116,-297.13629566332
738504.41325586824677884579,-6.34228034302805,-4.60669270912809,-297.173223059786
738504.41325595870148390532,-6.36074404126102,-4.60669270912809,-297.163991210669
738504.41325604915618896484,-6.31458479567858,-4.57899716177862,-297.099368266854
738504.41325613961089402437,-6.32381664479507,-4.62515640736106,-297.200918607135
738504.41325623006559908390,-6.28688924832911,-4.5974608600116,-297.173223059786
738504.41325632052030414343,-6.2961210974456,-4.61592455824457,-297.099368266854
738504.41325641097500920296,-6.32381664479507,-4.62515640736106,-297.163991210669
738504.41325650131329894066,-6.20380260628071,-4.57899716177862,-297.154759361553
738504.41325659176800400019,-6.24073000274667,-4.56053346354564,-297.182454908902
738504.41325668222270905972,-6.24996185186316,-4.56053346354564,-296.923963133641
738504.41325677267741411924,-6.2961210974456,-4.54206976531266,-297.016281624805
738504.41325686313211917877,-6.30535294656209,-4.58822901089511,-297.080904568621
738504.41325695358682423830,-6.36997589037751,-4.60669270912809,-297.090136417737
738504.41325704392511397600,-6.32381664479507,-4.58822901089511,-297.090136417737
738504.41325713437981903553,-6.38843958861049,-4.62515640736106,-297.10860011597
738504.41325722483452409506,-6.38843958861049,-4.61592455824457,-297.099368266854
738504.41325731528922915459,-6.36997589037751,-4.5974608600116,-297.090136417737
738504.41325740574393421412,-6.36997589037751,-4.58822901089511,-297.080904568621
738504.41325749619863927364,-6.36997589037751,-4.60669270912809,-297.090136417737
738504.41325758665334433317,-6.41613513595996,-4.63438825647755,-297.117831965087
738504.41325767699163407087,-6.38843958861049,-4.63438825647755,-297.090136417737
738504.41325776744633913040,-6.39767143772698,-4.60669270912809,-297.10860011597
738504.41325785790104418993,-6.35151219214454,-4.60669270912809,-297.043977172155
738504.41325794835574924946,-6.43459883419294,-4.65285195471053,-297.117831965087
738504.41325803881045430899,-6.36074404126102,-4.63438825647755,-297.090136417737
738504.41325812926515936852,-6.40690328684347,-4.62515640736106,-297.145527512436
738504.41325821960344910622,-6.36074404126102,-4.60669270912809,-297.117831965087
738504.41325831005815416574,-6.39767143772698,-4.57899716177862,-297.127063814203
738504.41325840051285922527,-6.27765739921262,-4.51437421796319,-297.117831965087
738504.41325849096756428480,-6.23149815363018,-4.38512833033235,-297.117831965087
738504.41325858142226934433,-5.80683309427168,-4.26511429181799,-297.025513473922
738504.41325867187697440386,-5.30831324198126,-4.48667867061373,-296.95165868099
738504.41325876233167946339,-4.61592455824457,-4.68054750206,-297.034745323038
738504.41325885266996920109,-5.03135776848659,-4.92057557908872,-297.090136417737
738504.41325894312467426062,-5.52064577166051,-5.07751701406903,-297.219382305368
738504.41325903357937932014,-6.08378856776635,-5.55757316812647,-297.2932370983
738504.41325912403408437967,-6.24996185186316,-5.65912350840785,-297.413251136814
738504.41325921448878943920,-6.27765739921262,-5.4467909787286,-297.357860042116
738504.41325930494349449873,-6.26842555009613,-5.1052125614185,-297.2932370983
738504.41325939528178423643,-6.26842555009613,-4.90211188085574,-297.247077852718
738504.41325948573648929596,-6.35151219214454,-4.78209784234138,-297.247077852718
738504.41325957619119435549,-6.30535294656209,-4.68977935117649,-297.173223059786
738504.41325966664589941502,-6.39767143772698,-4.66208380382702,-297.145527512436
738504.41325975710060447454,-6.2961210974456,-4.61592455824457,-297.13629566332
738504.41325984755530953407,-6.31458479567858,-4.58822901089511,-297.090136417737
738504.41325993801001459360,-6.19457075716422,-4.53283791619617,-297.034745323038
738504.41326002834830433130,-6.24996185186316,-4.55130161442915,-297.071672719504
738504.41326011880300939083,-6.2130344553972,-4.58822901089511,-297.053209021271
738504.41326020925771445036,-6.23149815363018,-4.56976531266213,-296.914731284524
738504.41326029971241950989,-6.14841151158177,-4.53283791619617,-297.043977172155
738504.41326039016712456942,-6.14841151158177,-4.51437421796319,-297.117831965087
738504.41326048062182962894,-6.08378856776635,-4.47744682149724,-297.099368266854
738504.41326057096011936665,-6.06532486953337,-4.44975127414777,-297.090136417737
738504.41326066141482442617,-5.99147007660146,-4.41282387768181,-297.10860011597
738504.41326075186952948570,-5.96377452925199,-4.39436017944884,-297.099368266854
738504.41326084232423454523,-5.96377452925199,-4.37589648121586,-297.034745323038
738504.41326093277893960476,-5.84376049073763,-4.34820093386639,-297.080904568621
738504.41326102323364466429,-5.88991973632008,-4.36666463209937,-297.117831965087
738504.41326111368834972382,-5.76990569780572,-4.32973723563341,-297.053209021271
738504.41326120402663946152,-5.73297830133976,-4.29280983916745,-297.034745323038
738504.41326129448134452105,-5.58526871547594,-4.23741874446852,-297.043977172155
738504.41326138493604958057,-5.55757316812647,-4.20049134800256,-296.95165868099
738504.41326147539075464010,-5.46525467696158,-4.18202764976959,-296.923963133641
738504.41326156584545969963,-5.46525467696158,-4.18202764976959,-296.988586077456
738504.41326165630016475916,-5.37293618579669,-4.13586840418714,-296.970122379223
738504.41326174675486981869,-5.35447248756371,-4.09894100772118,-296.988586077456
738504.41326183709315955639,-5.45602282784509,-4.19125949888607,-296.997817926572
738504.41326192754786461592,-5.59450056459243,-4.30204168828394,-297.016281624805
738504.41326201800256967545,-5.74221015045625,-4.38512833033235,-297.053209021271
738504.41326210845727473497,-5.80683309427168,-4.39436017944884,-297.053209021271
738504.41326219891197979450,-5.94531083101901,-4.44051942503128,-297.117831965087
738504.41326228936668485403,-6.02839747306742,-4.49591051973022,-297.080904568621
738504.41326237970497459173,-6.12071596423231,-4.49591051973022,-297.099368266854
738504.41326247015967965126,-6.16687520981475,-4.55130161442915,-297.099368266854
738504.41326256061438471079,-6.26842555009613,-4.57899716177862,-297.13629566332
738504.41326265106908977032,-6.22226630451369,-4.56976531266213,-297.10860011597
738504.41326274152379482985,-6.2961210974456,-4.58822901089511,-297.173223059786
738504.41326283197849988937,-6.24996185186316,-4.56053346354564,-297.182454908902
738504.41326292243320494890,-6.32381664479507,-4.5974608600116,-297.127063814203
738504.41326301277149468660,-6.33304849391156,-4.64362010559404,-297.154759361553
738504.41326310322619974613,-6.31458479567858,-4.60669270912809,-297.099368266854
738504.41326319368090480566,-6.28688924832911,-4.57899716177862,-297.13629566332
738504.41326328413560986519,-6.32381664479507,-4.62515640736106,-297.090136417737
738504.41326337459031492472,-6.36074404126102,-4.65285195471053,-297.099368266854
738504.41326346504501998425,-6.32381664479507,-4.63438825647755,-297.090136417737
738504.41326355538330972195,-6.32381664479507,-4.61592455824457,-297.090136417737
738504.41326364583801478148,-6.27765739921262,-4.60669270912809,-297.090136417737
738504.41326373629271984100,-6.32381664479507,-4.60669270912809,-297.034745323038
738504.41326382674742490053,-6.24996185186316,-4.57899716177862,-296.997817926572
738504.41326391720212996006,-6.33304849391156,-4.60669270912809,-297.182454908902
738504.41326400765683501959,-6.2961210974456,-4.62515640736106,-297.191686758019
738504.41326409811154007912,-6.35151219214454,-4.61592455824457,-297.191686758019
738504.41326418844982981682,-6.24073000274667,-4.56976531266213,-297.154759361553
738504.41326427890453487635,-6.36997589037751,-4.63438825647755,-297.145527512436
738504.41326436935923993587,-6.30535294656209,-4.62515640736106,-297.154759361553
738504.41326445981394499540,-6.34228034302805,-4.60669270912809,-297.219382305368
738504.41326455026865005493,-6.30535294656209,-4.58822901089511,-297.154759361553
738504.41326464072335511446,-6.32381664479507,-4.60669270912809,-297.13629566332
738504.41326473106164485216,-6.34228034302805,-4.60669270912809,-297.210150456252
738504.41326482151634991169,-6.31458479567858,-4.60669270912809,-297.191686758019
738504.41326491197105497122,-6.34228034302805,-4.5974608600116,-297.13629566332
738504.41326500242576003075,-6.22226630451369,-4.50514236884671,-297.13629566332
738504.41326509288046509027,-6.41613513595996,-4.66208380382702,-297.210150456252
738504.41326518333517014980,-6.36074404126102,-4.65285195471053,-297.173223059786
738504.41326527378987520933,-6.40690328684347,-4.64362010559404,-297.210150456252
738504.41326536412816494703,-6.33304849391156,-4.62515640736106,-297.200918607135
738504.41326545458287000656,-6.39767143772698,-4.62515640736106,-297.191686758019
738504.41326554503757506609,-6.32381664479507,-4.60669270912809,-297.163991210669
738504.41326563549228012562,-6.379207739494,-4.58822901089511,-297.210150456252
738504.41326572594698518515,-6.27765739921262,-4.56053346354564,-297.200918607135
738504.41326581640169024467,-6.41613513595996,-4.63438825647755,-297.154759361553
738504.41326590673997998238,-6.34228034302805,-4.61592455824457,-297.071672719504
738504.41326599719468504190,-6.40690328684347,-4.61592455824457,-297.13629566332
738504.41326608764939010143,-6.36074404126102,-4.62515640736106,-297.10860011597
738504.41326617810409516096,-6.38843958861049,-4.61592455824457,-297.127063814203
738504.41326626855880022049,-6.35151219214454,-4.60669270912809,-297.13629566332
738504.41326635901350528002,-6.36997589037751,-4.5974608600116,-297.117831965087
738504.41326644946821033955,-6.40690328684347,-4.61592455824457,-297.127063814203
738504.41326653980650007725,-6.36997589037751,-4.63438825647755,-297.127063814203
738504.41326663026120513678,-6.42536698507645,-4.61592455824457,-297.145527512436
738504.41326672071591019630,-6.26842555009613,-4.53283791619617,-297.10860011597
738504.41326681117061525583,-6.42536698507645,-4.62515640736106,-297.145527512436
738504.41326690162532031536,-6.31458479567858,-4.57899716177862,-297.163991210669
738504.41326699208002537489,-6.42536698507645,-4.63438825647755,-297.163991210669
738504.41326708253473043442,-6.34228034302805,-4.60669270912809,-297.127063814203
738504.41326717287302017212,-6.43459883419294,-4.64362010559404,-297.145527512436
738504.41326726332772523165,-6.39767143772698,-4.64362010559404,-296.988586077456
738504.41326735378243029118,-6.40690328684347,-4.61592455824457,-297.016281624805
738504.41326744423713535070,-6.36074404126102,-4.5974608600116,-297.099368266854
738504.41326753469184041023,-6.36074404126102,-4.57899716177862,-297.13629566332
738504.41326762514654546976,-6.36997589037751,-4.60669270912809,-297.117831965087
738504.41326771548483520746,-6.40690328684347,-4.62515640736106,-297.10860011597
738504.41326780593954026699,-6.379207739494,-4.60669270912809,-297.13629566332
738504.41326789639424532652,-6.34228034302805,-4.56976531266213,-297.154759361553
738504.41326798684895038605,-6.379207739494,-4.58822901089511,-297.163991210669
738504.41326807730365544558,-6.40690328684347,-4.63438825647755,-297.145527512436
738504.41326816775836050510,-6.40690328684347,-4.62515640736106,-297.182454908902
738504.41326825821306556463,-6.36997589037751,-4.61592455824457,-297.163991210669
738504.41326834855135530233,-6.41613513595996,-4.61592455824457,-297.191686758019
738504.41326843900606036186,-6.36997589037751,-4.60669270912809,-297.191686758019
738504.41326852946076542139,-6.42536698507645,-4.62515640736106,-297.210150456252
738504.41326861991547048092,-6.379207739494,-4.61592455824457,-297.219382305368
738504.41326871037017554045,-6.36074404126102,-4.56976531266213,-297.154759361553
738504.41326880082488059998,-6.33304849391156,-4.56976531266213,-297.163991210669
738504.41326889116317033768,-6.43459883419294,-4.64362010559404,-297.219382305368
738504.41326898161787539721,-6.36074404126102,-4.57899716177862,-297.154759361553
738504.41326907207258045673,-6.39767143772698,-4.61592455824457,-297.182454908902
738504.41326916252728551626,-6.43459883419294,-4.66208380382702,-297.210150456252
738504.41326925298199057579,-6.39767143772698,-4.62515640736106,-297.200918607135
738504.41326934343669563532,-6.39767143772698,-4.61592455824457,-297.145527512436
738504.41326943389140069485,-6.38843958861049,-4.61592455824457,-297.163991210669
738504.41326952422969043255,-6.40690328684347,-4.5974608600116,-297.228614154485
738504.41326961468439549208,-6.33304849391156,-4.56976531266213,-297.117831965087
738504.41326970513910055161,-6.40690328684347,-4.5974608600116,-297.10860011597
738504.41326979559380561113,-6.35151219214454,-4.58822901089511,-297.117831965087
738504.41326988604851067066,-6.38843958861049,-4.57899716177862,-297.145527512436
738504.41326997650321573019,-6.38843958861049,-4.65285195471053,-297.127063814203
738504.41327006684150546789,-6.36997589037751,-4.5974608600116,-297.154759361553
738504.41327015729621052742,-6.30535294656209,-4.57899716177862,-297.154759361553
738504.41327024775091558695,-6.36997589037751,-4.63438825647755,-297.10860011597
738504.41327033820562064648,-6.32381664479507,-4.60669270912809,-297.117831965087
738504.41327042866032570601,-6.31458479567858,-4.60669270912809,-297.10860011597
738504.41327051911503076553,-6.25919370097964,-4.57899716177862,-297.10860011597
738504.41327060956973582506,-6.23149815363018,-4.54206976531266,-297.090136417737
738504.41327069990802556276,-6.31458479567858,-4.56976531266213,-297.099368266854
738504.41327079036273062229,-6.32381664479507,-4.57899716177862,-297.071672719504
738504.41327088081743568182,-6.38843958861049,-4.5974608600116,-297.034745323038
738504.41327097127214074135,-6.2961210974456,-4.55130161442915,-297.145527512436
738504.41327106172684580088,-6.43459883419294,-4.61592455824457,-297.191686758019
738504.41327115218155086040,-6.40690328684347,-4.63438825647755,-297.127063814203
738504.41327124251984059811,-6.44383068330943,-4.61592455824457,-297.191686758019
738504.41327133297454565763,-6.379207739494,-4.5974608600116,-297.200918607135
738504.41327142342925071716,-6.4622943815424,-4.61592455824457,-297.200918607135
738504.41327151388395577669,-6.39767143772698,-4.60669270912809,-297.228614154485
738504.41327160433866083622,-6.43459883419294,-4.5974608600116,-297.219382305368
738504.41327169479336589575,-6.38843958861049,-4.60669270912809,-297.099368266854
738504.41327178524807095528,-6.49922177800836,-4.67131565294351,-297.154759361553
738504.41327187558636069298,-6.38843958861049,-4.61592455824457,-297.182454908902
738504.41327196604106575251,-6.4622943815424,-4.63438825647755,-297.182454908902
738504.41327205649577081203,-6.4622943815424,-4.63438825647755,-297.219382305368
738504.41327214695047587156,-6.38843958861049,-4.61592455824457,-297.210150456252
738504.41327223740518093109,-6.4622943815424,-4.63438825647755,-297.228614154485
738504.41327232785988599062,-6.38843958861049,-4.56976531266213,-297.210150456252
738504.41327241819817572832,-6.42536698507645,-4.56053346354564,-297.173223059786
738504.41327250865288078785,-6.30535294656209,-4.47744682149724,-297.154759361553
738504.41327259910758584738,-6.13917966246528,-4.31127353740043,-297.154759361553
738504.41327268956229090691,-5.59450056459243,-4.31127353740043,-297.090136417737
738504.41327278001699596643,-5.03135776848659,-4.60669270912809,-297.090136417737
738504.41327287047170102596,-4.78209784234138,-4.80056154057436,-297.145527512436
738504.41327296092640608549,-5.64065981017487,-5.05905331583605,-297.311700796533
738504.41327305126469582319,-6.16687520981475,-5.48371837519456,-297.394787438581
738504.41327314171940088272,-6.25919370097964,-5.54834131900998,-297.422482985931
738504.41327323217410594225,-6.30535294656209,-5.37293618579669,-297.422482985931
738504.41327332262881100178,-6.33304849391156,-5.1052125614185,-297.348628192999
738504.41327341308351606131,-6.33304849391156,-4.90211188085574,-297.274773400067
738504.41327350353822112083,-6.34228034302805,-4.7636341441084,-297.2932370983
738504.41327359399292618036,-6.36997589037751,-4.69901120029298,-297.247077852718
738504.41327368433121591806,-6.43459883419294,-4.69901120029298,-297.163991210669
738504.41327377478592097759,-6.39767143772698,-4.66208380382702,-297.182454908902
738504.41327386524062603712,-6.35151219214454,-4.62515640736106,-297.173223059786
738504.41327395569533109665,-6.36074404126102,-4.61592455824457,-297.127063814203
738504.41327404615003615618,-6.24073000274667,-4.56976531266213,-297.099368266854
738504.41327413660474121571,-6.23149815363018,-4.51437421796319,-297.117831965087
738504.41327422694303095341,-6.18533890804773,-4.54206976531266,-297.10860011597
738504.41327431739773601294,-6.26842555009613,-4.58822901089511,-297.090136417737
738504.41327440785244107246,-6.13917966246528,-4.50514236884671,-297.034745323038
738504.41327449830714613199,-6.18533890804773,-4.52360606707968,-297.145527512436
738504.41327458876185119152,-6.08378856776635,-4.47744682149724,-297.080904568621
738504.41327467921655625105,-6.08378856776635,-4.46821497238075,-297.13629566332
738504.41327476967126131058,-6.01916562395093,-4.43128757591479,-297.182454908902
738504.41327486000955104828,-6.00993377483444,-4.43128757591479,-297.090136417737
738504.41327495046425610781,-5.92684713278603,-4.37589648121586,-297.099368266854
738504.41327504091896116734,-5.84376049073763,-4.32973723563341,-297.117831965087
738504.41327513137366622686,-5.76067384868923,-4.28357799005097,-297.090136417737
738504.41327522182837128639,-5.69605090487381,-4.27434614093448,-297.062440870388
738504.41327531228307634592,-5.67758720664083,-4.28357799005097,-297.10860011597
738504.41327540262136608362,-5.59450056459243,-4.24665059358501,-297.062440870388
738504.41327549307607114315,-5.52064577166051,-4.19125949888607,-297.016281624805
738504.41327558353077620268,-5.45602282784509,-4.19125949888607,-297.043977172155
738504.41327567398548126221,-5.529877620777,-4.24665059358501,-297.007049775689
738504.41327576444018632174,-5.47448652607807,-4.23741874446852,-296.997817926572
738504.41327585489489138126,-5.51141392254402,-4.22818689535203,-297.025513473922
738504.41327594534959644079,-5.51141392254402,-4.2558824427015,-297.053209021271
738504.41327603568788617849,-5.64989165929136,-4.32973723563341,-297.053209021271
738504.41327612614259123802,-5.74221015045625,-4.35743278298288,-297.10860011597
738504.41327621659729629755,-5.86222418897061,-4.41282387768181,-297.145527512436
738504.41327630705200135708,-6.02839747306742,-4.48667867061373,-297.182454908902
738504.41327639750670641661,-6.08378856776635,-4.48667867061373,-297.163991210669
738504.41327648796141147614,-6.18533890804773,-4.51437421796319,-297.210150456252
738504.41327657829970121384,-6.24073000274667,-4.57899716177862,-297.210150456252
738504.41327666875440627337,-6.31458479567858,-4.58822901089511,-297.191686758019
738504.41327675920911133289,-6.32381664479507,-4.60669270912809,-297.219382305368
738504.41327684966381639242,-6.36074404126102,-4.60669270912809,-297.200918607135
738504.41327694011852145195,-6.32381664479507,-4.61592455824457,-297.163991210669
738504.41327703057322651148,-6.39767143772698,-4.62515640736106,-297.219382305368
738504.41327712102793157101,-6.34228034302805,-4.63438825647755,-297.191686758019
738504.41327721136622130871,-6.38843958861049,-4.62515640736106,-297.200918607135
738504.41327730182092636824,-6.31458479567858,-4.60669270912809,-297.163991210669
738504.41327739227563142776,-6.30535294656209,-4.53283791619617,-297.200918607135
738504.41327748273033648729,-6.35151219214454,-4.64362010559404,-297.173223059786
738504.41327757318504154682,-6.40690328684347,-4.66208380382702,-297.163991210669
738504.41327766363974660635,-6.379207739494,-4.64362010559404,-297.117831965087
738504.41327775397803634405,-6.36997589037751,-4.66208380382702,-297.10860011597
738504.41327784443274140358,-6.36997589037751,-4.64362010559404,-297.099368266854
738504.41327793488744646311,-6.34228034302805,-4.63438825647755,-297.025513473922
738504.41327802534215152264,-6.38843958861049,-4.63438825647755,-297.099368266854
738504.41327811579685658216,-6.32381664479507,-4.61592455824457,-297.145527512436
738504.41327820625156164169,-6.36997589037751,-4.5974608600116,-297.145527512436
738504.41327829670626670122,-6.32381664479507,-4.60669270912809,-297.127063814203
738504.41327838704455643892,-6.379207739494,-4.60669270912809,-297.145527512436
738504.41327847749926149845,-6.35151219214454,-4.62515640736106,-297.145527512436
738504.41327856795396655798,-6.42536698507645,-4.64362010559404,-297.173223059786
738504.41327865840867161751,-6.35151219214454,-4.61592455824457,-297.182454908902
738504.41327874886337667704,-6.40690328684347,-4.60669270912809,-297.210150456252
738504.41327883931808173656,-6.33304849391156,-4.57899716177862,-297.182454908902
738504.41327892977278679609,-6.38843958861049,-4.57899716177862,-297.237846003601
738504.41327902011107653379,-6.38843958861049,-4.63438825647755,-297.228614154485
738504.41327911056578159332,-6.45306253242592,-4.64362010559404,-297.163991210669
738504.41327920102048665285,-6.379207739494,-4.61592455824457,-297.145527512436
738504.41327929147519171238,-6.41613513595996,-4.61592455824457,-297.182454908902
738504.41327938192989677191,-6.32381664479507,-4.53283791619617,-297.13629566332
738504.41327947238460183144,-6.43459883419294,-4.62515640736106,-297.163991210669
738504.41327956272289156914,-6.47152623065889,-4.64362010559404,-297.237846003601
738504.41327965317759662867,-6.41613513595996,-4.63438825647755,-297.117831965087
738504.41327974363230168819,-6.43459883419294,-4.61592455824457,-297.200918607135
738504.41327983408700674772,-6.38843958861049,-4.62515640736106,-297.154759361553
738504.41327992454171180725,-6.4622943815424,-4.62515640736106,-297.173223059786
738504.41328001499641686678,-6.39767143772698,-4.62515640736106,-297.228614154485
738504.41328010545112192631,-6.44383068330943,-4.61592455824457,-297.200918607135
738504.41328019578941166401,-6.38843958861049,-4.60669270912809,-297.13629566332
738504.41328028624411672354,-6.44383068330943,-4.61592455824457,-297.182454908902
738504.41328037669882178307,-6.39767143772698,-4.60669270912809,-297.163991210669
738504.41328046715352684259,-6.43459883419294,-4.61592455824457,-297.237846003601
738504.41328055760823190212,-6.36997589037751,-4.58822901089511,-297.256309701834
738504.41328064806293696165,-6.40690328684347,-4.58822901089511,-297.13629566332
738504.41328073840122669935,-6.40690328684347,-4.61592455824457,-297.210150456252
738504.41328082885593175888,-6.42536698507645,-4.62515640736106,-297.228614154485
738504.41328091931063681841,-6.42536698507645,-4.62515640736106,-297.191686758019
738504.41328100976534187794,-6.41613513595996,-4.61592455824457,-297.200918607135
738504.41328110022004693747,-6.38843958861049,-4.56976531266213,-297.247077852718
738504.41328119067475199699,-6.41613513595996,-4.61592455824457,-297.219382305368
738504.41328128112945705652,-6.43459883419294,-4.61592455824457,-297.154759361553
738504.41328137146774679422,-6.41613513595996,-4.62515640736106,-297.154759361553
738504.41328146192245185375,-6.44383068330943,-4.62515640736106,-297.099368266854
738504.41328155237715691328,-6.40690328684347,-4.61592455824457,-297.219382305368
738504.41328164283186197281,-6.45306253242592,-4.62515640736106,-297.163991210669
738504.41328173328656703234,-6.379207739494,-4.57899716177862,-297.191686758019
738504.41328182374127209187,-6.43459883419294,-4.61592455824457,-297.154759361553
738504.41328191407956182957,-6.42536698507645,-4.62515640736106,-297.099368266854
738504.41328200453426688910,-6.42536698507645,-4.61592455824457,-297.145527512436
738504.41328209498897194862,-6.39767143772698,-4.58822901089511,-297.145527512436
738504.41328218544367700815,-6.39767143772698,-4.58822901089511,-297.173223059786
738504.41328227589838206768,-6.39767143772698,-4.58822901089511,-297.163991210669
738504.41328236635308712721,-6.41613513595996,-4.62515640736106,-297.200918607135
738504.41328245680779218674,-6.45306253242592,-4.63438825647755,-297.247077852718
738504.41328254714608192444,-6.38843958861049,-4.5974608600116,-297.200918607135
738504.41328263760078698397,-6.42536698507645,-4.60669270912809,-297.219382305368
738504.41328272805549204350,-6.39767143772698,-4.61592455824457,-297.10860011597
738504.41328281851019710302,-6.45306253242592,-4.62515640736106,-297.117831965087
738504.41328290896490216255,-6.38843958861049,-4.60669270912809,-297.13629566332
738504.41328299941960722208,-6.43459883419294,-4.60669270912809,-297.163991210669
738504.41328308975789695978,-6.379207739494,-4.5974608600116,-297.127063814203
738504.41328318021260201931,-6.41613513595996,-4.58822901089511,-297.154759361553
738504.41328327066730707884,-6.34228034302805,-4.55130161442915,-297.173223059786
738504.41328336112201213837,-6.35151219214454,-4.56053346354564,-297.173223059786
738504.41328345157671719790,-6.39767143772698,-4.5974608600116,-297.200918607135
738504.41328354203142225742,-6.42536698507645,-4.64362010559404,-297.210150456252
738504.41328363248612731695,-6.42536698507645,-4.62515640736106,-297.191686758019
738504.41328372282441705465,-6.39767143772698,-4.62515640736106,-297.191686758019
738504.41328381327912211418,-6.42536698507645,-4.62515640736106,-297.173223059786
738504.41328390373382717371,-6.379207739494,-4.60669270912809,-297.154759361553
738504.41328399418853223324,-6.42536698507645,-4.61592455824457,-297.173223059786
738504.41328408464323729277,-6.36074404126102,-4.60669270912809,-297.173223059786
738504.41328417509794235229,-6.41613513595996,-4.60669270912809,-297.200918607135
738504.41328426555264741182,-6.33304849391156,-4.57899716177862,-297.191686758019
738504.41328435589093714952,-6.36997589037751,-4.5974608600116,-297.163991210669
738504.41328444634564220905,-6.2961210974456,-4.58822901089511,-297.145527512436
738504.41328453680034726858,-6.35151219214454,-4.58822901089511,-297.182454908902
738504.41328462725505232811,-6.26842555009613,-4.56053346354564,-297.182454908902
738504.41328471770975738764,-6.32381664479507,-4.5974608600116,-297.237846003601
738504.41328480816446244717,-6.2130344553972,-4.54206976531266,-297.127063814203
738504.41328489850275218487,-6.32381664479507,-4.56976531266213,-297.025513473922
738504.41328498895745724440,-6.2961210974456,-4.55130161442915,-297.127063814203
738504.41328507941216230392,-6.36997589037751,-4.57899716177862,-297.191686758019
738504.41328516986686736345,-6.36997589037751,-4.57899716177862,-297.127063814203
738504.41328526032157242298,-6.32381664479507,-4.57899716177862,-297.182454908902
738504.41328535077627748251,-6.41613513595996,-4.5974608600116,-297.228614154485
738504.41328544123098254204,-6.36997589037751,-4.5974608600116,-297.13629566332
738504.41328553156927227974,-6.44383068330943,-4.60669270912809,-297.228614154485
738504.41328562202397733927,-6.36997589037751,-4.5974608600116,-297.200918607135
738504.41328571247868239880,-6.43459883419294,-4.58822901089511,-297.191686758019
738504.41328580293338745832,-6.36997589037751,-4.5974608600116,-297.182454908902
738504.41328589338809251785,-6.44383068330943,-4.60669270912809,-297.210150456252
738504.41328598384279757738,-6.39767143772698,-4.61592455824457,-297.127063814203
738504.41328607418108731508,-6.45306253242592,-4.63438825647755,-297.10860011597
738504.41328616463579237461,-6.379207739494,-4.60669270912809,-297.127063814203
738504.41328625509049743414,-6.379207739494,-4.55130161442915,-297.13629566332
738504.41328634554520249367,-6.38843958861049,-4.61592455824457,-297.13629566332
738504.41328643599990755320,-6.45306253242592,-4.63438825647755,-297.200918607135
738504.41328652645461261272,-6.38843958861049,-4.57899716177862,-297.163991210669
738504.41328661690931767225,-6.36997589037751,-4.53283791619617,-297.200918607135
738504.41328670724760740995,-6.26842555009613,-4.41282387768181,-297.173223059786
738504.41328679770231246948,-6.00993377483444,-4.2558824427015,-297.071672719504
738504.41328688815701752901,-5.54834131900998,-4.36666463209937,-297.090136417737
738504.41328697861172258854,-4.86518448438978,-4.64362010559404,-297.090136417737
738504.41328706906642764807,-4.68977935117649,-4.74517044587542,-297.127063814203
738504.41328715952113270760,-5.05905331583605,-4.92980742820521,-297.145527512436
738504.41328724985942244530,-5.90838343455306,-5.31754509109775,-297.348628192999
738504.41328734031412750483,-6.1299478133488,-5.60373241370891,-297.339396343883
738504.41328743076883256435,-6.34228034302805,-5.52064577166051,-297.367091891232
738504.41328752122353762388,-6.22226630451369,-5.16060365611744,-297.284005249184
738504.41328761167824268341,-6.30535294656209,-4.9390392773217,-297.256309701834
738504.41328770213294774294,-6.2961210974456,-4.81902523880734,-297.219382305368
738504.41328779258765280247,-6.36074404126102,-4.71747489852596,-297.191686758019
738504.41328788292594254017,-6.34228034302805,-4.64362010559404,-297.145527512436
738504.41328797338064759970,-6.36074404126102,-4.64362010559404,-297.13629566332
738504.41328806383535265923,-6.32381664479507,-4.60669270912809,-297.117831965087
738504.41328815429005771875,-6.28688924832911,-4.57899716177862,-297.127063814203
738504.41328824474476277828,-6.26842555009613,-4.56976531266213,-297.163991210669
738504.41328833519946783781,-6.20380260628071,-4.55130161442915,-297.10860011597
738504.41328842553775757551,-6.20380260628071,-4.52360606707968,-296.960890530106
738504.41328851599246263504,-6.1299478133488,-4.49591051973022,-297.034745323038
738504.41328860644716769457,-6.17610705893124,-4.51437421796319,-297.145527512436
738504.41328869690187275410,-6.07455671864986,-4.47744682149724,-297.127063814203
738504.41328878735657781363,-6.11148411511582,-4.46821497238075,-297.127063814203
738504.41328887781128287315,-6.05609302041688,-4.46821497238075,-297.099368266854
738504.41328896826598793268,-6.0376293221839,-4.44051942503128,-297.13629566332
738504.41328905860427767038,-5.99147007660146,-4.4220557267983,-297.13629566332
738504.41328914905898272991,-5.93607898190252,-4.37589648121586,-297.117831965087
738504.41328923951368778944,-5.8714560380871,-4.34820093386639,-297.099368266854
738504.41328932996839284897,-5.80683309427168,-4.32050538651692,-297.10860011597
738504.41328942042309790850,-5.72374645222327,-4.26511429181799,-297.099368266854
738504.41328951087780296803,-5.63142796105838,-4.23741874446852,-297.062440870388
738504.41328960133250802755,-5.59450056459243,-4.21895504623554,-297.080904568621
738504.41328969167079776525,-5.49295022431104,-4.18202764976959,-297.080904568621
738504.41328978212550282478,-5.50218207342753,-4.18202764976959,-297.034745323038
738504.41328987258020788431,-5.41909543137913,-4.1727958006531,-297.043977172155
738504.41328996303491294384,-5.4467909787286,-4.1727958006531,-297.080904568621
738504.41329005348961800337,-5.40986358226264,-4.19125949888607,-297.016281624805
738504.41329014394432306290,-5.50218207342753,-4.21895504623554,-297.071672719504
738504.41329023428261280060,-5.56680501724296,-4.30204168828394,-297.090136417737
738504.41329032473731786013,-5.75144199957274,-4.34820093386639,-297.13629566332
738504.41329041519202291965,-5.81606494338816,-4.39436017944884,-297.117831965087
738504.41329050564672797918,-6.00070192571795,-4.44975127414777,-297.200918607135
738504.41329059610143303871,-6.02839747306742,-4.47744682149724,-297.182454908902
738504.41329068655613809824,-6.19457075716422,-4.54206976531266,-297.127063814203
738504.41329077701084315777,-6.20380260628071,-4.54206976531266,-297.173223059786
738504.41329086734913289547,-6.2130344553972,-4.55130161442915,-297.127063814203
738504.41329095780383795500,-6.27765739921262,-4.56053346354564,-297.10860011597
738504.41329104825854301453,-6.25919370097964,-4.56976531266213,-297.099368266854
738504.41329113871324807405,-6.33304849391156,-4.58822901089511,-297.080904568621
738504.41329122916795313358,-6.26842555009613,-4.57899716177862,-297.090136417737
738504.41329131962265819311,-6.35151219214454,-4.60669270912809,-297.099368266854
738504.41329140996094793081,-6.28688924832911,-4.5974608600116,-297.10860011597
738504.41329150041565299034,-6.34228034302805,-4.5974608600116,-297.154759361553
738504.41329159087035804987,-6.30535294656209,-4.62515640736106,-297.154759361553
738504.41329168132506310940,-6.34228034302805,-4.5974608600116,-297.182454908902
738504.41329177177976816893,-6.26842555009613,-4.58822901089511,-297.182454908902
738504.41329186223447322845,-6.36074404126102,-4.61592455824457,-297.191686758019
738504.41329195268917828798,-6.28688924832911,-4.60669270912809,-296.997817926572
738504.41329204302746802568,-6.33304849391156,-4.5974608600116,-297.071672719504
738504.41329213348217308521,-6.26842555009613,-4.57899716177862,-297.154759361553
738504.41329222393687814474,-6.31458479567858,-4.58822901089511,-297.163991210669
738504.41329231439158320427,-6.28688924832911,-4.5974608600116,-297.145527512436
738504.41329240484628826380,-6.32381664479507,-4.58822901089511,-297.154759361553
738504.41329249530099332333,-6.28688924832911,-4.58822901089511,-297.200918607135
738504.41329258563928306103,-6.32381664479507,-4.5974608600116,-297.127063814203
738504.41329267609398812056,-6.33304849391156,-4.58822901089511,-297.154759361553
738504.41329276654869318008,-6.28688924832911,-4.5974608600116,-297.154759361553
738504.41329285700339823961,-6.36997589037751,-4.61592455824457,-297.200918607135
738504.41329294745810329914,-6.2961210974456,-4.5974608600116,-297.117831965087
738504.41329303791280835867,-6.35151219214454,-4.5974608600116,-297.191686758019
738504.41329312836751341820,-6.27765739921262,-4.57899716177862,-297.191686758019
738504.41329321870580315590,-6.35151219214454,-4.58822901089511,-297.247077852718
738504.41329330916050821543,-6.31458479567858,-4.5974608600116,-297.210150456252
738504.41329339961521327496,-6.379207739494,-4.60669270912809,-297.200918607135
738504.41329349006991833448,-6.30535294656209,-4.56976531266213,-297.210150456252
738504.41329358052462339401,-6.36074404126102,-4.58822901089511,-297.228614154485
738504.41329367097932845354,-6.34228034302805,-4.58822901089511,-297.163991210669
738504.41329376131761819124,-6.36997589037751,-4.61592455824457,-297.256309701834
738504.41329385177232325077,-6.36074404126102,-4.60669270912809,-297.237846003601
738504.41329394222702831030,-6.36074404126102,-4.5974608600116,-297.182454908902
738504.41329403268173336983,-6.36074404126102,-4.5974608600116,-297.228614154485
738504.41329412313643842936,-6.34228034302805,-4.57899716177862,-297.219382305368
738504.41329421359114348888,-6.36997589037751,-4.58822901089511,-297.237846003601
738504.41329430404584854841,-6.36997589037751,-4.61592455824457,-297.200918607135
738504.41329439438413828611,-6.38843958861049,-4.60669270912809,-297.228614154485
738504.41329448483884334564,-6.33304849391156,-4.58822901089511,-297.247077852718
738504.41329457529354840517,-6.379207739494,-4.58822901089511,-297.219382305368
738504.41329466574825346470,-6.35151219214454,-4.60669270912809,-297.200918607135
738504.41329475620295852423,-6.38843958861049,-4.5974608600116,-297.228614154485
738504.41329484665766358376,-6.35151219214454,-4.5974608600116,-297.237846003601
738504.41329493711236864328,-6.36074404126102,-4.57899716177862,-297.219382305368
738504.41329502745065838099,-6.35151219214454,-4.57899716177862,-297.210150456252
738504.41329511790536344051,-6.38843958861049,-4.60669270912809,-297.228614154485
738504.41329520836006850004,-6.38843958861049,-4.60669270912809,-297.210150456252
738504.41329529881477355957,-6.35151219214454,-4.57899716177862,-297.127063814203
738504.41329538926947861910,-6.379207739494,-4.58822901089511,-297.145527512436
738504.41329547972418367863,-6.36997589037751,-4.60669270912809,-297.025513473922
738504.41329557006247341633,-6.379207739494,-4.58822901089511,-297.034745323038
738504.41329566051717847586,-6.34228034302805,-4.58822901089511,-297.127063814203
738504.41329575097188353539,-6.41613513595996,-4.61592455824457,-297.127063814203
738504.41329584142658859491,-6.35151219214454,-4.5974608600116,-297.13629566332
738504.41329593188129365444,-6.39767143772698,-4.5974608600116,-297.191686758019
738504.41329602233599871397,-6.34228034302805,-4.58822901089511,-297.173223059786
738504.41329611279070377350,-6.40690328684347,-4.5974608600116,-297.173223059786
738504.41329620312899351120,-6.34228034302805,-4.58822901089511,-297.13629566332
738504.41329629358369857073,-6.41613513595996,-4.60669270912809,-297.163991210669
738504.41329638403840363026,-6.379207739494,-4.5974608600116,-297.163991210669
738504.41329647449310868979,-6.36997589037751,-4.58822901089511,-297.13629566332
738504.41329656494781374931,-6.379207739494,-4.58822901089511,-297.191686758019
738504.41329665540251880884,-6.379207739494,-4.5974608600116,-297.210150456252
738504.41329674574080854654,-6.39767143772698,-4.58822901089511,-297.182454908902
738504.41329683619551360607,-6.36997589037751,-4.5974608600116,-297.13629566332
738504.41329692665021866560,-6.40690328684347,-4.58822901089511,-297.247077852718
738504.41329701710492372513,-6.36997589037751,-4.5974608600116,-297.200918607135
738504.41329710755962878466,-6.42536698507645,-4.60669270912809,-297.173223059786
738504.41329719801433384418,-6.36997589037751,-4.60669270912809,-297.210150456252
738504.41329728846903890371,-6.42536698507645,-4.60669270912809,-297.219382305368
738504.41329737880732864141,-6.35151219214454,-4.58822901089511,-297.210150456252
738504.41329746926203370094,-6.40690328684347,-4.58822901089511,-297.219382305368
738504.41329755971673876047,-6.35151219214454,-4.58822901089511,-297.237846003601
738504.41329765017144382000,-6.42536698507645,-4.5974608600116,-297.228614154485
738504.41329774062614887953,-6.35151219214454,-4.58822901089511,-297.163991210669
738504.41329783108085393906,-6.38843958861049,-4.58822901089511,-297.219382305368
738504.41329792141914367676,-6.30535294656209,-4.56976531266213,-297.219382305368
738504.41329801187384873629,-6.36997589037751,-4.60669270912809,-297.163991210669
738504.41329810232855379581,-6.30535294656209,-4.58822901089511,-297.228614154485
738504.41329819278325885534,-6.31458479567858,-4.57899716177862,-297.237846003601
738504.41329828323796391487,-6.2961210974456,-4.56976531266213,-297.237846003601
738504.41329837369266897440,-6.22226630451369,-4.54206976531266,-297.154759361553
738504.41329846414737403393,-6.31458479567858,-4.55130161442915,-297.219382305368
738504.41329855448566377163,-6.28688924832911,-4.54206976531266,-297.219382305368
738504.41329864494036883116,-6.36997589037751,-4.55130161442915,-297.163991210669
738504.41329873539507389069,-6.31458479567858,-4.56053346354564,-297.228614154485
738504.41329882584977895021,-6.42536698507645,-4.57899716177862,-297.228614154485
738504.41329891630448400974,-6.36997589037751,-4.57899716177862,-297.191686758019
738504.41329900675918906927,-6.44383068330943,-4.58822901089511,-297.127063814203
738504.41329909709747880697,-6.40690328684347,-4.5974608600116,-297.154759361553
738504.41329918755218386650,-6.4622943815424,-4.5974608600116,-297.274773400067
738504.41329927800688892603,-6.39767143772698,-4.58822901089511,-297.127063814203
738504.41329936846159398556,-6.45306253242592,-4.5974608600116,-297.237846003601
738504.41329945891629904509,-6.39767143772698,-4.56976531266213,-297.237846003601
738504.41329954937100410461,-6.44383068330943,-4.58822901089511,-297.219382305368
738504.41329963982570916414,-6.42536698507645,-4.5974608600116,-297.210150456252
738504.41329973016399890184,-6.43459883419294,-4.5974608600116,-297.247077852718
738504.41329982061870396137,-6.40690328684347,-4.57899716177862,-297.237846003601
738504.41329991107340902090,-6.43459883419294,-4.58822901089511,-297.200918607135
738504.41330000152811408043,-6.45306253242592,-4.5974608600116,-297.210150456252
738504.41330009198281913996,-6.40690328684347,-4.54206976531266,-297.219382305368
738504.41330018243752419949,-6.42536698507645,-4.51437421796319,-297.173223059786
738504.41330027277581393719,-6.25919370097964,-4.36666463209937,-297.127063814203
738504.41330036323051899672,-6.10225226599933,-4.2558824427015,-297.080904568621
738504.41330045368522405624,-5.56680501724296,-4.32973723563341,-297.034745323038
738504.41330054413992911577,-4.94827112643818,-4.58822901089511,-297.034745323038
738504.41330063459463417530,-4.83748893704032,-4.74517044587542,-297.090136417737
738504.41330072504933923483,-5.79760124515519,-5.09598071230201,-297.247077852718
738504.41330081550404429436,-6.24996185186316,-5.529877620777,-297.339396343883
738504.41330090584233403206,-6.32381664479507,-5.57603686635945,-297.422482985931
738504.41330099629703909159,-6.33304849391156,-5.30831324198126,-297.376323740348
738504.41330108675174415112,-6.26842555009613,-4.99443037202063,-297.357860042116
738504.41330117720644921064,-6.35151219214454,-4.85595263527329,-297.339396343883
738504.41330126766115427017,-6.34228034302805,-4.72670674764244,-297.219382305368
738504.41330135811585932970,-6.39767143772698,-4.66208380382702,-297.182454908902
738504.41330144857056438923,-6.38843958861049,-4.62515640736106,-297.154759361553
738504.41330153890885412693,-6.39767143772698,-4.5974608600116,-297.210150456252
738504.41330162936355918646,-6.31458479567858,-4.56976531266213,-297.182454908902
738504.41330171981826424599,-6.32381664479507,-4.54206976531266,-297.247077852718
738504.41330181027296930552,-6.25919370097964,-4.54206976531266,-297.219382305368
738504.41330190072767436504,-6.28688924832911,-4.54206976531266,-297.154759361553
738504.41330199118237942457,-6.16687520981475,-4.48667867061373,-297.173223059786
738504.41330208152066916227,-6.19457075716422,-4.47744682149724,-297.200918607135
738504.41330217197537422180,-6.16687520981475,-4.47744682149724,-297.200918607135
738504.41330226243007928133,-6.15764336069826,-4.48667867061373,-297.13629566332
738504.41330235288478434086,-6.10225226599933,-4.44051942503128,-297.191686758019
738504.41330244333948940039,-6.06532486953337,-4.4220557267983,-297.228614154485
738504.41330253379419445992,-6.0376293221839,-4.39436017944884,-297.025513473922
738504.41330262424889951944,-5.96377452925199,-4.36666463209937,-297.034745323038
738504.41330271458718925714,-5.92684713278603,-4.32050538651692,-297.182454908902
738504.41330280504189431667,-5.85299233985412,-4.31127353740043,-297.154759361553
738504.41330289549659937620,-5.83452864162114,-4.28357799005097,-297.090136417737
738504.41330298595130443573,-5.70528275399029,-4.24665059358501,-297.13629566332
738504.41330307640600949526,-5.66835535752434,-4.20049134800256,-297.099368266854
738504.41330316686071455479,-5.52064577166051,-4.15433210242012,-296.997817926572
738504.41330325719900429249,-5.53910946989349,-4.15433210242012,-297.080904568621
738504.41330334765370935202,-5.43755912961211,-4.15433210242012,-297.034745323038
738504.41330343810841441154,-5.47448652607807,-4.15433210242012,-297.053209021271
738504.41330352856311947107,-5.40063173314615,-4.16356395153661,-297.016281624805
738504.41330361901782453060,-5.49295022431104,-4.18202764976959,-297.053209021271
738504.41330370947252959013,-5.51141392254402,-4.22818689535203,-297.053209021271
738504.41330379992723464966,-5.72374645222327,-4.32973723563341,-297.062440870388
738504.41330389026552438736,-5.76990569780572,-4.34820093386639,-297.071672719504
738504.41330398072022944689,-5.84376049073763,-4.38512833033235,-297.127063814203
738504.41330407117493450642,-6.01916562395093,-4.44051942503128,-297.117831965087
738504.41330416162963956594,-6.07455671864986,-4.46821497238075,-297.090136417737
738504.41330425208434462547,-6.2130344553972,-4.50514236884671,-297.145527512436
738504.41330434253904968500,-6.2130344553972,-4.52360606707968,-297.173223059786
738504.41330443287733942270,-6.2961210974456,-4.53283791619617,-297.163991210669
738504.41330452333204448223,-6.26842555009613,-4.54206976531266,-297.127063814203
738504.41330461378674954176,-6.36997589037751,-4.57899716177862,-297.163991210669
738504.41330470424145460129,-6.31458479567858,-4.56976531266213,-297.154759361553
738504.41330479469615966082,-6.379207739494,-4.56976531266213,-297.210150456252
738504.41330488515086472034,-6.32381664479507,-4.57899716177862,-297.191686758019
738504.41330497560556977987,-6.38843958861049,-4.5974608600116,-297.247077852718
738504.41330506594385951757,-6.34228034302805,-4.58822901089511,-297.191686758019
738504.41330515639856457710,-6.36997589037751,-4.57899716177862,-297.210150456252
738504.41330524685326963663,-6.32381664479507,-4.57899716177862,-297.163991210669
738504.41330533730797469616,-6.36074404126102,-4.56976531266213,-297.256309701834
738504.41330542776267975569,-6.34228034302805,-4.58822901089511,-297.247077852718
738504.41330551821738481522,-6.36997589037751,-4.58822901089511,-297.163991210669
738504.41330560855567455292,-6.34228034302805,-4.58822901089511,-297.228614154485
738504.41330569901037961245,-6.36074404126102,-4.57899716177862,-297.219382305368
738504.41330578946508467197,-6.38843958861049,-4.58822901089511,-297.247077852718
738504.41330587991978973150,-6.32381664479507,-4.58822901089511,-297.145527512436
738504.41330597037449479103,-6.379207739494,-4.57899716177862,-297.228614154485
738504.41330606082919985056,-6.30535294656209,-4.56976531266213,-297.182454908902
738504.41330615128390491009,-6.36074404126102,-4.56053346354564,-297.10860011597
738504.41330624162219464779,-6.30535294656209,-4.55130161442915,-297.228614154485
738504.41330633207689970732,-6.39767143772698,-4.5974608600116,-297.237846003601
738504.41330642253160476685,-6.34228034302805,-4.57899716177862,-297.219382305368
738504.41330651298630982637,-6.39767143772698,-4.5974608600116,-297.210150456252
738504.41330660344101488590,-6.34228034302805,-4.56976531266213,-297.247077852718
738504.41330669389571994543,-6.36997589037751,-4.56053346354564,-297.219382305368
738504.41330678435042500496,-6.36997589037751,-4.57899716177862,-297.200918607135
738504.41330687468871474266,-6.379207739494,-4.56976531266213,-297.247077852718
738504.41330696514341980219,-6.379207739494,-4.57899716177862,-297.237846003601
738504.41330705559812486172,-6.36997589037751,-4.57899716177862,-297.200918607135
738504.41330714605282992125,-6.36997589037751,-4.56053346354564,-297.237846003601
738504.41330723650753498077,-6.35151219214454,-4.56053346354564,-297.228614154485
738504.41330732696224004030,-6.39767143772698,-4.57899716177862,-297.210150456252
738504.41330741730052977800,-6.379207739494,-4.57899716177862,-297.228614154485
738504.41330750775523483753,-6.42536698507645,-4.60669270912809,-297.274773400067
738504.41330759820993989706,-6.36997589037751,-4.57899716177862,-297.247077852718
738504.41330768866464495659,-6.41613513595996,-4.57899716177862,-297.247077852718
738504.41330777911935001612,-6.36074404126102,-4.56976531266213,-297.210150456252
738504.41330786957405507565,-6.38843958861049,-4.56976531266213,-297.265541550951
738504.41330796002876013517,-6.36997589037751,-4.56976531266213,-297.228614154485
738504.41330805036704987288,-6.38843958861049,-4.56976531266213,-297.200918607135
738504.41330814082175493240,-6.36074404126102,-4.56053346354564,-297.247077852718
738504.41330823127645999193,-6.36074404126102,-4.56053346354564,-297.219382305368
738504.41330832173116505146,-6.38843958861049,-4.57899716177862,-297.154759361553
738504.41330841218587011099,-6.379207739494,-4.58822901089511,-297.210150456252
738504.41330850264057517052,-6.379207739494,-4.56053346354564,-297.237846003601
738504.41330859297886490822,-6.379207739494,-4.5974608600116,-297.237846003601
738504.41330868343356996775,-6.42536698507645,-4.58822901089511,-297.127063814203
738504.41330877388827502728,-6.36074404126102,-4.56976531266213,-297.127063814203
738504.41330886434298008680,-6.39767143772698,-4.56053346354564,-297.127063814203
738504.41330895479768514633,-6.34228034302805,-4.56053346354564,-297.117831965087
738504.41330904525239020586,-6.38843958861049,-4.55130161442915,-297.145527512436
738504.41330913570709526539,-6.379207739494,-4.5974608600116,-297.127063814203
738504.41330922604538500309,-6.43459883419294,-4.5974608600116,-297.117831965087
738504.41330931650009006262,-6.379207739494,-4.5974608600116,-297.127063814203
738504.41330940695479512215,-6.40690328684347,-4.56053346354564,-297.191686758019
738504.41330949740950018167,-6.379207739494,-4.56053346354564,-297.200918607135
738504.41330958786420524120,-6.379207739494,-4.56976531266213,-297.13629566332
738504.41330967831891030073,-6.40690328684347,-4.58822901089511,-297.090136417737
738504.41330976865720003843,-6.36997589037751,-4.56976531266213,-297.200918607135
738504.41330985911190509796,-6.42536698507645,-4.57899716177862,-297.163991210669
738504.41330994956661015749,-6.36997589037751,-4.57899716177862,-297.210150456252
738504.41331004002131521702,-6.41613513595996,-4.57899716177862,-297.237846003601
738504.41331013047602027655,-6.379207739494,-4.57899716177862,-297.247077852718
738504.41331022093072533607,-6.42536698507645,-4.58822901089511,-297.182454908902
738504.41331031138543039560,-6.32381664479507,-4.54206976531266,-297.228614154485
738504.41331040172372013330,-6.42536698507645,-4.5974608600116,-297.265541550951
738504.41331049217842519283,-6.33304849391156,-4.58822901089511,-297.163991210669
738504.41331058263313025236,-6.36997589037751,-4.57899716177862,-297.228614154485
738504.41331067308783531189,-6.2961210974456,-4.56053346354564,-297.237846003601
738504.41331076354254037142,-6.36997589037751,-4.57899716177862,-297.256309701834
738504.41331085399724543095,-6.28688924832911,-4.56976531266213,-297.210150456252
738504.41331094433553516865,-6.27765739921262,-4.54206976531266,-297.247077852718
738504.41331103479024022818,-6.22226630451369,-4.52360606707968,-297.228614154485
738504.41331112524494528770,-6.30535294656209,-4.52360606707968,-297.228614154485
738504.41331121569965034723,-6.30535294656209,-4.53283791619617,-297.256309701834
738504.41331130615435540676,-6.35151219214454,-4.54206976531266,-297.237846003601
738504.41331139660906046629,-6.379207739494,-4.56976531266213,-297.219382305368
738504.41331148706376552582,-6.34228034302805,-4.56053346354564,-297.200918607135
738504.41331157740205526352,-6.43459883419294,-4.58822901089511,-297.210150456252
738504.41331166785676032305,-6.39767143772698,-4.5974608600116,-297.200918607135
738504.41331175831146538258,-6.4622943815424,-4.5974608600116,-297.191686758019
738504.41331184876617044210,-6.379207739494,-4.57899716177862,-297.191686758019
738504.41331193922087550163,-6.44383068330943,-4.58822901089511,-297.219382305368
738504.41331202967558056116,-6.36997589037751,-4.56976531266213,-297.173223059786
738504.41331212013028562069,-6.39767143772698,-4.54206976531266,-297.210150456252
738504.41331221046857535839,-6.40690328684347,-4.60669270912809,-297.210150456252
738504.41331230092328041792,-6.4622943815424,-4.62515640736106,-297.228614154485
738504.41331239137798547745,-6.38843958861049,-4.58822901089511,-297.163991210669
738504.41331248183269053698,-6.40690328684347,-4.57899716177862,-297.173223059786
738504.41331257228739559650,-6.379207739494,-4.58822901089511,-297.154759361553
738504.41331266274210065603,-6.42536698507645,-4.5974608600116,-297.145527512436
738504.41331275308039039373,-6.38843958861049,-4.55130161442915,-297.10860011597
738504.41331284353509545326,-6.34228034302805,-4.48667867061373,-297.10860011597
738504.41331293398980051279,-6.23149815363018,-4.35743278298288,-297.090136417737
738504.41331302444450557232,-5.90838343455306,-4.2558824427015,-297.025513473922
738504.41331311489921063185,-5.35447248756371,-4.40359202856532,-296.859340189825
738504.41331320535391569138,-4.68977935117649,-4.63438825647755,-296.905499435408
738504.41331329580862075090,-4.70824304940947,-4.74517044587542,-297.099368266854
738504.41331338614691048861,-5.38216803491317,-4.99443037202063,-297.200918607135
738504.41331347660161554813,-6.11148411511582,-5.45602282784509,-297.367091891232
738504.41331356705632060766,-6.20380260628071,-5.6129642628254,-297.413251136814
738504.41331365751102566719,-6.32381664479507,-5.40986358226264,-297.394787438581
738504.41331374796573072672,-6.23149815363018,-5.08674886318552,-297.348628192999
738504.41331383842043578625,-6.32381664479507,-4.89288003173925,-297.265541550951
738504.41331392875872552395,-6.2961210974456,-4.74517044587542,-297.228614154485
738504.41331401921343058348,-6.34228034302805,-4.68054750206,-297.228614154485
738504.41331410966813564301,-6.34228034302805,-4.62515640736106,-297.173223059786
738504.41331420012284070253,-6.31458479567858,-4.5974608600116,-297.191686758019
738504.41331429057754576206,-6.32381664479507,-4.60669270912809,-297.173223059786
738504.41331438103225082159,-6.26842555009613,-4.58822901089511,-297.154759361553
738504.41331447148695588112,-6.24996185186316,-4.55130161442915,-297.219382305368
738504.41331456182524561882,-6.17610705893124,-4.51437421796319,-297.191686758019
738504.41331465227995067835,-6.2130344553972,-4.53283791619617,-297.154759361553
738504.41331474273465573788,-6.13917966246528,-4.50514236884671,-297.173223059786
738504.41331483318936079741,-6.14841151158177,-4.48667867061373,-297.182454908902
738504.41331492364406585693,-6.06532486953337,-4.46821497238075,-297.191686758019
738504.41331501409877091646,-6.10225226599933,-4.45898312326426,-297.13629566332
738504.41331510443706065416,-5.97300637836848,-4.41282387768181,-297.154759361553
738504.41331519489176571369,-5.98223822748497,-4.39436017944884,-297.173223059786
738504.41331528534647077322,-5.93607898190252,-4.38512833033235,-297.117831965087
738504.41331537580117583275,-5.88991973632008,-4.36666463209937,-297.117831965087
738504.41331546625588089228,-5.84376049073763,-4.3389690847499,-297.163991210669
738504.41331555671058595181,-5.72374645222327,-4.28357799005097,-297.13629566332
738504.41331564716529101133,-5.68681905575732,-4.26511429181799,-297.071672719504
738504.41331573750358074903,-5.58526871547594,-4.23741874446852,-297.080904568621
738504.41331582795828580856,-5.53910946989349,-4.20049134800256,-297.090136417737
738504.41331591841299086809,-5.42832728049562,-4.1727958006531,-296.997817926572
738504.41331600886769592762,-5.43755912961211,-4.1727958006531,-297.080904568621
738504.41331609932240098715,-5.37293618579669,-4.18202764976959,-297.099368266854
738504.41331618977710604668,-5.40986358226264,-4.18202764976959,-297.080904568621
738504.41331628011539578438,-5.38216803491317,-4.20972319711905,-297.071672719504
738504.41331637057010084391,-5.51141392254402,-4.24665059358501,-297.10860011597
738504.41331646102480590343,-5.54834131900998,-4.29280983916745,-297.117831965087
738504.41331655147951096296,-5.75144199957274,-4.35743278298288,-297.10860011597
738504.41331664193421602249,-5.83452864162114,-4.4220557267983,-296.997817926572
738504.41331673238892108202,-6.01916562395093,-4.46821497238075,-297.127063814203
738504.41331682284362614155,-6.05609302041688,-4.49591051973022,-297.10860011597
738504.41331691318191587925,-6.15764336069826,-4.50514236884671,-297.191686758019
738504.41331700363662093878,-6.16687520981475,-4.49591051973022,-297.219382305368
738504.41331709409132599831,-6.2130344553972,-4.56053346354564,-297.228614154485
738504.41331718454603105783,-6.28688924832911,-4.57899716177862,-297.154759361553
738504.41331727500073611736,-6.26842555009613,-4.5974608600116,-297.210150456252
738504.41331736545544117689,-6.31458479567858,-4.57899716177862,-297.191686758019
738504.41331745591014623642,-6.25919370097964,-4.58822901089511,-297.10860011597
738504.41331754624843597412,-6.31458479567858,-4.57899716177862,-297.10860011597
738504.41331763670314103365,-6.26842555009613,-4.58822901089511,-297.10860011597
738504.41331772715784609318,-6.34228034302805,-4.5974608600116,-297.117831965087
738504.41331781761255115271,-6.27765739921262,-4.5974608600116,-297.145527512436
738504.41331790806725621223,-6.35151219214454,-4.60669270912809,-297.163991210669
738504.41331799852196127176,-6.26842555009613,-4.58822901089511,-297.127063814203
738504.41331808886025100946,-6.33304849391156,-4.60669270912809,-297.182454908902
738504.41331817931495606899,-6.27765739921262,-4.58822901089511,-297.200918607135
738504.41331826976966112852,-6.32381664479507,-4.60669270912809,-297.191686758019
738504.41331836022436618805,-6.26842555009613,-4.57899716177862,-297.173223059786
738504.41331845067907124758,-6.33304849391156,-4.61592455824457,-297.200918607135
738504.41331854113377630711,-6.28688924832911,-4.58822901089511,-297.219382305368
738504.41331863158848136663,-6.28688924832911,-4.56976531266213,-297.163991210669
738504.41331872192677110434,-6.2961210974456,-4.58822901089511,-297.237846003601
738504.41331881238147616386,-6.30535294656209,-4.58822901089511,-297.228614154485
738504.41331890283618122339,-6.33304849391156,-4.5974608600116,-297.228614154485
738504.41331899329088628292,-6.27765739921262,-4.58822901089511,-297.173223059786
738504.41331908374559134245,-6.35151219214454,-4.60669270912809,-297.256309701834
738504.41331917420029640198,-6.25919370097964,-4.56976531266213,-297.228614154485
738504.41331926453858613968,-6.34228034302805,-4.58822901089511,-297.163991210669
738504.41331935499329119921,-6.28688924832911,-4.58822901089511,-297.200918607135
738504.41331944544799625874,-6.33304849391156,-4.57899716177862,-297.237846003601
738504.41331953590270131826,-6.31458479567858,-4.5974608600116,-297.163991210669
738504.41331962635740637779,-6.35151219214454,-4.5974608600116,-297.228614154485
738504.41331971681211143732,-6.30535294656209,-4.57899716177862,-297.247077852718
738504.41331980726681649685,-6.30535294656209,-4.56053346354564,-297.247077852718
738504.41331989760510623455,-6.31458479567858,-4.56976531266213,-297.210150456252
738504.41331998805981129408,-6.33304849391156,-4.58822901089511,-297.228614154485
738504.41332007851451635361,-6.35151219214454,-4.5974608600116,-297.228614154485
738504.41332016896922141314,-6.35151219214454,-4.60669270912809,-297.043977172155
738504.41332025942392647266,-6.35151219214454,-4.58822901089511,-297.173223059786
738504.41332034987863153219,-6.33304849391156,-4.58822901089511,-297.191686758019
738504.41332044021692126989,-6.379207739494,-4.60669270912809,-297.145527512436
738504.41332053067162632942,-6.32381664479507,-4.58822901089511,-297.173223059786
738504.41332062112633138895,-6.35151219214454,-4.57899716177862,-297.154759361553
738504.41332071158103644848,-6.2961210974456,-4.56053346354564,-297.145527512436
738504.41332080203574150801,-6.35151219214454,-4.57899716177862,-297.173223059786
738504.41332089249044656754,-6.35151219214454,-4.60669270912809,-297.154759361553
738504.41332098294515162706,-6.36074404126102,-4.5974608600116,-297.173223059786
738504.41332107328344136477,-6.34228034302805,-4.5974608600116,-297.182454908902
738504.41332116373814642429,-6.34228034302805,-4.57899716177862,-297.163991210669
738504.41332125419285148382,-6.35151219214454,-4.58822901089511,-297.163991210669
738504.41332134464755654335,-6.35151219214454,-4.5974608600116,-297.173223059786
738504.41332143510226160288,-6.36997589037751,-4.5974608600116,-297.173223059786
738504.41332152555696666241,-6.35151219214454,-4.5974608600116,-297.173223059786
738504.41332161589525640011,-6.379207739494,-4.60669270912809,-297.228614154485
738504.41332170634996145964,-6.32381664479507,-4.57899716177862,-297.145527512436
738504.41332179680466651917,-6.34228034302805,-4.56053346354564,-297.145527512436
738504.41332188725937157869,-6.33304849391156,-4.58822901089511,-297.145527512436
738504.41332197771407663822,-6.379207739494,-4.5974608600116,-297.163991210669
738504.41332206816878169775,-6.32381664479507,-4.58822901089511,-297.163991210669
738504.41332215862348675728,-6.40690328684347,-4.5974608600116,-297.237846003601
738504.41332224896177649498,-6.32381664479507,-4.58822901089511,-297.154759361553
738504.41332233941648155451,-6.379207739494,-4.58822901089511,-297.173223059786
738504.41332242987118661404,-6.33304849391156,-4.5974608600116,-297.163991210669
738504.41332252032589167356,-6.38843958861049,-4.5974608600116,-297.154759361553
738504.41332261078059673309,-6.36997589037751,-4.5974608600116,-297.182454908902
738504.41332270123530179262,-6.35151219214454,-4.58822901089511,-297.163991210669
738504.41332279169000685215,-6.379207739494,-4.5974608600116,-297.154759361553
738504.41332288202829658985,-6.34228034302805,-4.58822901089511,-297.145527512436
738504.41332297248300164938,-6.35151219214454,-4.56976531266213,-297.163991210669
738504.41332306293770670891,-6.33304849391156,-4.58822901089511,-297.127063814203
738504.41332315339241176844,-6.39767143772698,-4.5974608600116,-297.256309701834
738504.41332324384711682796,-6.34228034302805,-4.5974608600116,-297.200918607135
738504.41332333430182188749,-6.379207739494,-4.57899716177862,-297.191686758019
738504.41332342464011162519,-6.33304849391156,-4.5974608600116,-297.228614154485
738504.41332351509481668472,-6.40690328684347,-4.60669270912809,-297.237846003601
738504.41332360554952174425,-6.33304849391156,-4.58822901089511,-297.256309701834
738504.41332369600422680378,-6.39767143772698,-4.5974608600116,-297.034745323038
738504.41332378645893186331,-6.32381664479507,-4.57899716177862,-297.127063814203
738504.41332387691363692284,-6.38843958861049,-4.58822901089511,-297.237846003601
738504.41332396736834198236,-6.30535294656209,-4.56976531266213,-297.219382305368
738504.41332405770663172007,-6.35151219214454,-4.60669270912809,-297.210150456252
738504.41332414816133677959,-6.28688924832911,-4.58822901089511,-297.219382305368
738504.41332423861604183912,-6.32381664479507,-4.58822901089511,-297.237846003601
738504.41332432907074689865,-6.25919370097964,-4.56976531266213,-297.145527512436
738504.41332441952545195818,-6.24996185186316,-4.56053346354564,-297.210150456252
738504.41332450998015701771,-6.24996185186316,-4.55130161442915,-297.228614154485
738504.41332460031844675541,-6.20380260628071,-4.55130161442915,-297.228614154485
738504.41332469077315181494,-6.28688924832911,-4.54206976531266,-297.182454908902
738504.41332478122785687447,-6.25919370097964,-4.54206976531266,-297.219382305368
738504.41332487168256193399,-6.35151219214454,-4.56053346354564,-297.228614154485
738504.41332496213726699352,-6.28688924832911,-4.56053346354564,-297.210150456252
738504.41332505259197205305,-6.379207739494,-4.57899716177862,-297.200918607135
738504.41332514304667711258,-6.35151219214454,-4.58822901089511,-297.237846003601
738504.41332523338496685028,-6.38843958861049,-4.56976531266213,-297.274773400067
738504.41332532383967190981,-6.36074404126102,-4.57899716177862,-297.173223059786
738504.41332541429437696934,-6.42536698507645,-4.60669270912809,-297.237846003601
738504.41332550474908202887,-6.36074404126102,-4.58822901089511,-297.237846003601
738504.41332559520378708839,-6.41613513595996,-4.5974608600116,-297.182454908902
738504.41332568565849214792,-6.38843958861049,-4.60669270912809,-297.219382305368
738504.41332577599678188562,-6.39767143772698,-4.5974608600116,-297.210150456252
738504.41332586645148694515,-6.36074404126102,-4.57899716177862,-297.173223059786
738504.41332595690619200468,-6.38843958861049,-4.5974608600116,-297.200918607135
738504.41332604736089706421,-6.38843958861049,-4.60669270912809,-297.163991210669
738504.41332613781560212374,-6.36074404126102,-4.5974608600116,-297.200918607135
738504.41332622827030718327,-6.36997589037751,-4.56976531266213,-297.191686758019
738504.41332631872501224279,-6.33304849391156,-4.53283791619617,-297.145527512436
738504.41332640906330198050,-6.36997589037751,-4.52360606707968,-297.182454908902
738504.41332649951800704002,-6.22226630451369,-4.40359202856532,-297.13629566332
738504.41332658997271209955,-6.01916562395093,-4.2558824427015,-297.062440870388
738504.41332668042741715908,-5.50218207342753,-4.37589648121586,-297.043977172155
738504.41332677088212221861,-4.86518448438978,-4.65285195471053,-297.043977172155
738504.41332686133682727814,-4.71747489852596,-4.8467207861568,-297.080904568621
738504.41332695167511701584,-5.56680501724296,-5.13290810876797,-297.219382305368
738504.41332704212982207537,-6.06532486953337,-5.55757316812647,-297.311700796533
738504.41332713258452713490,-6.23149815363018,-5.63142796105838,-297.367091891232
738504.41332722303923219442,-6.24073000274667,-5.32677694021424,-297.228614154485
738504.41332731349393725395,-6.16687520981475,-4.98519852290414,-297.219382305368
738504.41332740394864231348,-6.28688924832911,-4.85595263527329,-297.247077852718
738504.41332749440334737301,-6.30535294656209,-4.75440229499191,-297.237846003601
738504.41332758474163711071,-6.35151219214454,-4.67131565294351,-297.228614154485
738504.41332767519634217024,-6.30535294656209,-4.61592455824457,-297.219382305368
738504.41332776565104722977,-6.33304849391156,-4.5974608600116,-297.173223059786
738504.41332785610575228930,-6.27765739921262,-4.58822901089511,-297.200918607135
738504.41332794656045734882,-6.28688924832911,-4.56053346354564,-297.219382305368
738504.41332803701516240835,-6.17610705893124,-4.53283791619617,-297.13629566332
738504.41332812735345214605,-6.22226630451369,-4.52360606707968,-297.219382305368
738504.41332821780815720558,-6.14841151158177,-4.51437421796319,-297.182454908902
738504.41332830826286226511,-6.18533890804773,-4.51437421796319,-297.191686758019
738504.41332839871756732464,-6.1299478133488,-4.48667867061373,-297.13629566332
738504.41332848917227238417,-6.09302041688284,-4.45898312326426,-297.191686758019
738504.41332857962697744370,-6.06532486953337,-4.4220557267983,-297.145527512436
738504.41332867008168250322,-6.01916562395093,-4.4220557267983,-297.090136417737
738504.41332876041997224092,-6.02839747306742,-4.4220557267983,-297.127063814203
738504.41332885087467730045,-5.92684713278603,-4.37589648121586,-297.10860011597
738504.41332894132938235998,-5.93607898190252,-4.35743278298288,-297.10860011597
738504.41332903178408741951,-5.80683309427168,-4.32050538651692,-297.080904568621
738504.41332912223879247904,-5.76990569780572,-4.26511429181799,-297.053209021271
738504.41332921269349753857,-5.63142796105838,-4.22818689535203,-296.95165868099
738504.41332930314820259809,-5.64065981017487,-4.21895504623554,-297.053209021271
738504.41332939348649233580,-5.50218207342753,-4.16356395153661,-296.960890530106
738504.41332948394119739532,-5.50218207342753,-4.15433210242012,-296.988586077456
738504.41332957439590245485,-5.40063173314615,-4.14510025330363,-296.960890530106
738504.41332966485060751438,-5.43755912961211,-4.14510025330363,-296.997817926572
738504.41332975530531257391,-5.3637043366802,-4.14510025330363,-297.025513473922
738504.41332984576001763344,-5.46525467696158,-4.19125949888607,-297.025513473922
738504.41332993609830737114,-5.46525467696158,-4.20049134800256,-297.016281624805
738504.41333002655301243067,-5.65912350840785,-4.29280983916745,-297.053209021271
738504.41333011700771749020,-5.73297830133976,-4.3389690847499,-297.071672719504
738504.41333020746242254972,-5.80683309427168,-4.38512833033235,-297.071672719504
738504.41333029791712760925,-5.97300637836848,-4.4220557267983,-297.154759361553
738504.41333038837183266878,-6.00993377483444,-4.45898312326426,-297.127063814203
738504.41333047882653772831,-6.14841151158177,-4.48667867061373,-297.13629566332
738504.41333056916482746601,-6.15764336069826,-4.52360606707968,-297.182454908902
738504.41333065961953252554,-6.26842555009613,-4.56053346354564,-297.191686758019
738504.41333075007423758507,-6.22226630451369,-4.55130161442915,-297.043977172155
738504.41333084052894264460,-6.2961210974456,-4.56053346354564,-297.053209021271
738504.41333093098364770412,-6.23149815363018,-4.54206976531266,-297.10860011597
738504.41333102143835276365,-6.33304849391156,-4.57899716177862,-297.127063814203
738504.41333111177664250135,-6.27765739921262,-4.5974608600116,-297.127063814203
738504.41333120223134756088,-6.33304849391156,-4.5974608600116,-297.173223059786
738504.41333129268605262041,-6.26842555009613,-4.57899716177862,-297.145527512436
738504.41333138314075767994,-6.31458479567858,-4.58822901089511,-297.200918607135
738504.41333147359546273947,-6.26842555009613,-4.57899716177862,-297.200918607135
738504.41333156405016779900,-6.28688924832911,-4.56976531266213,-297.163991210669
738504.41333165450487285852,-6.27765739921262,-4.57899716177862,-297.219382305368
738504.41333174484316259623,-6.2961210974456,-4.5974608600116,-297.210150456252
738504.41333183529786765575,-6.27765739921262,-4.57899716177862,-297.237846003601
738504.41333192575257271528,-6.28688924832911,-4.58822901089511,-297.154759361553
738504.41333201620727777481,-6.32381664479507,-4.5974608600116,-297.210150456252
738504.41333210666198283434,-6.24996185186316,-4.57899716177862,-297.228614154485
738504.41333219711668789387,-6.32381664479507,-4.58822901089511,-297.173223059786
738504.41333228745497763157,-6.24996185186316,-4.56976531266213,-297.200918607135
738504.41333237790968269110,-6.32381664479507,-4.57899716177862,-297.219382305368
738504.41333246836438775063,-6.24996185186316,-4.56976531266213,-297.173223059786
738504.41333255881909281015,-6.31458479567858,-4.57899716177862,-297.210150456252
738504.41333264927379786968,-6.26842555009613,-4.56976531266213,-297.228614154485
738504.41333273972850292921,-6.31458479567858,-4.58822901089511,-297.237846003601
738504.41333283018320798874,-6.27765739921262,-4.56976531266213,-297.182454908902
738504.41333292052149772644,-6.30535294656209,-4.56976531266213,-297.228614154485
738504.41333301097620278597,-6.28688924832911,-4.56053346354564,-297.228614154485
738504.41333310143090784550,-6.30535294656209,-4.57899716177862,-297.228614154485
738504.41333319188561290503,-6.30535294656209,-4.56976531266213,-297.191686758019
738504.41333328234031796455,-6.30535294656209,-4.57899716177862,-297.228614154485
738504.41333337279502302408,-6.33304849391156,-4.58822901089511,-297.219382305368
738504.41333346313331276178,-6.2961210974456,-4.57899716177862,-297.13629566332
738504.41333355358801782131,-6.32381664479507,-4.56976531266213,-297.10860011597
738504.41333364404272288084,-6.30535294656209,-4.58822901089511,-297.154759361553
738504.41333373449742794037,-6.35151219214454,-4.58822901089511,-297.13629566332
738504.41333382495213299990,-6.28688924832911,-4.56976531266213,-297.117831965087
738504.41333391540683805943,-6.32381664479507,-4.56976531266213,-297.13629566332
738504.41333400586154311895,-6.30535294656209,-4.57899716177862,-297.13629566332
738504.41333409619983285666,-6.32381664479507,-4.56976531266213,-297.117831965087
738504.41333418665453791618,-6.2961210974456,-4.55130161442915,-297.13629566332
738504.41333427710924297571,-6.30535294656209,-4.56053346354564,-297.117831965087
738504.41333436756394803524,-6.32381664479507,-4.58822901089511,-297.034745323038
738504.41333445801865309477,-6.33304849391156,-4.5974608600116,-297.071672719504
738504.41333454847335815430,-6.34228034302805,-4.58822901089511,-297.182454908902
738504.41333463892806321383,-6.2961210974456,-4.56976531266213,-297.163991210669
738504.41333472926635295153,-6.33304849391156,-4.56976531266213,-297.200918607135
738504.41333481972105801105,-6.30535294656209,-4.57899716177862,-297.154759361553
738504.41333491017576307058,-6.35151219214454,-4.57899716177862,-297.173223059786
738504.41333500063046813011,-6.27765739921262,-4.56053346354564,-297.163991210669
738504.41333509108517318964,-6.34228034302805,-4.56976531266213,-297.210150456252
738504.41333518153987824917,-6.28688924832911,-4.56976531266213,-297.219382305368
738504.41333527187816798687,-6.35151219214454,-4.56976531266213,-297.145527512436
738504.41333536233287304640,-6.27765739921262,-4.56976531266213,-297.200918607135
738504.41333545278757810593,-6.36074404126102,-4.57899716177862,-297.210150456252
738504.41333554324228316545,-6.28688924832911,-4.56976531266213,-297.182454908902
738504.41333563369698822498,-6.34228034302805,-4.56053346354564,-297.200918607135
738504.41333572415169328451,-6.28688924832911,-4.56976531266213,-297.219382305368
738504.41333581460639834404,-6.32381664479507,-4.58822901089511,-297.237846003601
738504.41333590494468808174,-6.36074404126102,-4.58822901089511,-297.191686758019
738504.41333599539939314127,-6.31458479567858,-4.58822901089511,-297.191686758019
738504.41333608585409820080,-6.35151219214454,-4.57899716177862,-297.210150456252
738504.41333617630880326033,-6.26842555009613,-4.55130161442915,-297.191686758019
738504.41333626676350831985,-6.33304849391156,-4.55130161442915,-297.191686758019
738504.41333635721821337938,-6.30535294656209,-4.57899716177862,-297.228614154485
738504.41333644755650311708,-6.379207739494,-4.5974608600116,-297.219382305368
738504.41333653801120817661,-6.2961210974456,-4.58822901089511,-297.173223059786
738504.41333662846591323614,-6.36997589037751,-4.58822901089511,-297.247077852718
738504.41333671892061829567,-6.2961210974456,-4.56976531266213,-297.200918607135
738504.41333680937532335520,-6.35151219214454,-4.56053346354564,-297.154759361553
738504.41333689983002841473,-6.2961210974456,-4.56053346354564,-297.200918607135
738504.41333699028473347425,-6.379207739494,-4.58822901089511,-297.237846003601
738504.41333708062302321196,-6.2961210974456,-4.56053346354564,-297.163991210669
738504.41333717107772827148,-6.36997589037751,-4.58822901089511,-297.219382305368
738504.41333726153243333101,-6.31458479567858,-4.57899716177862,-297.237846003601
738504.41333735198713839054,-6.36074404126102,-4.58822901089511,-297.219382305368
738504.41333744244184345007,-6.33304849391156,-4.58822901089511,-297.173223059786
738504.41333753289654850960,-6.34228034302805,-4.57899716177862,-297.219382305368
738504.41333762323483824730,-6.35151219214454,-4.57899716177862,-297.237846003601
738504.41333771368954330683,-6.26842555009613,-4.56053346354564,-297.154759361553
738504.41333780414424836636,-6.31458479567858,-4.56976531266213,-297.145527512436
738504.41333789459895342588,-6.23149815363018,-4.55130161442915,-296.942426831873
738504.41333798505365848541,-6.31458479567858,-4.57899716177862,-297.127063814203
738504.41333807550836354494,-6.24073000274667,-4.56976531266213,-297.200918607135
738504.41333816596306860447,-6.25919370097964,-4.55130161442915,-297.256309701834
738504.41333825630135834217,-6.14841151158177,-4.52360606707968,-297.219382305368
738504.41333834675606340170,-6.24073000274667,-4.52360606707968,-297.219382305368
738504.41333843721076846123,-6.24073000274667,-4.54206976531266,-297.127063814203
738504.41333852766547352076,-6.32381664479507,-4.56053346354564,-297.127063814203
738504.41333861812017858028,-6.27765739921262,-4.55130161442915,-297.117831965087
738504.41333870857488363981,-6.33304849391156,-4.56053346354564,-297.154759361553
738504.41333879891317337751,-6.33304849391156,-4.57899716177862,-297.154759361553
738504.41333888936787843704,-6.35151219214454,-4.56976531266213,-297.117831965087
738504.41333897982258349657,-6.32381664479507,-4.55130161442915,-297.10860011597
738504.41333907027728855610,-6.33304849391156,-4.55130161442915,-297.127063814203
738504.41333916073199361563,-6.36074404126102,-4.56976531266213,-297.127063814203
738504.41333925118669867516,-6.36074404126102,-4.58822901089511,-297.154759361553
738504.41333934164140373468,-6.36074404126102,-4.56053346354564,-297.117831965087
738504.41333943197969347239,-6.35151219214454,-4.58822901089511,-297.117831965087
738504.41333952243439853191,-6.41613513595996,-4.60669270912809,-297.13629566332
738504.41333961288910359144,-6.33304849391156,-4.58822901089511,-297.117831965087
738504.41333970334380865097,-6.379207739494,-4.5974608600116,-297.127063814203
738504.41333979379851371050,-6.34228034302805,-4.57899716177862,-297.154759361553
738504.41333988425321877003,-6.36997589037751,-4.58822901089511,-297.173223059786
738504.41333997470792382956,-6.34228034302805,-4.56053346354564,-297.191686758019
738504.41334006504621356726,-6.32381664479507,-4.51437421796319,-297.219382305368
738504.41334015550091862679,-6.25919370097964,-4.44975127414777,-297.173223059786
738504.41334024595562368631,-6.14841151158177,-4.30204168828394,-297.127063814203
738504.41334033641032874584,-5.77913754692221,-4.20972319711905,-297.117831965087
738504.41334042686503380537,-5.22522659993286,-4.45898312326426,-297.090136417737
738504.41334051731973886490,-4.65285195471053,-4.68977935117649,-297.090136417737
738504.41334060765802860260,-5.04058961760308,-4.87441633350627,-297.210150456252
738504.41334069811273366213,-5.94531083101901,-5.30831324198126,-297.376323740348
738504.41334078856743872166,-6.14841151158177,-5.63142796105838,-297.376323740348
738504.41334087902214378119,-6.2961210974456,-5.529877620777,-297.431714835047
738504.41334096947684884071,-6.16687520981475,-5.16983550523392,-297.367091891232
738504.41334105993155390024,-6.23149815363018,-4.91134372997223,-297.247077852718
738504.41334115038625895977,-6.2130344553972,-4.77286599322489,-297.265541550951
738504.41334124072454869747,-6.32381664479507,-4.68054750206,-297.247077852718
738504.41334133117925375700,-6.27765739921262,-4.62515640736106,-297.191686758019
738504.41334142163395881653,-6.32381664479507,-4.62515640736106,-297.007049775689
738504.41334151208866387606,-6.2961210974456,-4.58822901089511,-297.219382305368
738504.41334160254336893559,-6.24996185186316,-4.56053346354564,-297.228614154485
738504.41334169299807399511,-6.24073000274667,-4.54206976531266,-297.127063814203
738504.41334178333636373281,-6.18533890804773,-4.52360606707968,-297.182454908902
738504.41334187379106879234,-6.19457075716422,-4.51437421796319,-297.200918607135
738504.41334196424577385187,-6.10225226599933,-4.47744682149724,-297.173223059786
738504.41334205470047891140,-6.1299478133488,-4.46821497238075,-297.163991210669
738504.41334214515518397093,-6.09302041688284,-4.47744682149724,-297.127063814203
738504.41334223560988903046,-6.11148411511582,-4.45898312326426,-297.10860011597
738504.41334232606459408998,-6.00993377483444,-4.43128757591479,-297.10860011597
738504.41334241640288382769,-6.02839747306742,-4.40359202856532,-297.099368266854
738504.41334250685758888721,-5.92684713278603,-4.37589648121586,-297.053209021271
738504.41334259731229394674,-5.94531083101901,-4.35743278298288,-297.099368266854
738504.41334268776699900627,-5.81606494338816,-4.31127353740043,-297.090136417737
738504.41334277822170406580,-5.79760124515519,-4.26511429181799,-297.099368266854
738504.41334286867640912533,-5.66835535752434,-4.23741874446852,-297.025513473922
738504.41334295901469886303,-5.65912350840785,-4.21895504623554,-297.034745323038
738504.41334304946940392256,-5.52064577166051,-4.1727958006531,-297.016281624805
738504.41334313992410898209,-5.51141392254402,-4.15433210242012,-297.053209021271
738504.41334323037881404161,-5.48371837519456,-4.13586840418714,-297.080904568621
738504.41334332083351910114,-5.37293618579669,-4.12663655507065,-297.025513473922
738504.41334341128822416067,-5.41909543137913,-4.13586840418714,-297.043977172155
738504.41334350174292922020,-5.33600878933073,-4.12663655507065,-297.053209021271
738504.41334359208121895790,-5.43755912961211,-4.1727958006531,-297.062440870388
738504.41334368253592401743,-5.45602282784509,-4.20972319711905,-297.007049775689
738504.41334377299062907696,-5.62219611194189,-4.26511429181799,-297.080904568621
738504.41334386344533413649,-5.69605090487381,-4.32973723563341,-297.071672719504
738504.41334395390003919601,-5.88068788720359,-4.38512833033235,-297.127063814203
738504.41334404435474425554,-5.94531083101901,-4.43128757591479,-297.090136417737
738504.41334413469303399324,-6.11148411511582,-4.48667867061373,-297.127063814203
738504.41334422514773905277,-6.11148411511582,-4.49591051973022,-297.117831965087
