time_dn,ecg_projection_ll_ra_mV,ecg_projection_la_ra_mV,ecg_projection_vx_rl_mV
738239.66149767080787569284,-18.6237169509974,-2.40028077028718,338.439588610492
738239.66149776114616543055,-18.5990986866868,-2.37566250597654,338.525752535579
738239.66149785160087049007,-18.6237169509974,-2.4125899024425,338.513443403424
738239.66149794205557554960,-18.6360260831528,-2.4125899024425,338.439588610492
738239.66149803251028060913,-18.6237169509974,-2.40028077028718,338.488825139114
738239.66149812296498566866,-18.6114078188421,-2.38797163813186,338.464206874803
738239.66149821341969072819,-18.6114078188421,-2.40028077028718,338.451897742648
738239.66149830387439578772,-18.6237169509974,-2.40028077028718,338.267260760318
738239.66149839432910084724,-18.6237169509974,-2.4125899024425,338.279569892473
738239.66149848478380590677,-18.6237169509974,-2.4125899024425,338.501134271269
738239.66149857523851096630,-18.6360260831528,-2.4125899024425,338.55037079989
738239.66149866557680070400,-18.6360260831528,-2.42489903459782,338.538061667735
738239.66149875603150576353,-18.6237169509974,-2.40028077028718,338.476516006958
738239.66149884648621082306,-18.6237169509974,-2.40028077028718,338.525752535579
738239.66149893694091588259,-18.6360260831528,-2.42489903459782,338.451897742648
738239.66149902739562094212,-18.6483352153081,-2.43720816675314,338.464206874803
738239.66149911785032600164,-18.6483352153081,-2.42489903459782,338.464206874803
738239.66149920830503106117,-18.6483352153081,-2.42489903459782,338.464206874803
738239.66149929875973612070,-18.6237169509974,-2.4125899024425,338.439588610492
738239.66149938921444118023,-18.6114078188421,-2.38797163813186,338.451897742648
738239.66149947966914623976,-18.6237169509974,-2.40028077028718,338.501134271269
738239.66149957000743597746,-18.6483352153081,-2.43720816675314,338.451897742648
738239.66149966046214103699,-18.6729534796187,-2.44951729890845,338.464206874803
738239.66149975091684609652,-18.6606443474634,-2.46182643106377,338.439588610492
738239.66149984137155115604,-18.6606443474634,-2.47413556321909,338.464206874803
738239.66149993182625621557,-18.6606443474634,-2.46182643106377,338.488825139114
738239.66150002228096127510,-18.6360260831528,-2.42489903459782,338.476516006958
738239.66150011273566633463,-18.7098808760847,-2.49875382752973,338.501134271269
738239.66150020319037139416,-18.685262611774,-2.48644469537441,338.501134271269
738239.66150029364507645369,-18.685262611774,-2.47413556321909,338.451897742648
738239.66150038409978151321,-18.685262611774,-2.47413556321909,338.476516006958
738239.66150047455448657274,-18.685262611774,-2.47413556321909,338.513443403424
738239.66150056489277631044,-18.6483352153081,-2.42489903459782,338.525752535579
738239.66150065534748136997,-18.6975717439294,-2.47413556321909,338.488825139114
738239.66150074580218642950,-18.685262611774,-2.48644469537441,338.525752535579
738239.66150083625689148903,-18.7098808760847,-2.48644469537441,338.525752535579
738239.66150092671159654856,-18.6975717439294,-2.48644469537441,338.488825139114
738239.66150101716630160809,-18.6606443474634,-2.44951729890845,338.574989064201
738239.66150110762100666761,-18.6975717439294,-2.48644469537441,338.538061667735
738239.66150119807571172714,-18.6975717439294,-2.47413556321909,338.525752535579
738239.66150128853041678667,-18.685262611774,-2.47413556321909,338.525752535579
738239.66150137898512184620,-18.6606443474634,-2.44951729890845,338.525752535579
738239.66150146932341158390,-18.685262611774,-2.47413556321909,338.501134271269
738239.66150155977811664343,-18.6360260831528,-2.42489903459782,338.525752535579
738239.66150165023282170296,-18.6237169509974,-2.4125899024425,338.525752535579
738239.66150174068752676249,-18.6483352153081,-2.4125899024425,338.525752535579
738239.66150183114223182201,-18.6483352153081,-2.38797163813186,338.304188156784
738239.66150192159693688154,-18.6360260831528,-2.37566250597654,338.402661214026
738239.66150201205164194107,-18.6606443474634,-2.40028077028718,338.464206874803
738239.66150210250634700060,-18.7098808760847,-2.43720816675314,338.525752535579
738239.66150219296105206013,-18.6975717439294,-2.44951729890845,338.476516006958
738239.66150228341575711966,-18.6360260831528,-2.40028077028718,338.476516006958
738239.66150237387046217918,-18.7344991403953,-2.49875382752973,338.488825139114
738239.66150246420875191689,-18.685262611774,-2.47413556321909,338.488825139114
738239.66150255466345697641,-18.72219000824,-2.48644469537441,338.501134271269
738239.66150264511816203594,-18.6975717439294,-2.47413556321909,338.488825139114
738239.66150273557286709547,-18.72219000824,-2.48644469537441,338.513443403424
738239.66150282602757215500,-18.72219000824,-2.48644469537441,338.538061667735
738239.66150291648227721453,-18.7098808760847,-2.46182643106377,338.55037079989
738239.66150300693698227406,-18.6975717439294,-2.42489903459782,338.599607328511
738239.66150309739168733358,-18.5744804223762,-2.28949858088931,338.525752535579
738239.66150318784639239311,-18.2421338541826,-1.92022461622974,338.488825139114
738239.66150327830109745264,-17.835932493057,-1.47709585863826,338.291879024628
738239.66150336863938719034,-17.7005320393485,-1.5632597837255,338.021078117211
738239.66150345909409224987,-18.3775343078911,-2.65877254554888,337.861059399192
738239.66150354954879730940,-19.1407005015208,-3.54503006073183,338.033387249367
738239.66150364000350236893,-19.3253374838506,-3.40962960702333,338.279569892473
738239.66150373045820742846,-18.9683726513464,-2.91726432081057,338.36573381756
738239.66150382091291248798,-18.6975717439294,-2.57260862046164,338.378042949716
738239.66150391136761754751,-18.685262611774,-2.51106295968505,338.402661214026
738239.66150400182232260704,-18.6729534796187,-2.48644469537441,338.439588610492
738239.66150409227702766657,-18.6729534796187,-2.44951729890845,338.378042949716
738239.66150418273173272610,-18.6606443474634,-2.43720816675314,338.501134271269
738239.66150427307002246380,-18.6483352153081,-2.4125899024425,338.513443403424
738239.66150436352472752333,-18.6237169509974,-2.38797163813186,338.513443403424
738239.66150445397943258286,-18.6114078188421,-2.37566250597654,338.525752535579
738239.66150454443413764238,-18.6114078188421,-2.36335337382122,338.513443403424
738239.66150463488884270191,-18.6237169509974,-2.36335337382122,338.513443403424
738239.66150472534354776144,-18.5867895545315,-2.31411684519995,338.55037079989
738239.66150481579825282097,-18.5867895545315,-2.31411684519995,338.476516006958
738239.66150490625295788050,-18.5867895545315,-2.31411684519995,338.562679932045
738239.66150499670766294003,-18.6114078188421,-2.33873510951058,338.476516006958
738239.66150508716236799955,-18.5621712902209,-2.28949858088931,338.414970346182
738239.66150517761707305908,-18.5744804223762,-2.27718944873399,338.451897742648
738239.66150526795536279678,-18.5621712902209,-2.25257118442335,338.451897742648
738239.66150535841006785631,-18.5498621580655,-2.24026205226803,338.267260760318
738239.66150544886477291584,-18.5252438937549,-2.20333465580208,338.414970346182
738239.66150553931947797537,-18.5006256294443,-2.16640725933612,338.538061667735
738239.66150562977418303490,-18.5252438937549,-2.19102552364676,338.501134271269
738239.66150572022888809443,-18.4883164972889,-2.1540981271808,338.538061667735
738239.66150581068359315395,-18.4760073651336,-2.11717073071485,338.513443403424
738239.66150590113829821348,-18.4267708365123,-2.06793420209357,338.562679932045
738239.66150599159300327301,-18.451389100823,-2.08024333424889,338.538061667735
738239.66150608204770833254,-18.4267708365123,-2.03100680562761,338.587298196356
738239.66150617238599807024,-18.4021525722017,-1.99407940916166,338.611916460667
738239.66150626284070312977,-18.3775343078911,-1.94484288054038,338.501134271269
738239.66150635329540818930,-18.3529160435804,-1.89560635191911,338.562679932045
738239.66150644375011324883,-18.3529160435804,-1.87098808760847,338.611916460667
738239.66150653420481830835,-18.3406069114251,-1.84636982329783,338.55037079989
738239.66150662465952336788,-18.3282977792698,-1.83406069114251,338.525752535579
738239.66150671511422842741,-18.3406069114251,-1.84636982329783,338.574989064201
738239.66150680556893348694,-18.3406069114251,-1.84636982329783,338.574989064201
738239.66150689602363854647,-18.3652251757358,-1.92022461622974,338.488825139114
738239.66150698647834360600,-18.4021525722017,-1.99407940916166,338.501134271269
738239.66150707693304866552,-18.4390799686677,-2.08024333424889,338.488825139114
738239.66150716727133840322,-18.4760073651336,-2.14178899502548,338.501134271269
738239.66150725772604346275,-18.5375530259102,-2.24026205226803,338.488825139114
738239.66150734818074852228,-18.5621712902209,-2.28949858088931,338.451897742648
738239.66150743863545358181,-18.5867895545315,-2.32642597735527,338.451897742648
738239.66150752909015864134,-18.5744804223762,-2.33873510951058,338.476516006958
738239.66150761954486370087,-18.5990986866868,-2.36335337382122,338.476516006958
738239.66150770999956876040,-18.6114078188421,-2.37566250597654,338.476516006958
738239.66150780045427381992,-18.6237169509974,-2.38797163813186,338.513443403424
738239.66150789090897887945,-18.6114078188421,-2.37566250597654,338.451897742648
738239.66150798136368393898,-18.6237169509974,-2.40028077028718,338.439588610492
738239.66150807170197367668,-18.6237169509974,-2.40028077028718,338.538061667735
738239.66150816215667873621,-18.6114078188421,-2.38797163813186,338.439588610492
738239.66150825261138379574,-18.5990986866868,-2.38797163813186,338.501134271269
738239.66150834306608885527,-18.6237169509974,-2.40028077028718,338.427279478337
738239.66150843352079391479,-18.6114078188421,-2.40028077028718,338.451897742648
738239.66150852397549897432,-18.5990986866868,-2.40028077028718,338.439588610492
738239.66150861443020403385,-18.5990986866868,-2.38797163813186,338.414970346182
738239.66150870488490909338,-18.5990986866868,-2.38797163813186,338.451897742648
738239.66150879533961415291,-18.5990986866868,-2.38797163813186,338.488825139114
738239.66150888579431921244,-18.5990986866868,-2.38797163813186,338.353424685405
738239.66150897624902427197,-18.5867895545315,-2.38797163813186,338.439588610492
738239.66150906658731400967,-18.6114078188421,-2.4125899024425,338.562679932045
738239.66150915704201906919,-18.5990986866868,-2.40028077028718,338.55037079989
738239.66150924749672412872,-18.5744804223762,-2.37566250597654,338.538061667735
738239.66150933795142918825,-18.5375530259102,-2.3510442416659,338.55037079989
738239.66150942840613424778,-18.4883164972889,-2.28949858088931,338.55037079989
738239.66150951886083930731,-18.5252438937549,-2.32642597735527,338.488825139114
738239.66150960931554436684,-18.5252438937549,-2.32642597735527,338.476516006958
738239.66150969977024942636,-18.5129347615996,-2.33873510951058,338.451897742648
738239.66150979022495448589,-18.5621712902209,-2.38797163813186,338.439588610492
738239.66150988067965954542,-18.5375530259102,-2.36335337382122,338.464206874803
738239.66150997101794928312,-18.5990986866868,-2.43720816675314,338.513443403424
738239.66151006147265434265,-18.5867895545315,-2.42489903459782,338.55037079989
738239.66151015192735940218,-18.5744804223762,-2.42489903459782,338.513443403424
738239.66151024238206446171,-18.5744804223762,-2.42489903459782,338.599607328511
738239.66151033283676952124,-18.5867895545315,-2.43720816675314,338.55037079989
738239.66151042329147458076,-18.5867895545315,-2.4125899024425,338.538061667735
738239.66151051374617964029,-18.5867895545315,-2.42489903459782,338.574989064201
738239.66151060420088469982,-18.5867895545315,-2.43720816675314,338.587298196356
738239.66151069465558975935,-18.5744804223762,-2.42489903459782,338.587298196356
738239.66151078511029481888,-18.5621712902209,-2.4125899024425,338.574989064201
738239.66151087544858455658,-18.5621712902209,-2.40028077028718,338.402661214026
738239.66151096590328961611,-18.5621712902209,-2.44951729890845,338.414970346182
738239.66151105635799467564,-18.5375530259102,-2.43720816675314,338.501134271269
738239.66151114681269973516,-18.5498621580655,-2.42489903459782,338.464206874803
738239.66151123726740479469,-18.5129347615996,-2.38797163813186,338.488825139114
738239.66151132772210985422,-18.4883164972889,-2.3510442416659,338.488825139114
738239.66151141817681491375,-18.4883164972889,-2.33873510951058,338.476516006958
738239.66151150863151997328,-18.5006256294443,-2.33873510951058,338.501134271269
738239.66151159908622503281,-18.5006256294443,-2.32642597735527,338.538061667735
738239.66151168954093009233,-18.5375530259102,-2.3510442416659,338.55037079989
738239.66151177999563515186,-18.5252438937549,-2.36335337382122,338.538061667735
738239.66151187033392488956,-18.5621712902209,-2.40028077028718,338.55037079989
738239.66151196078862994909,-18.5744804223762,-2.4125899024425,338.513443403424
738239.66151205124333500862,-18.5744804223762,-2.42489903459782,338.476516006958
738239.66151214169804006815,-18.6114078188421,-2.47413556321909,338.525752535579
738239.66151223215274512768,-18.5990986866868,-2.44951729890845,338.538061667735
738239.66151232260745018721,-18.5990986866868,-2.46182643106377,338.587298196356
738239.66151241306215524673,-18.5990986866868,-2.44951729890845,338.402661214026
738239.66151250351686030626,-18.5867895545315,-2.44951729890845,338.427279478337
738239.66151259397156536579,-18.5744804223762,-2.42489903459782,338.599607328511
738239.66151268442627042532,-18.5867895545315,-2.38797163813186,338.636534724977
738239.66151277476456016302,-18.3529160435804,-2.17871639149144,338.538061667735
738239.66151286521926522255,-18.0205694753868,-1.77251503036592,338.525752535579
738239.66151295567397028208,-17.6389863785719,-1.41555019786167,338.267260760318
738239.66151304612867534161,-17.7866959644358,-1.89560635191911,337.910295927814
738239.66151313658338040113,-18.5621712902209,-3.07728303882972,337.873368531348
738239.66151322703808546066,-19.1283913693655,-3.48348439995524,338.267260760318
738239.66151331749279052019,-19.1776278979868,-3.37270221055737,338.378042949716
738239.66151340794749557972,-18.9314452548804,-3.0034282458978,338.402661214026
738239.66151349840220063925,-18.685262611774,-2.65877254554888,338.36573381756
738239.66151358885690569878,-18.5867895545315,-2.49875382752973,338.402661214026
738239.66151367931161075830,-18.5252438937549,-2.4125899024425,338.451897742648
738239.66151376964990049601,-18.5252438937549,-2.38797163813186,338.439588610492
738239.66151386010460555553,-18.5990986866868,-2.44951729890845,338.513443403424
738239.66151395055931061506,-18.5498621580655,-2.40028077028718,338.562679932045
738239.66151404101401567459,-18.5375530259102,-2.37566250597654,338.513443403424
738239.66151413146872073412,-18.5252438937549,-2.36335337382122,338.55037079989
738239.66151422192342579365,-18.5129347615996,-2.3510442416659,338.587298196356
738239.66151431237813085318,-18.5375530259102,-2.37566250597654,338.574989064201
738239.66151440283283591270,-18.4883164972889,-2.33873510951058,338.525752535579
738239.66151449328754097223,-18.5252438937549,-2.33873510951058,338.55037079989
738239.66151458374224603176,-18.4636982329783,-2.27718944873399,338.538061667735
738239.66151467408053576946,-18.4267708365123,-2.24026205226803,338.55037079989
738239.66151476453524082899,-18.5006256294443,-2.30180771304463,338.562679932045
738239.66151485498994588852,-18.4883164972889,-2.28949858088931,338.574989064201
738239.66151494544465094805,-18.4636982329783,-2.24026205226803,338.390352081871
738239.66151503589935600758,-18.451389100823,-2.2156437879574,338.464206874803
738239.66151512635406106710,-18.414461704357,-2.17871639149144,338.476516006958
738239.66151521680876612663,-18.3775343078911,-2.1540981271808,338.488825139114
738239.66151530726347118616,-18.3775343078911,-2.12947986287016,338.538061667735
738239.66151539771817624569,-18.3898434400464,-2.12947986287016,338.574989064201
738239.66151548817288130522,-18.4021525722017,-2.12947986287016,338.501134271269
738239.66151557862758636475,-18.3406069114251,-2.04331593778293,338.538061667735
738239.66151566896587610245,-18.3282977792698,-2.01869767347229,338.55037079989
738239.66151575942058116198,-18.2790612506485,-1.96946114485102,338.525752535579
738239.66151584987528622150,-18.3036795149592,-1.96946114485102,338.525752535579
738239.66151594032999128103,-18.2913703828038,-1.93253374838506,338.488825139114
738239.66151603078469634056,-18.2421338541826,-1.88329721976379,338.451897742648
738239.66151612123940140009,-18.2175155898719,-1.83406069114251,338.464206874803
738239.66151621169410645962,-18.2544429863379,-1.85867895545315,338.55037079989
738239.66151630214881151915,-18.2544429863379,-1.84636982329783,338.538061667735
738239.66151639260351657867,-18.2052064577166,-1.82175155898719,338.464206874803
738239.66151648305822163820,-18.2667521184932,-1.89560635191911,338.402661214026
738239.66151657339651137590,-18.2790612506485,-1.9571520126957,338.464206874803
738239.66151666385121643543,-18.3282977792698,-2.01869767347229,338.451897742648
738239.66151675430592149496,-18.3529160435804,-2.08024333424889,338.427279478337
738239.66151684476062655449,-18.3898434400464,-2.1540981271808,338.439588610492
738239.66151693521533161402,-18.4636982329783,-2.25257118442335,338.414970346182
738239.66151702567003667355,-18.5006256294443,-2.30180771304463,338.414970346182
738239.66151711612474173307,-18.5006256294443,-2.32642597735527,338.476516006958
738239.66151720657944679260,-18.5252438937549,-2.36335337382122,338.390352081871
738239.66151729703415185213,-18.5498621580655,-2.40028077028718,338.439588610492
738239.66151738748885691166,-18.5375530259102,-2.37566250597654,338.464206874803
738239.66151747782714664936,-18.5375530259102,-2.37566250597654,338.525752535579
738239.66151756828185170889,-18.5375530259102,-2.37566250597654,338.562679932045
738239.66151765873655676842,-18.5744804223762,-2.4125899024425,338.501134271269
738239.66151774919126182795,-18.5867895545315,-2.4125899024425,338.464206874803
738239.66151783964596688747,-18.5621712902209,-2.38797163813186,338.525752535579
738239.66151793010067194700,-18.5621712902209,-2.40028077028718,338.513443403424
738239.66151802055537700653,-18.5621712902209,-2.40028077028718,338.414970346182
738239.66151811101008206606,-18.5498621580655,-2.38797163813186,338.538061667735
738239.66151820146478712559,-18.5375530259102,-2.38797163813186,338.488825139114
738239.66151829191949218512,-18.5621712902209,-2.37566250597654,338.439588610492
738239.66151838237419724464,-18.5375530259102,-2.37566250597654,338.501134271269
738239.66151847271248698235,-18.5498621580655,-2.38797163813186,338.513443403424
738239.66151856316719204187,-18.5621712902209,-2.40028077028718,338.55037079989
738239.66151865362189710140,-18.5744804223762,-2.38797163813186,338.501134271269
738239.66151874407660216093,-18.5621712902209,-2.38797163813186,338.501134271269
738239.66151883453130722046,-18.5621712902209,-2.4125899024425,338.501134271269
738239.66151892498601227999,-18.5621712902209,-2.4125899024425,338.464206874803
738239.66151901544071733952,-18.5621712902209,-2.4125899024425,338.488825139114
738239.66151910589542239904,-18.5744804223762,-2.42489903459782,338.501134271269
738239.66151919635012745857,-18.5990986866868,-2.43720816675314,338.525752535579
738239.66151928680483251810,-18.5990986866868,-2.42489903459782,338.451897742648
738239.66151937714312225580,-18.5990986866868,-2.42489903459782,338.476516006958
738239.66151946759782731533,-18.6114078188421,-2.43720816675314,338.414970346182
738239.66151955805253237486,-18.5990986866868,-2.43720816675314,338.304188156784
738239.66151964850723743439,-18.5990986866868,-2.43720816675314,338.513443403424
738239.66151973896194249392,-18.5990986866868,-2.42489903459782,338.55037079989
738239.66151982941664755344,-18.5990986866868,-2.42489903459782,338.427279478337
738239.66151991987135261297,-18.6114078188421,-2.44951729890845,338.488825139114
738239.66152001032605767250,-18.6237169509974,-2.44951729890845,338.464206874803
738239.66152010078076273203,-18.6237169509974,-2.44951729890845,338.414970346182
738239.66152019123546779156,-18.6114078188421,-2.43720816675314,338.427279478337
738239.66152028169017285109,-18.6114078188421,-2.46182643106377,338.439588610492
738239.66152037202846258879,-18.6360260831528,-2.47413556321909,338.402661214026
738239.66152046248316764832,-18.6237169509974,-2.44951729890845,338.353424685405
738239.66152055293787270784,-18.6237169509974,-2.46182643106377,338.36573381756
738239.66152064339257776737,-18.6114078188421,-2.46182643106377,338.402661214026
738239.66152073384728282690,-18.5990986866868,-2.46182643106377,338.451897742648
738239.66152082430198788643,-18.5867895545315,-2.46182643106377,338.476516006958
738239.66152091475669294596,-18.5498621580655,-2.40028077028718,338.488825139114
738239.66152100521139800549,-18.5867895545315,-2.42489903459782,338.451897742648
738239.66152109566610306501,-18.5621712902209,-2.4125899024425,338.427279478337
738239.66152118612080812454,-18.5498621580655,-2.38797163813186,338.439588610492
738239.66152127645909786224,-18.5744804223762,-2.37566250597654,338.451897742648
738239.66152136691380292177,-18.5744804223762,-2.37566250597654,338.451897742648
738239.66152145736850798130,-18.5990986866868,-2.4125899024425,338.488825139114
738239.66152154782321304083,-18.6237169509974,-2.43720816675314,338.476516006958
738239.66152163827791810036,-18.6360260831528,-2.46182643106377,338.488825139114
738239.66152172873262315989,-18.6483352153081,-2.46182643106377,338.562679932045
738239.66152181918732821941,-18.6483352153081,-2.47413556321909,338.538061667735
738239.66152190964203327894,-18.6483352153081,-2.48644469537441,338.464206874803
738239.66152200009673833847,-18.6483352153081,-2.48644469537441,338.513443403424
738239.66152209055144339800,-18.6483352153081,-2.47413556321909,338.538061667735
738239.66152218100614845753,-18.6483352153081,-2.47413556321909,338.488825139114
738239.66152227134443819523,-18.6483352153081,-2.47413556321909,338.562679932045
738239.66152236179914325476,-18.6237169509974,-2.44951729890845,338.587298196356
738239.66152245225384831429,-18.6606443474634,-2.42489903459782,338.538061667735
738239.66152254270855337381,-18.414461704357,-2.20333465580208,338.562679932045
738239.66152263316325843334,-18.1928973255613,-1.9571520126957,338.574989064201
738239.66152272361796349287,-17.7866959644358,-1.60018718019145,338.353424685405
738239.66152281407266855240,-17.5897498499507,-1.68635110527868,338.008768985056
738239.66152290452737361193,-18.3282977792698,-2.68339080985951,337.910295927814
738239.66152299498207867146,-19.0914639728996,-3.48348439995524,338.107242042299
738239.66152308543678373098,-19.2884100873847,-3.36039307840205,338.107242042299
738239.66152317577507346869,-18.9314452548804,-2.94188258512121,338.328806421094
738239.66152326622977852821,-18.7344991403953,-2.65877254554888,338.34111555325
738239.66152335668448358774,-18.6606443474634,-2.53568122399569,338.390352081871
738239.66152344713918864727,-18.6483352153081,-2.48644469537441,338.439588610492
738239.66152353759389370680,-18.6360260831528,-2.47413556321909,338.427279478337
738239.66152362804859876633,-18.6237169509974,-2.46182643106377,338.36573381756
738239.66152371850330382586,-18.5990986866868,-2.42489903459782,338.402661214026
738239.66152380895800888538,-18.5867895545315,-2.40028077028718,338.390352081871
738239.66152389941271394491,-18.5990986866868,-2.40028077028718,338.402661214026
738239.66152398986741900444,-18.6237169509974,-2.42489903459782,338.402661214026
738239.66152408020570874214,-18.6114078188421,-2.4125899024425,338.378042949716
738239.66152417066041380167,-18.5867895545315,-2.38797163813186,338.427279478337
738239.66152426111511886120,-18.5621712902209,-2.37566250597654,338.439588610492
738239.66152435156982392073,-18.5744804223762,-2.38797163813186,338.451897742648
738239.66152444202452898026,-18.5621712902209,-2.3510442416659,338.439588610492
738239.66152453247923403978,-18.5498621580655,-2.33873510951058,338.476516006958
738239.66152462293393909931,-18.5375530259102,-2.32642597735527,338.513443403424
738239.66152471338864415884,-18.5252438937549,-2.30180771304463,338.378042949716
738239.66152480384334921837,-18.5375530259102,-2.31411684519995,338.451897742648
738239.66152489429805427790,-18.5006256294443,-2.26488031657867,338.439588610492
738239.66152498475275933743,-18.4760073651336,-2.24026205226803,338.402661214026
738239.66152507509104907513,-18.4760073651336,-2.24026205226803,338.402661214026
738239.66152516554575413465,-18.4760073651336,-2.22795292011272,338.464206874803
738239.66152525600045919418,-18.4390799686677,-2.19102552364676,338.402661214026
738239.66152534645516425371,-18.414461704357,-2.1540981271808,338.476516006958
738239.66152543690986931324,-18.3898434400464,-2.11717073071485,338.476516006958
738239.66152552736457437277,-18.3652251757358,-2.09255246640421,338.488825139114
738239.66152561781927943230,-18.3282977792698,-2.04331593778293,338.451897742648
738239.66152570827398449183,-18.3036795149592,-2.00638854131698,338.451897742648
738239.66152579872868955135,-18.2913703828038,-1.98177027700634,338.464206874803
738239.66152588918339461088,-18.2790612506485,-1.96946114485102,338.488825139114
738239.66152597952168434858,-18.2667521184932,-1.94484288054038,338.538061667735
738239.66152606997638940811,-18.2790612506485,-1.9571520126957,338.513443403424
738239.66152616043109446764,-18.2790612506485,-1.96946114485102,338.476516006958
738239.66152625088579952717,-18.3036795149592,-1.98177027700634,338.488825139114
738239.66152634134050458670,-18.3159886471145,-2.01869767347229,338.476516006958
738239.66152643179520964622,-18.3775343078911,-2.09255246640421,338.427279478337
738239.66152652224991470575,-18.414461704357,-2.16640725933612,338.427279478337
738239.66152661270461976528,-18.451389100823,-2.22795292011272,338.316497288939
738239.66152670315932482481,-18.4883164972889,-2.27718944873399,338.476516006958
738239.66152679361402988434,-18.5375530259102,-2.33873510951058,338.488825139114
738239.66152688406873494387,-18.5621712902209,-2.37566250597654,338.476516006958
738239.66152697440702468157,-18.5867895545315,-2.4125899024425,338.513443403424
738239.66152706486172974110,-18.6114078188421,-2.42489903459782,338.464206874803
738239.66152715531643480062,-18.5990986866868,-2.42489903459782,338.501134271269
738239.66152724577113986015,-18.5990986866868,-2.42489903459782,338.538061667735
738239.66152733622584491968,-18.6114078188421,-2.42489903459782,338.476516006958
738239.66152742668054997921,-18.6114078188421,-2.42489903459782,338.439588610492
738239.66152751713525503874,-18.6114078188421,-2.44951729890845,338.378042949716
738239.66152760758996009827,-18.5990986866868,-2.42489903459782,338.414970346182
738239.66152769804466515779,-18.5867895545315,-2.42489903459782,338.451897742648
738239.66152778849937021732,-18.5990986866868,-2.42489903459782,338.390352081871
738239.66152787883765995502,-18.5867895545315,-2.42489903459782,338.427279478337
738239.66152796929236501455,-18.5867895545315,-2.42489903459782,338.439588610492
738239.66152805974707007408,-18.5867895545315,-2.4125899024425,338.414970346182
738239.66152815020177513361,-18.5867895545315,-2.42489903459782,338.464206874803
738239.66152824065648019314,-18.5867895545315,-2.42489903459782,338.501134271269
738239.66152833111118525267,-18.5867895545315,-2.42489903459782,338.538061667735
738239.66152842156589031219,-18.5990986866868,-2.42489903459782,338.451897742648
738239.66152851202059537172,-18.6114078188421,-2.43720816675314,338.414970346182
738239.66152860247530043125,-18.5867895545315,-2.42489903459782,338.427279478337
738239.66152869293000549078,-18.6114078188421,-2.44951729890845,338.414970346182
738239.66152878326829522848,-18.6114078188421,-2.43720816675314,338.451897742648
738239.66152887372300028801,-18.5990986866868,-2.42489903459782,338.488825139114
738239.66152896417770534754,-18.6114078188421,-2.44951729890845,338.476516006958
738239.66152905463241040707,-18.6237169509974,-2.44951729890845,338.464206874803
738239.66152914508711546659,-18.6237169509974,-2.46182643106377,338.427279478337
738239.66152923554182052612,-18.6237169509974,-2.46182643106377,338.476516006958
738239.66152932599652558565,-18.6237169509974,-2.46182643106377,338.427279478337
738239.66152941645123064518,-18.6237169509974,-2.46182643106377,338.414970346182
738239.66152950690593570471,-18.6237169509974,-2.46182643106377,338.390352081871
738239.66152959736064076424,-18.6237169509974,-2.46182643106377,338.439588610492
738239.66152968781534582376,-18.6237169509974,-2.47413556321909,338.451897742648
738239.66152977815363556147,-18.6237169509974,-2.47413556321909,338.525752535579
738239.66152986860834062099,-18.6237169509974,-2.46182643106377,338.488825139114
738239.66152995906304568052,-18.6360260831528,-2.46182643106377,338.414970346182
738239.66153004951775074005,-18.6237169509974,-2.46182643106377,338.451897742648
738239.66153013997245579958,-18.6483352153081,-2.47413556321909,338.181096835231
738239.66153023042716085911,-18.6237169509974,-2.47413556321909,338.464206874803
738239.66153032088186591864,-18.6237169509974,-2.47413556321909,338.513443403424
738239.66153041133657097816,-18.6360260831528,-2.46182643106377,338.525752535579
738239.66153050179127603769,-18.6237169509974,-2.44951729890845,338.476516006958
738239.66153059224598109722,-18.6483352153081,-2.47413556321909,338.501134271269
738239.66153068258427083492,-18.6360260831528,-2.47413556321909,338.513443403424
738239.66153077303897589445,-18.6237169509974,-2.47413556321909,338.464206874803
738239.66153086349368095398,-18.6114078188421,-2.48644469537441,338.488825139114
738239.66153095394838601351,-18.6114078188421,-2.48644469537441,338.513443403424
738239.66153104440309107304,-18.5990986866868,-2.44951729890845,338.427279478337
738239.66153113485779613256,-18.5498621580655,-2.4125899024425,338.451897742648
738239.66153122531250119209,-18.5621712902209,-2.40028077028718,338.501134271269
738239.66153131576720625162,-18.5867895545315,-2.40028077028718,338.55037079989
738239.66153140622191131115,-18.5990986866868,-2.40028077028718,338.501134271269
738239.66153149667661637068,-18.6237169509974,-2.4125899024425,338.513443403424
738239.66153158713132143021,-18.6237169509974,-2.42489903459782,338.378042949716
738239.66153167746961116791,-18.6483352153081,-2.46182643106377,338.390352081871
738239.66153176792431622744,-18.6360260831528,-2.44951729890845,338.427279478337
738239.66153185837902128696,-18.6729534796187,-2.48644469537441,338.390352081871
738239.66153194883372634649,-18.6729534796187,-2.49875382752973,338.501134271269
738239.66153203928843140602,-18.685262611774,-2.49875382752973,338.439588610492
738239.66153212974313646555,-18.685262611774,-2.49875382752973,338.439588610492
738239.66153222019784152508,-18.685262611774,-2.49875382752973,338.439588610492
738239.66153231065254658461,-18.6729534796187,-2.49875382752973,338.451897742648
738239.66153240110725164413,-18.685262611774,-2.49875382752973,338.451897742648
738239.66153249156195670366,-18.685262611774,-2.47413556321909,338.513443403424
738239.66153258190024644136,-18.6114078188421,-2.36335337382122,338.587298196356
738239.66153267235495150089,-18.2667521184932,-2.05562506993825,338.501134271269
738239.66153276280965656042,-17.835932493057,-1.77251503036592,338.230333363852
738239.66153285326436161995,-17.5035859248634,-1.64942370881273,337.922605059969
738239.66153294371906667948,-18.0821151361634,-2.48644469537441,337.78720460626
738239.66153303417377173901,-19.1037731050549,-3.36039307840205,338.144169438765
738239.66153312462847679853,-19.3376466160059,-3.34808394624673,338.304188156784
738239.66153321508318185806,-18.9806817835017,-2.97880998158717,338.328806421094
738239.66153330553788691759,-18.7098808760847,-2.65877254554888,338.291879024628
738239.66153339599259197712,-18.6606443474634,-2.54799035615101,338.34111555325
738239.66153348644729703665,-18.6360260831528,-2.49875382752973,338.390352081871
738239.66153357678558677435,-18.6360260831528,-2.47413556321909,338.168787703075
738239.66153366724029183388,-18.6360260831528,-2.47413556321909,338.304188156784
738239.66153375769499689341,-18.6360260831528,-2.47413556321909,338.36573381756
738239.66153384814970195293,-18.6360260831528,-2.46182643106377,338.390352081871
738239.66153393860440701246,-18.6237169509974,-2.44951729890845,338.427279478337
738239.66153402905911207199,-18.5990986866868,-2.4125899024425,338.414970346182
738239.66153411951381713152,-18.6114078188421,-2.43720816675314,338.427279478337
738239.66153420996852219105,-18.6114078188421,-2.43720816675314,338.390352081871
738239.66153430042322725058,-18.5867895545315,-2.4125899024425,338.488825139114
738239.66153439087793231010,-18.5867895545315,-2.40028077028718,338.488825139114
738239.66153448121622204781,-18.5867895545315,-2.40028077028718,338.427279478337
738239.66153457167092710733,-18.5375530259102,-2.36335337382122,338.464206874803
738239.66153466212563216686,-18.5621712902209,-2.37566250597654,338.538061667735
738239.66153475258033722639,-18.5744804223762,-2.37566250597654,338.476516006958
738239.66153484303504228592,-18.5252438937549,-2.33873510951058,338.427279478337
738239.66153493348974734545,-18.5129347615996,-2.31411684519995,338.488825139114
738239.66153502394445240498,-18.4760073651336,-2.28949858088931,338.464206874803
738239.66153511439915746450,-18.4760073651336,-2.27718944873399,338.402661214026
738239.66153520485386252403,-18.5006256294443,-2.28949858088931,338.501134271269
738239.66153529530856758356,-18.4636982329783,-2.25257118442335,338.476516006958
738239.66153538564685732126,-18.4267708365123,-2.19102552364676,338.402661214026
738239.66153547610156238079,-18.3898434400464,-2.16640725933612,338.488825139114
738239.66153556655626744032,-18.3775343078911,-2.14178899502548,338.476516006958
738239.66153565701097249985,-18.3652251757358,-2.12947986287016,338.488825139114
738239.66153574746567755938,-18.3529160435804,-2.09255246640421,338.427279478337
738239.66153583792038261890,-18.3282977792698,-2.05562506993825,338.501134271269
738239.66153592837508767843,-18.2913703828038,-2.03100680562761,338.501134271269
738239.66153601882979273796,-18.2913703828038,-1.99407940916166,338.427279478337
738239.66153610928449779749,-18.2790612506485,-1.99407940916166,338.476516006958
738239.66153619973920285702,-18.2913703828038,-1.99407940916166,338.513443403424
738239.66153629019390791655,-18.3036795149592,-2.01869767347229,338.451897742648
738239.66153638053219765425,-18.3036795149592,-2.03100680562761,338.476516006958
738239.66153647098690271378,-18.3406069114251,-2.08024333424889,338.451897742648
738239.66153656144160777330,-18.4267708365123,-2.20333465580208,338.427279478337
738239.66153665189631283283,-18.4883164972889,-2.25257118442335,338.390352081871
738239.66153674235101789236,-18.5252438937549,-2.31411684519995,338.402661214026
738239.66153683280572295189,-18.5498621580655,-2.3510442416659,338.427279478337
738239.66153692326042801142,-18.5867895545315,-2.40028077028718,338.402661214026
738239.66153701371513307095,-18.5867895545315,-2.40028077028718,338.402661214026
738239.66153710416983813047,-18.6114078188421,-2.4125899024425,338.267260760318
738239.66153719462454319000,-18.6237169509974,-2.43720816675314,338.34111555325
738239.66153728496283292770,-18.5990986866868,-2.43720816675314,338.451897742648
738239.66153737541753798723,-18.6114078188421,-2.43720816675314,338.427279478337
738239.66153746587224304676,-18.6360260831528,-2.46182643106377,338.427279478337
738239.66153755632694810629,-18.6237169509974,-2.44951729890845,338.439588610492
738239.66153764678165316582,-18.6237169509974,-2.43720816675314,338.464206874803
738239.66153773723635822535,-18.6114078188421,-2.43720816675314,338.501134271269
738239.66153782769106328487,-18.6237169509974,-2.46182643106377,338.488825139114
738239.66153791814576834440,-18.6237169509974,-2.44951729890845,338.402661214026
738239.66153800860047340393,-18.6237169509974,-2.46182643106377,338.501134271269
738239.66153809905517846346,-18.6237169509974,-2.43720816675314,338.476516006958
738239.66153818950988352299,-18.6237169509974,-2.43720816675314,338.414970346182
738239.66153827984817326069,-18.6237169509974,-2.44951729890845,338.464206874803
738239.66153837030287832022,-18.6237169509974,-2.44951729890845,338.402661214026
738239.66153846075758337975,-18.6360260831528,-2.46182643106377,338.378042949716
738239.66153855121228843927,-18.6360260831528,-2.46182643106377,338.36573381756
738239.66153864166699349880,-18.6237169509974,-2.44951729890845,338.378042949716
738239.66153873212169855833,-18.6483352153081,-2.46182643106377,338.390352081871
738239.66153882257640361786,-18.6237169509974,-2.43720816675314,338.378042949716
738239.66153891303110867739,-18.6483352153081,-2.47413556321909,338.427279478337
738239.66153900348581373692,-18.6483352153081,-2.47413556321909,338.451897742648
738239.66153909394051879644,-18.6729534796187,-2.49875382752973,338.488825139114
738239.66153918427880853415,-18.6606443474634,-2.48644469537441,338.488825139114
738239.66153927473351359367,-18.6483352153081,-2.48644469537441,338.451897742648
738239.66153936518821865320,-18.6606443474634,-2.48644469537441,338.513443403424
738239.66153945564292371273,-18.6483352153081,-2.47413556321909,338.525752535579
738239.66153954609762877226,-18.6360260831528,-2.44951729890845,338.513443403424
738239.66153963655233383179,-18.6729534796187,-2.47413556321909,338.464206874803
738239.66153972700703889132,-18.685262611774,-2.49875382752973,338.525752535579
738239.66153981746174395084,-18.6606443474634,-2.48644469537441,338.513443403424
738239.66153990791644901037,-18.6729534796187,-2.48644469537441,338.464206874803
738239.66153999837115406990,-18.6483352153081,-2.46182643106377,338.464206874803
738239.66154008882585912943,-18.6606443474634,-2.48644469537441,338.34111555325
738239.66154017916414886713,-18.7098808760847,-2.52337209184037,338.414970346182
738239.66154026961885392666,-18.685262611774,-2.51106295968505,338.414970346182
738239.66154036007355898619,-18.6729534796187,-2.49875382752973,338.427279478337
738239.66154045052826404572,-18.6483352153081,-2.48644469537441,338.414970346182
738239.66154054098296910524,-18.685262611774,-2.49875382752973,338.439588610492
738239.66154063143767416477,-18.685262611774,-2.49875382752973,338.279569892473
738239.66154072189237922430,-18.6729534796187,-2.49875382752973,338.36573381756
738239.66154081234708428383,-18.6729534796187,-2.51106295968505,338.451897742648
738239.66154090280178934336,-18.6606443474634,-2.51106295968505,338.427279478337
738239.66154099325649440289,-18.6729534796187,-2.51106295968505,338.427279478337
738239.66154108359478414059,-18.6606443474634,-2.48644469537441,338.451897742648
738239.66154117404948920012,-18.6606443474634,-2.49875382752973,338.427279478337
738239.66154126450419425964,-18.6729534796187,-2.51106295968505,338.464206874803
738239.66154135495889931917,-18.6606443474634,-2.48644469537441,338.451897742648
738239.66154144541360437870,-18.6606443474634,-2.51106295968505,338.476516006958
738239.66154153586830943823,-18.6237169509974,-2.48644469537441,338.451897742648
738239.66154162632301449776,-18.6237169509974,-2.48644469537441,338.378042949716
738239.66154171677771955729,-18.5990986866868,-2.47413556321909,338.488825139114
738239.66154180723242461681,-18.5990986866868,-2.43720816675314,338.464206874803
738239.66154189768712967634,-18.6114078188421,-2.42489903459782,338.451897742648
738239.66154198802541941404,-18.6114078188421,-2.4125899024425,338.476516006958
738239.66154207848012447357,-18.6360260831528,-2.43720816675314,338.451897742648
738239.66154216893482953310,-18.6606443474634,-2.46182643106377,338.476516006958
738239.66154225938953459263,-18.6729534796187,-2.48644469537441,338.439588610492
738239.66154234984423965216,-18.685262611774,-2.48644469537441,338.427279478337
738239.66154244029894471169,-18.6975717439294,-2.52337209184037,338.427279478337
738239.66154253075364977121,-18.7098808760847,-2.52337209184037,338.464206874803
738239.66154262120835483074,-18.7098808760847,-2.52337209184037,338.525752535579
738239.66154271166305989027,-18.7098808760847,-2.52337209184037,338.476516006958
738239.66154280211776494980,-18.6975717439294,-2.52337209184037,338.427279478337
738239.66154289257247000933,-18.6975717439294,-2.52337209184037,338.439588610492
738239.66154298291075974703,-18.6975717439294,-2.51106295968505,338.427279478337
738239.66154307336546480656,-18.7344991403953,-2.53568122399569,338.427279478337
738239.66154316382016986609,-18.6729534796187,-2.42489903459782,338.476516006958
738239.66154325427487492561,-18.4021525722017,-2.19102552364676,338.427279478337
738239.66154334472957998514,-17.9713329467655,-1.82175155898719,338.242642496007
738239.66154343518428504467,-17.6266772464166,-1.58787804803613,338.021078117211
738239.66154352563899010420,-17.9220964181443,-2.24026205226803,337.799513738416
738239.66154361609369516373,-18.9560635191911,-3.24961088900418,338.058005513677
738239.66154370654840022326,-19.3991922767825,-3.44655700348928,338.328806421094
738239.66154379700310528278,-19.0791548407442,-3.11421043529567,338.402661214026
738239.66154388734139502048,-18.7837356690166,-2.73262733848079,338.34111555325
738239.66154397779610008001,-18.6975717439294,-2.57260862046164,338.427279478337
738239.66154406825080513954,-18.6729534796187,-2.52337209184037,338.488825139114
738239.66154415870551019907,-18.6729534796187,-2.51106295968505,338.328806421094
738239.66154424916021525860,-18.6606443474634,-2.49875382752973,338.36573381756
738239.66154433961492031813,-18.6606443474634,-2.47413556321909,338.501134271269
738239.66154443006962537766,-18.6606443474634,-2.47413556321909,338.378042949716
738239.66154452052433043718,-18.6360260831528,-2.46182643106377,338.378042949716
738239.66154461097903549671,-18.6360260831528,-2.46182643106377,338.390352081871
738239.66154470143374055624,-18.6360260831528,-2.43720816675314,338.414970346182
738239.66154479188844561577,-18.6237169509974,-2.43720816675314,338.390352081871
738239.66154488222673535347,-18.6114078188421,-2.43720816675314,338.402661214026
738239.66154497268144041300,-18.6114078188421,-2.42489903459782,338.390352081871
738239.66154506313614547253,-18.5990986866868,-2.4125899024425,338.402661214026
738239.66154515359085053205,-18.5867895545315,-2.4125899024425,338.427279478337
738239.66154524404555559158,-18.5744804223762,-2.38797163813186,338.439588610492
738239.66154533450026065111,-18.5744804223762,-2.38797163813186,338.439588610492
738239.66154542495496571064,-18.5621712902209,-2.36335337382122,338.414970346182
738239.66154551540967077017,-18.5375530259102,-2.32642597735527,338.353424685405
738239.66154560586437582970,-18.5129347615996,-2.32642597735527,338.390352081871
738239.66154569631908088923,-18.5252438937549,-2.31411684519995,338.427279478337
738239.66154578665737062693,-18.5129347615996,-2.28949858088931,338.414970346182
738239.66154587711207568645,-18.4883164972889,-2.25257118442335,338.451897742648
738239.66154596756678074598,-18.4636982329783,-2.22795292011272,338.414970346182
738239.66154605802148580551,-18.4390799686677,-2.19102552364676,338.390352081871
738239.66154614847619086504,-18.414461704357,-2.1540981271808,338.378042949716
738239.66154623893089592457,-18.3775343078911,-2.11717073071485,338.353424685405
738239.66154632938560098410,-18.3775343078911,-2.09255246640421,338.34111555325
738239.66154641984030604362,-18.3529160435804,-2.06793420209357,338.390352081871
738239.66154651029501110315,-18.3282977792698,-2.04331593778293,338.414970346182
738239.66154660074971616268,-18.3406069114251,-2.03100680562761,338.402661214026
738239.66154669120442122221,-18.3282977792698,-2.00638854131698,338.439588610492
738239.66154678154271095991,-18.3282977792698,-2.00638854131698,338.464206874803
738239.66154687199741601944,-18.3282977792698,-2.01869767347229,338.476516006958
738239.66154696245212107897,-18.3406069114251,-2.04331593778293,338.390352081871
738239.66154705290682613850,-18.3898434400464,-2.10486159855953,338.488825139114
738239.66154714336153119802,-18.414461704357,-2.1540981271808,338.414970346182
738239.66154723381623625755,-18.4636982329783,-2.22795292011272,338.451897742648
738239.66154732427094131708,-18.5129347615996,-2.27718944873399,338.525752535579
738239.66154741472564637661,-18.5744804223762,-2.36335337382122,338.501134271269
738239.66154750518035143614,-18.6114078188421,-2.4125899024425,338.488825139114
738239.66154759563505649567,-18.6237169509974,-2.42489903459782,338.501134271269
738239.66154768597334623337,-18.6483352153081,-2.43720816675314,338.36573381756
738239.66154777642805129290,-18.6237169509974,-2.43720816675314,338.328806421094
738239.66154786688275635242,-18.6360260831528,-2.46182643106377,338.525752535579
738239.66154795733746141195,-18.6606443474634,-2.47413556321909,338.501134271269
738239.66154804779216647148,-18.6360260831528,-2.44951729890845,338.439588610492
738239.66154813824687153101,-18.6483352153081,-2.47413556321909,338.501134271269
738239.66154822870157659054,-18.6729534796187,-2.48644469537441,338.501134271269
738239.66154831915628165007,-18.6606443474634,-2.47413556321909,338.439588610492
738239.66154840961098670959,-18.6606443474634,-2.47413556321909,338.525752535579
738239.66154850006569176912,-18.6483352153081,-2.47413556321909,338.525752535579
738239.66154859040398150682,-18.6483352153081,-2.46182643106377,338.55037079989
738239.66154868085868656635,-18.6483352153081,-2.46182643106377,338.476516006958
738239.66154877131339162588,-18.6360260831528,-2.48644469537441,338.525752535579
738239.66154886176809668541,-18.6606443474634,-2.47413556321909,338.501134271269
738239.66154895222280174494,-18.6483352153081,-2.46182643106377,338.402661214026
738239.66154904267750680447,-18.6483352153081,-2.47413556321909,338.378042949716
738239.66154913313221186399,-18.6483352153081,-2.47413556321909,338.402661214026
738239.66154922358691692352,-18.6483352153081,-2.47413556321909,338.427279478337
738239.66154931404162198305,-18.6360260831528,-2.46182643106377,338.439588610492
738239.66154940449632704258,-18.6606443474634,-2.49875382752973,338.451897742648
738239.66154949495103210211,-18.6483352153081,-2.48644469537441,338.464206874803
738239.66154958528932183981,-18.6360260831528,-2.47413556321909,338.439588610492
738239.66154967574402689934,-18.6483352153081,-2.49875382752973,338.439588610492
738239.66154976619873195887,-18.6729534796187,-2.49875382752973,338.488825139114
738239.66154985665343701839,-18.6237169509974,-2.47413556321909,338.464206874803
738239.66154994710814207792,-18.6483352153081,-2.49875382752973,338.538061667735
738239.66155003756284713745,-18.6606443474634,-2.52337209184037,338.513443403424
738239.66155012801755219698,-18.6606443474634,-2.51106295968505,338.402661214026
738239.66155021847225725651,-18.6606443474634,-2.52337209184037,338.451897742648
738239.66155030892696231604,-18.6483352153081,-2.51106295968505,338.464206874803
738239.66155039938166737556,-18.6360260831528,-2.48644469537441,338.562679932045
738239.66155048971995711327,-18.6237169509974,-2.47413556321909,338.525752535579
738239.66155058017466217279,-18.6483352153081,-2.52337209184037,338.525752535579
738239.66155067062936723232,-18.6360260831528,-2.52337209184037,338.525752535579
738239.66155076108407229185,-18.6360260831528,-2.51106295968505,338.476516006958
738239.66155085153877735138,-18.6237169509974,-2.52337209184037,338.414970346182
738239.66155094199348241091,-18.6360260831528,-2.49875382752973,338.427279478337
738239.66155103244818747044,-18.6237169509974,-2.51106295968505,338.414970346182
738239.66155112290289252996,-18.6114078188421,-2.49875382752973,338.414970346182
738239.66155121335759758949,-18.5990986866868,-2.49875382752973,338.34111555325
738239.66155130381230264902,-18.5990986866868,-2.48644469537441,338.279569892473
738239.66155139426700770855,-18.6114078188421,-2.49875382752973,338.36573381756
738239.66155148460529744625,-18.6114078188421,-2.51106295968505,338.427279478337
738239.66155157506000250578,-18.6114078188421,-2.51106295968505,338.488825139114
738239.66155166551470756531,-18.6114078188421,-2.51106295968505,338.439588610492
738239.66155175596941262484,-18.6114078188421,-2.51106295968505,338.513443403424
738239.66155184642411768436,-18.6114078188421,-2.49875382752973,338.562679932045
738239.66155193687882274389,-18.5990986866868,-2.49875382752973,338.525752535579
738239.66155202733352780342,-18.5990986866868,-2.52337209184037,338.538061667735
738239.66155211778823286295,-18.5990986866868,-2.51106295968505,338.55037079989
738239.66155220824293792248,-18.5990986866868,-2.51106295968505,338.538061667735
738239.66155229869764298201,-18.5990986866868,-2.49875382752973,338.538061667735
738239.66155238903593271971,-18.5990986866868,-2.49875382752973,338.513443403424
738239.66155247949063777924,-18.5990986866868,-2.51106295968505,338.574989064201
738239.66155256994534283876,-18.5867895545315,-2.48644469537441,338.525752535579
738239.66155266040004789829,-18.5621712902209,-2.49875382752973,338.476516006958
738239.66155275085475295782,-18.5744804223762,-2.49875382752973,338.525752535579
738239.66155284130945801735,-18.5744804223762,-2.48644469537441,338.501134271269
738239.66155293176416307688,-18.5498621580655,-2.47413556321909,338.464206874803
738239.66155302221886813641,-18.5252438937549,-2.44951729890845,338.513443403424
738239.66155311267357319593,-18.5252438937549,-2.43720816675314,338.562679932045
738239.66155320312827825546,-18.5252438937549,-2.42489903459782,338.501134271269
738239.66155329346656799316,-18.5744804223762,-2.44951729890845,338.525752535579
738239.66155338392127305269,-18.5744804223762,-2.43720816675314,338.451897742648
738239.66155347437597811222,-18.5744804223762,-2.44951729890845,338.451897742648
738239.66155356483068317175,-18.6114078188421,-2.49875382752973,338.488825139114
738239.66155365528538823128,-18.6237169509974,-2.51106295968505,338.501134271269
738239.66155374574009329081,-18.6237169509974,-2.53568122399569,338.476516006958
738239.66155383619479835033,-18.6360260831528,-2.53568122399569,338.451897742648
738239.66155392664950340986,-18.6360260831528,-2.52337209184037,338.525752535579
738239.66155401710420846939,-18.6237169509974,-2.52337209184037,338.464206874803
738239.66155410755891352892,-18.6114078188421,-2.52337209184037,338.451897742648
738239.66155419801361858845,-18.6114078188421,-2.52337209184037,338.464206874803
738239.66155428835190832615,-18.6360260831528,-2.49875382752973,338.513443403424
738239.66155437880661338568,-18.5867895545315,-2.40028077028718,338.611916460667
738239.66155446926131844521,-18.3652251757358,-2.2156437879574,338.464206874803
738239.66155455971602350473,-17.9590238146102,-1.85867895545315,338.304188156784
738239.66155465017072856426,-17.56513158564,-1.62480544450209,337.97184158859
738239.66155474062543362379,-17.8113142287464,-2.30180771304463,337.664113284707
738239.66155483108013868332,-18.759117404706,-3.24961088900418,337.737968077639
738239.66155492153484374285,-19.2514826909187,-3.43424787133396,338.181096835231
738239.66155501198954880238,-19.0176091799676,-3.11421043529567,338.254951628162
738239.66155510244425386190,-18.685262611774,-2.72031820632547,338.304188156784
738239.66155519278254359961,-18.5867895545315,-2.56029948830632,338.34111555325
738239.66155528323724865913,-18.5867895545315,-2.52337209184037,338.378042949716
738239.66155537369195371866,-18.5744804223762,-2.49875382752973,338.439588610492
738239.66155546414665877819,-18.5744804223762,-2.48644469537441,338.427279478337
738239.66155555460136383772,-18.5621712902209,-2.47413556321909,338.427279478337
738239.66155564505606889725,-18.5498621580655,-2.47413556321909,338.464206874803
738239.66155573551077395678,-18.5498621580655,-2.46182643106377,338.513443403424
738239.66155582596547901630,-18.5498621580655,-2.46182643106377,338.488825139114
738239.66155591642018407583,-18.5498621580655,-2.46182643106377,338.464206874803
738239.66155600687488913536,-18.5252438937549,-2.43720816675314,338.501134271269
738239.66155609732959419489,-18.5375530259102,-2.43720816675314,338.538061667735
738239.66155618766788393259,-18.5252438937549,-2.42489903459782,338.513443403424
738239.66155627812258899212,-18.5129347615996,-2.4125899024425,338.501134271269
738239.66155636857729405165,-18.4883164972889,-2.38797163813186,338.538061667735
738239.66155645903199911118,-18.4883164972889,-2.37566250597654,338.513443403424
738239.66155654948670417070,-18.4883164972889,-2.37566250597654,338.513443403424
738239.66155663994140923023,-18.4760073651336,-2.36335337382122,338.525752535579
738239.66155673039611428976,-18.451389100823,-2.33873510951058,338.513443403424
738239.66155682085081934929,-18.4390799686677,-2.31411684519995,338.439588610492
738239.66155691130552440882,-18.4390799686677,-2.30180771304463,338.525752535579
738239.66155700176022946835,-18.414461704357,-2.27718944873399,338.513443403424
738239.66155709209851920605,-18.3898434400464,-2.25257118442335,338.464206874803
738239.66155718255322426558,-18.3775343078911,-2.22795292011272,338.513443403424
738239.66155727300792932510,-18.3652251757358,-2.20333465580208,338.525752535579
738239.66155736346263438463,-18.3159886471145,-2.1540981271808,338.525752535579
738239.66155745391733944416,-18.2913703828038,-2.11717073071485,338.501134271269
738239.66155754437204450369,-18.2913703828038,-2.10486159855953,338.390352081871
738239.66155763482674956322,-18.2667521184932,-2.06793420209357,338.390352081871
738239.66155772528145462275,-18.2544429863379,-2.05562506993825,338.439588610492
738239.66155781573615968227,-18.2421338541826,-2.03100680562761,338.476516006958
738239.66155790619086474180,-18.2298247220272,-2.00638854131698,338.488825139114
738239.66155799664556980133,-18.2298247220272,-2.00638854131698,338.488825139114
738239.66155808698385953903,-18.2298247220272,-2.01869767347229,338.55037079989
738239.66155817743856459856,-18.2421338541826,-2.04331593778293,338.439588610492
738239.66155826789326965809,-18.2790612506485,-2.09255246640421,338.328806421094
738239.66155835834797471762,-18.3036795149592,-2.1540981271808,338.304188156784
738239.66155844880267977715,-18.3775343078911,-2.24026205226803,338.451897742648
738239.66155853925738483667,-18.414461704357,-2.30180771304463,338.439588610492
738239.66155862971208989620,-18.451389100823,-2.36335337382122,338.525752535579
738239.66155872016679495573,-18.4760073651336,-2.36335337382122,338.427279478337
738239.66155881062150001526,-18.5006256294443,-2.4125899024425,338.427279478337
738239.66155890107620507479,-18.5252438937549,-2.43720816675314,338.427279478337
738239.66155899141449481249,-18.5498621580655,-2.46182643106377,338.439588610492
738239.66155908186919987202,-18.5498621580655,-2.44951729890845,338.464206874803
738239.66155917232390493155,-18.5498621580655,-2.46182643106377,338.476516006958
738239.66155926277860999107,-18.5498621580655,-2.46182643106377,338.464206874803
738239.66155935323331505060,-18.5498621580655,-2.46182643106377,338.464206874803
738239.66155944368802011013,-18.5621712902209,-2.46182643106377,338.464206874803
738239.66155953414272516966,-18.5498621580655,-2.46182643106377,338.476516006958
738239.66155962459743022919,-18.5621712902209,-2.46182643106377,338.488825139114
738239.66155971505213528872,-18.5498621580655,-2.44951729890845,338.55037079989
738239.66155980550684034824,-18.5375530259102,-2.43720816675314,338.501134271269
738239.66155989584513008595,-18.5498621580655,-2.44951729890845,338.488825139114
738239.66155998629983514547,-18.5498621580655,-2.44951729890845,338.488825139114
738239.66156007675454020500,-18.5621712902209,-2.44951729890845,338.525752535579
738239.66156016720924526453,-18.5498621580655,-2.44951729890845,338.513443403424
738239.66156025766395032406,-18.5621712902209,-2.44951729890845,338.439588610492
738239.66156034811865538359,-18.5498621580655,-2.44951729890845,338.501134271269
738239.66156043857336044312,-18.5744804223762,-2.46182643106377,338.501134271269
738239.66156052902806550264,-18.5621712902209,-2.46182643106377,338.464206874803
738239.66156061948277056217,-18.5990986866868,-2.47413556321909,338.525752535579
738239.66156070993747562170,-18.5744804223762,-2.44951729890845,338.525752535579
738239.66156080039218068123,-18.5990986866868,-2.47413556321909,338.501134271269
738239.66156089073047041893,-18.5990986866868,-2.48644469537441,338.488825139114
738239.66156098118517547846,-18.5867895545315,-2.48644469537441,338.513443403424
738239.66156107163988053799,-18.5990986866868,-2.48644469537441,338.525752535579
738239.66156116209458559752,-18.6114078188421,-2.49875382752973,338.476516006958
738239.66156125254929065704,-18.5990986866868,-2.47413556321909,338.488825139114
738239.66156134300399571657,-18.6114078188421,-2.51106295968505,338.501134271269
738239.66156143345870077610,-18.6114078188421,-2.49875382752973,338.402661214026
738239.66156152391340583563,-18.6237169509974,-2.49875382752973,338.488825139114
738239.66156161436811089516,-18.6237169509974,-2.49875382752973,338.501134271269
738239.66156170482281595469,-18.6114078188421,-2.48644469537441,338.402661214026
738239.66156179516110569239,-18.6114078188421,-2.48644469537441,338.390352081871
738239.66156188561581075191,-18.6114078188421,-2.47413556321909,338.279569892473
738239.66156197607051581144,-18.6114078188421,-2.49875382752973,338.414970346182
738239.66156206652522087097,-18.6237169509974,-2.49875382752973,338.464206874803
738239.66156215697992593050,-18.6360260831528,-2.49875382752973,338.488825139114
738239.66156224743463099003,-18.6237169509974,-2.48644469537441,338.464206874803
738239.66156233788933604956,-18.6237169509974,-2.48644469537441,338.488825139114
738239.66156242834404110909,-18.6483352153081,-2.48644469537441,338.414970346182
738239.66156251879874616861,-18.6360260831528,-2.48644469537441,338.476516006958
738239.66156260925345122814,-18.6360260831528,-2.48644469537441,338.427279478337
738239.66156269970815628767,-18.6360260831528,-2.49875382752973,338.402661214026
738239.66156279004644602537,-18.6360260831528,-2.48644469537441,338.427279478337
738239.66156288050115108490,-18.6237169509974,-2.47413556321909,338.427279478337
738239.66156297095585614443,-18.6360260831528,-2.49875382752973,338.451897742648
738239.66156306141056120396,-18.6483352153081,-2.48644469537441,338.439588610492
738239.66156315186526626348,-18.6483352153081,-2.48644469537441,338.464206874803
738239.66156324231997132301,-18.6360260831528,-2.48644469537441,338.476516006958
738239.66156333277467638254,-18.6360260831528,-2.49875382752973,338.464206874803
738239.66156342322938144207,-18.6606443474634,-2.49875382752973,338.427279478337
738239.66156351368408650160,-18.6606443474634,-2.48644469537441,338.427279478337
738239.66156360413879156113,-18.6606443474634,-2.48644469537441,338.402661214026
738239.66156369447708129883,-18.6360260831528,-2.49875382752973,338.476516006958
738239.66156378493178635836,-18.6606443474634,-2.48644469537441,338.501134271269
738239.66156387538649141788,-18.6483352153081,-2.49875382752973,338.488825139114
738239.66156396584119647741,-18.6237169509974,-2.48644469537441,338.36573381756
738239.66156405629590153694,-18.6237169509974,-2.48644469537441,338.414970346182
738239.66156414675060659647,-18.6114078188421,-2.47413556321909,338.451897742648
738239.66156423720531165600,-18.5744804223762,-2.44951729890845,338.439588610492
738239.66156432766001671553,-18.5744804223762,-2.42489903459782,338.525752535579
738239.66156441811472177505,-18.5867895545315,-2.4125899024425,338.501134271269
738239.66156450856942683458,-18.5990986866868,-2.4125899024425,338.439588610492
738239.66156459902413189411,-18.6237169509974,-2.43720816675314,338.525752535579
738239.66156468936242163181,-18.6483352153081,-2.47413556321909,338.538061667735
738239.66156477981712669134,-18.6483352153081,-2.48644469537441,338.427279478337
738239.66156487027183175087,-18.6606443474634,-2.51106295968505,338.427279478337
738239.66156496072653681040,-18.6729534796187,-2.53568122399569,338.427279478337
738239.66156505118124186993,-18.6729534796187,-2.53568122399569,338.414970346182
738239.66156514163594692945,-18.6729534796187,-2.52337209184037,338.439588610492
738239.66156523209065198898,-18.6729534796187,-2.52337209184037,338.501134271269
738239.66156532254535704851,-18.6606443474634,-2.51106295968505,338.464206874803
738239.66156541300006210804,-18.6606443474634,-2.51106295968505,338.353424685405
738239.66156550345476716757,-18.6606443474634,-2.51106295968505,338.501134271269
738239.66156559379305690527,-18.6729534796187,-2.44951729890845,338.562679932045
738239.66156568424776196480,-18.4883164972889,-2.28949858088931,338.55037079989
738239.66156577470246702433,-18.1067334004741,-1.93253374838506,338.451897742648
738239.66156586515717208385,-17.7128411715039,-1.698660237434,338.131860306609
738239.66156595561187714338,-17.6882229071932,-2.08024333424889,337.873368531348
738239.66156604606658220291,-18.5744804223762,-3.04035564236376,337.97184158859
738239.66156613652128726244,-19.263791823074,-3.50810266426588,338.230333363852
738239.66156622697599232197,-19.1776278979868,-3.24961088900418,338.390352081871
738239.66156631743069738150,-18.7837356690166,-2.83110039572334,338.36573381756
738239.66156640788540244102,-18.6483352153081,-2.59722688477228,338.353424685405
738239.66156649822369217873,-18.6114078188421,-2.52337209184037,338.402661214026
738239.66156658867839723825,-18.6237169509974,-2.51106295968505,338.451897742648
738239.66156667913310229778,-18.6114078188421,-2.49875382752973,338.451897742648
738239.66156676958780735731,-18.5990986866868,-2.47413556321909,338.476516006958
738239.66156686004251241684,-18.5990986866868,-2.47413556321909,338.439588610492
738239.66156695049721747637,-18.5867895545315,-2.44951729890845,338.464206874803
738239.66156704095192253590,-18.5744804223762,-2.44951729890845,338.476516006958
738239.66156713140662759542,-18.5744804223762,-2.44951729890845,338.476516006958
738239.66156722186133265495,-18.5744804223762,-2.43720816675314,338.451897742648
738239.66156731231603771448,-18.5621712902209,-2.4125899024425,338.513443403424
738239.66156740277074277401,-18.5498621580655,-2.40028077028718,338.451897742648
738239.66156749310903251171,-18.5498621580655,-2.40028077028718,338.427279478337
738239.66156758356373757124,-18.5498621580655,-2.38797163813186,338.451897742648
738239.66156767401844263077,-18.5129347615996,-2.37566250597654,338.464206874803
738239.66156776447314769030,-18.5129347615996,-2.37566250597654,338.476516006958
738239.66156785492785274982,-18.5006256294443,-2.36335337382122,338.451897742648
738239.66156794538255780935,-18.4883164972889,-2.33873510951058,338.488825139114
738239.66156803583726286888,-18.4760073651336,-2.31411684519995,338.451897742648
738239.66156812629196792841,-18.4636982329783,-2.30180771304463,338.513443403424
738239.66156821674667298794,-18.451389100823,-2.27718944873399,338.513443403424
738239.66156830720137804747,-18.4390799686677,-2.24026205226803,338.488825139114
738239.66156839753966778517,-18.414461704357,-2.22795292011272,338.414970346182
738239.66156848799437284470,-18.4021525722017,-2.20333465580208,338.501134271269
738239.66156857844907790422,-18.3652251757358,-2.17871639149144,338.538061667735
738239.66156866890378296375,-18.3775343078911,-2.12947986287016,338.464206874803
738239.66156875935848802328,-18.3406069114251,-2.10486159855953,338.488825139114
738239.66156884981319308281,-18.3159886471145,-2.04331593778293,338.316497288939
738239.66156894026789814234,-18.3036795149592,-2.04331593778293,338.439588610492
738239.66156903072260320187,-18.2913703828038,-2.01869767347229,338.488825139114
738239.66156912117730826139,-18.2790612506485,-2.01869767347229,338.451897742648
738239.66156921163201332092,-18.2667521184932,-2.00638854131698,338.525752535579
738239.66156930208671838045,-18.2790612506485,-2.00638854131698,338.488825139114
738239.66156939242500811815,-18.3036795149592,-2.04331593778293,338.525752535579
738239.66156948287971317768,-18.3159886471145,-2.08024333424889,338.451897742648
738239.66156957333441823721,-18.3529160435804,-2.14178899502548,338.36573381756
738239.66156966378912329674,-18.4021525722017,-2.19102552364676,338.427279478337
738239.66156975424382835627,-18.451389100823,-2.26488031657867,338.427279478337
738239.66156984469853341579,-18.4883164972889,-2.31411684519995,338.451897742648
738239.66156993515323847532,-18.5252438937549,-2.3510442416659,338.378042949716
738239.66157002560794353485,-18.5498621580655,-2.38797163813186,338.378042949716
738239.66157011606264859438,-18.5621712902209,-2.4125899024425,338.390352081871
738239.66157020651735365391,-18.5867895545315,-2.42489903459782,338.402661214026
738239.66157029685564339161,-18.5867895545315,-2.43720816675314,338.378042949716
738239.66157038731034845114,-18.5990986866868,-2.44951729890845,338.390352081871
738239.66157047776505351067,-18.5990986866868,-2.44951729890845,338.439588610492
738239.66157056821975857019,-18.5990986866868,-2.44951729890845,338.464206874803
738239.66157065867446362972,-18.5990986866868,-2.44951729890845,338.464206874803
738239.66157074912916868925,-18.5990986866868,-2.44951729890845,338.488825139114
738239.66157083958387374878,-18.5990986866868,-2.43720816675314,338.501134271269
738239.66157093003857880831,-18.5867895545315,-2.43720816675314,338.501134271269
738239.66157102049328386784,-18.5990986866868,-2.44951729890845,338.439588610492
738239.66157111094798892736,-18.5867895545315,-2.42489903459782,338.488825139114
738239.66157120140269398689,-18.5990986866868,-2.43720816675314,338.488825139114
738239.66157129174098372459,-18.5990986866868,-2.43720816675314,338.464206874803
738239.66157138219568878412,-18.5990986866868,-2.44951729890845,338.439588610492
738239.66157147265039384365,-18.5990986866868,-2.46182643106377,338.476516006958
738239.66157156310509890318,-18.6114078188421,-2.44951729890845,338.476516006958
738239.66157165355980396271,-18.5990986866868,-2.44951729890845,338.513443403424
738239.66157174401450902224,-18.6114078188421,-2.44951729890845,338.501134271269
738239.66157183446921408176,-18.6114078188421,-2.46182643106377,338.451897742648
738239.66157192492391914129,-18.6114078188421,-2.46182643106377,338.414970346182
738239.66157201537862420082,-18.6237169509974,-2.44951729890845,338.476516006958
738239.66157210583332926035,-18.6237169509974,-2.46182643106377,338.476516006958
738239.66157219617161899805,-18.6114078188421,-2.46182643106377,338.501134271269
738239.66157228662632405758,-18.6237169509974,-2.47413556321909,338.501134271269
738239.66157237708102911711,-18.6360260831528,-2.46182643106377,338.230333363852
738239.66157246753573417664,-18.6237169509974,-2.48644469537441,338.390352081871
738239.66157255799043923616,-18.6360260831528,-2.47413556321909,338.464206874803
738239.66157264844514429569,-18.6237169509974,-2.47413556321909,338.513443403424
738239.66157273889984935522,-18.6237169509974,-2.48644469537441,338.525752535579
738239.66157282935455441475,-18.6237169509974,-2.47413556321909,338.488825139114
738239.66157291980925947428,-18.6237169509974,-2.47413556321909,338.476516006958
738239.66157301026396453381,-18.6360260831528,-2.48644469537441,338.439588610492
738239.66157310060225427151,-18.6360260831528,-2.48644469537441,338.427279478337
738239.66157319105695933104,-18.6360260831528,-2.47413556321909,338.402661214026
738239.66157328151166439056,-18.6360260831528,-2.48644469537441,338.427279478337
738239.66157337196636945009,-18.6237169509974,-2.47413556321909,338.414970346182
738239.66157346242107450962,-18.6360260831528,-2.48644469537441,338.402661214026
738239.66157355287577956915,-18.6360260831528,-2.48644469537441,338.513443403424
738239.66157364333048462868,-18.6360260831528,-2.48644469537441,338.513443403424
738239.66157373378518968821,-18.6360260831528,-2.48644469537441,338.464206874803
738239.66157382423989474773,-18.6360260831528,-2.48644469537441,338.538061667735
738239.66157391469459980726,-18.6360260831528,-2.48644469537441,338.55037079989
738239.66157400514930486679,-18.6360260831528,-2.49875382752973,338.525752535579
738239.66157409548759460449,-18.6483352153081,-2.49875382752973,338.488825139114
738239.66157418594229966402,-18.6606443474634,-2.48644469537441,338.525752535579
738239.66157427639700472355,-18.6237169509974,-2.46182643106377,338.513443403424
738239.66157436685170978308,-18.6606443474634,-2.51106295968505,338.525752535579
738239.66157445730641484261,-18.6483352153081,-2.49875382752973,338.525752535579
738239.66157454776111990213,-18.6483352153081,-2.49875382752973,338.525752535579
738239.66157463821582496166,-18.6606443474634,-2.49875382752973,338.562679932045
738239.66157472867053002119,-18.6606443474634,-2.49875382752973,338.476516006958
738239.66157481912523508072,-18.6483352153081,-2.49875382752973,338.513443403424
738239.66157490957994014025,-18.6237169509974,-2.47413556321909,338.476516006958
738239.66157499991822987795,-18.6606443474634,-2.51106295968505,338.414970346182
738239.66157509037293493748,-18.6483352153081,-2.48644469537441,338.464206874803
738239.66157518082763999701,-18.6606443474634,-2.49875382752973,338.501134271269
738239.66157527128234505653,-18.6360260831528,-2.49875382752973,338.439588610492
738239.66157536173705011606,-18.6237169509974,-2.48644469537441,338.414970346182
738239.66157545219175517559,-18.6237169509974,-2.49875382752973,338.451897742648
738239.66157554264646023512,-18.5990986866868,-2.46182643106377,338.439588610492
738239.66157563310116529465,-18.5867895545315,-2.43720816675314,338.439588610492
738239.66157572355587035418,-18.5744804223762,-2.4125899024425,338.427279478337
738239.66157581401057541370,-18.5990986866868,-2.42489903459782,338.488825139114
738239.66157590446528047323,-18.6360260831528,-2.42489903459782,338.34111555325
738239.66157599480357021093,-18.6360260831528,-2.43720816675314,338.390352081871
738239.66157608525827527046,-18.6606443474634,-2.48644469537441,338.513443403424
738239.66157617571298032999,-18.6729534796187,-2.48644469537441,338.513443403424
738239.66157626616768538952,-18.685262611774,-2.51106295968505,338.501134271269
738239.66157635662239044905,-18.6975717439294,-2.53568122399569,338.464206874803
738239.66157644707709550858,-18.685262611774,-2.52337209184037,338.538061667735
738239.66157653753180056810,-18.685262611774,-2.52337209184037,338.501134271269
738239.66157662798650562763,-18.6729534796187,-2.52337209184037,338.476516006958
738239.66157671844121068716,-18.6975717439294,-2.53568122399569,338.488825139114
738239.66157680889591574669,-18.6729534796187,-2.51106295968505,338.402661214026
738239.66157689923420548439,-18.6975717439294,-2.52337209184037,338.451897742648
738239.66157698968891054392,-18.6975717439294,-2.43720816675314,338.538061667735
738239.66157708014361560345,-18.4760073651336,-2.25257118442335,338.574989064201
738239.66157717059832066298,-18.0698060040081,-1.90791548407442,338.390352081871
738239.66157726105302572250,-17.6882229071932,-1.66173284096805,338.045696381522
738239.66157735150773078203,-17.8482416252124,-2.25257118442335,337.799513738416
738239.66157744196243584156,-18.8083539333272,-3.24961088900418,337.984150720745
738239.66157753241714090109,-19.3499557481613,-3.48348439995524,338.230333363852
738239.66157762287184596062,-19.1530096336762,-3.17575609607227,338.267260760318
738239.66157771332655102015,-18.7960448011719,-2.76955473494675,338.279569892473
738239.66157780366484075785,-18.6729534796187,-2.58491775261696,338.34111555325
738239.66157789411954581738,-18.6483352153081,-2.52337209184037,338.34111555325
738239.66157798457425087690,-18.6606443474634,-2.51106295968505,338.451897742648
738239.66157807502895593643,-18.6360260831528,-2.48644469537441,338.476516006958
738239.66157816548366099596,-18.6483352153081,-2.49875382752973,338.451897742648
738239.66157825593836605549,-18.6360260831528,-2.47413556321909,338.488825139114
738239.66157834639307111502,-18.6237169509974,-2.46182643106377,338.525752535579
738239.66157843684777617455,-18.6360260831528,-2.47413556321909,338.476516006958
738239.66157852730248123407,-18.6114078188421,-2.43720816675314,338.476516006958
738239.66157861775718629360,-18.6114078188421,-2.43720816675314,338.488825139114
738239.66157870821189135313,-18.6114078188421,-2.42489903459782,338.501134271269
738239.66157879855018109083,-18.6114078188421,-2.42489903459782,338.451897742648
738239.66157888900488615036,-18.5990986866868,-2.40028077028718,338.414970346182
738239.66157897945959120989,-18.5744804223762,-2.40028077028718,338.427279478337
738239.66157906991429626942,-18.5744804223762,-2.38797163813186,338.439588610492
738239.66157916036900132895,-18.5621712902209,-2.36335337382122,338.402661214026
738239.66157925082370638847,-18.5498621580655,-2.3510442416659,338.414970346182
738239.66157934127841144800,-18.5375530259102,-2.33873510951058,338.427279478337
738239.66157943173311650753,-18.5252438937549,-2.30180771304463,338.279569892473
738239.66157952218782156706,-18.5129347615996,-2.30180771304463,338.291879024628
738239.66157961264252662659,-18.4883164972889,-2.27718944873399,338.390352081871
738239.66157970298081636429,-18.4883164972889,-2.26488031657867,338.414970346182
738239.66157979343552142382,-18.4636982329783,-2.2156437879574,338.451897742648
738239.66157988389022648335,-18.4390799686677,-2.20333465580208,338.476516006958
738239.66157997434493154287,-18.4267708365123,-2.16640725933612,338.501134271269
738239.66158006479963660240,-18.4021525722017,-2.12947986287016,338.488825139114
738239.66158015525434166193,-18.3652251757358,-2.09255246640421,338.451897742648
738239.66158024570904672146,-18.3652251757358,-2.08024333424889,338.476516006958
738239.66158033616375178099,-18.3529160435804,-2.05562506993825,338.464206874803
738239.66158042661845684052,-18.3406069114251,-2.03100680562761,338.439588610492
738239.66158051707316190004,-18.3036795149592,-1.99407940916166,338.390352081871
738239.66158060752786695957,-18.3159886471145,-2.01869767347229,338.439588610492
738239.66158069786615669727,-18.3159886471145,-2.00638854131698,338.427279478337
738239.66158078832086175680,-18.3036795149592,-2.00638854131698,338.451897742648
738239.66158087877556681633,-18.3652251757358,-2.06793420209357,338.451897742648
738239.66158096923027187586,-18.3898434400464,-2.12947986287016,338.427279478337
738239.66158105968497693539,-18.4390799686677,-2.20333465580208,338.390352081871
738239.66158115013968199492,-18.4883164972889,-2.25257118442335,338.451897742648
738239.66158124059438705444,-18.5375530259102,-2.32642597735527,338.488825139114
738239.66158133104909211397,-18.5621712902209,-2.36335337382122,338.488825139114
738239.66158142150379717350,-18.5744804223762,-2.40028077028718,338.464206874803
738239.66158151195850223303,-18.5867895545315,-2.40028077028718,338.451897742648
738239.66158160229679197073,-18.6483352153081,-2.46182643106377,338.414970346182
738239.66158169275149703026,-18.6237169509974,-2.43720816675314,338.390352081871
738239.66158178320620208979,-18.6114078188421,-2.42489903459782,338.402661214026
738239.66158187366090714931,-18.6483352153081,-2.46182643106377,338.402661214026
738239.66158196411561220884,-18.6483352153081,-2.46182643106377,338.451897742648
738239.66158205457031726837,-18.5990986866868,-2.42489903459782,338.439588610492
738239.66158214502502232790,-18.5990986866868,-2.42489903459782,338.488825139114
738239.66158223547972738743,-18.6483352153081,-2.47413556321909,338.501134271269
738239.66158232593443244696,-18.5990986866868,-2.4125899024425,338.501134271269
738239.66158241638913750648,-18.6483352153081,-2.47413556321909,338.464206874803
738239.66158250684384256601,-18.6360260831528,-2.47413556321909,338.501134271269
738239.66158259718213230371,-18.6360260831528,-2.46182643106377,338.538061667735
738239.66158268763683736324,-18.6237169509974,-2.44951729890845,338.402661214026
738239.66158277809154242277,-18.6360260831528,-2.44951729890845,338.414970346182
738239.66158286854624748230,-18.6237169509974,-2.44951729890845,338.36573381756
738239.66158295900095254183,-18.6360260831528,-2.44951729890845,338.291879024628
738239.66158304945565760136,-18.5744804223762,-2.40028077028718,338.328806421094
738239.66158313991036266088,-18.6606443474634,-2.48644469537441,338.427279478337
738239.66158323036506772041,-18.6606443474634,-2.44951729890845,338.427279478337
738239.66158332081977277994,-18.6483352153081,-2.44951729890845,338.439588610492
738239.66158341127447783947,-18.6483352153081,-2.44951729890845,338.439588610492
738239.66158350161276757717,-18.6483352153081,-2.46182643106377,338.439588610492
738239.66158359206747263670,-18.6360260831528,-2.46182643106377,338.439588610492
738239.66158368252217769623,-18.6483352153081,-2.46182643106377,338.464206874803
738239.66158377297688275576,-18.6483352153081,-2.46182643106377,338.488825139114
738239.66158386343158781528,-18.6483352153081,-2.46182643106377,338.476516006958
738239.66158395388629287481,-18.6483352153081,-2.44951729890845,338.427279478337
738239.66158404434099793434,-18.6606443474634,-2.47413556321909,338.476516006958
738239.66158413479570299387,-18.6606443474634,-2.48644469537441,338.476516006958
738239.66158422525040805340,-18.6729534796187,-2.48644469537441,338.414970346182
738239.66158431570511311293,-18.6729534796187,-2.48644469537441,338.439588610492
738239.66158440604340285063,-18.685262611774,-2.49875382752973,338.427279478337
738239.66158449649810791016,-18.6729534796187,-2.48644469537441,338.427279478337
738239.66158458695281296968,-18.6729534796187,-2.47413556321909,338.464206874803
738239.66158467740751802921,-18.6975717439294,-2.51106295968505,338.451897742648
738239.66158476786222308874,-18.685262611774,-2.49875382752973,338.402661214026
738239.66158485831692814827,-18.685262611774,-2.49875382752973,338.378042949716
738239.66158494877163320780,-18.7098808760847,-2.52337209184037,338.328806421094
738239.66158503922633826733,-18.7098808760847,-2.51106295968505,338.378042949716
738239.66158512968104332685,-18.7098808760847,-2.51106295968505,338.34111555325
738239.66158522013574838638,-18.7098808760847,-2.51106295968505,338.353424685405
738239.66158531059045344591,-18.7098808760847,-2.49875382752973,338.390352081871
738239.66158540092874318361,-18.7098808760847,-2.51106295968505,338.402661214026
738239.66158549138344824314,-18.72219000824,-2.51106295968505,338.414970346182
738239.66158558183815330267,-18.7098808760847,-2.51106295968505,338.488825139114
738239.66158567229285836220,-18.7098808760847,-2.49875382752973,338.476516006958
738239.66158576274756342173,-18.7344991403953,-2.52337209184037,338.501134271269
738239.66158585320226848125,-18.7344991403953,-2.52337209184037,338.451897742648
738239.66158594365697354078,-18.7344991403953,-2.49875382752973,338.501134271269
738239.66158603411167860031,-18.7344991403953,-2.51106295968505,338.488825139114
738239.66158612456638365984,-18.7344991403953,-2.49875382752973,338.464206874803
738239.66158621502108871937,-18.7344991403953,-2.49875382752973,338.501134271269
738239.66158630535937845707,-18.7344991403953,-2.49875382752973,338.501134271269
738239.66158639581408351660,-18.72219000824,-2.49875382752973,338.414970346182
738239.66158648626878857613,-18.72219000824,-2.49875382752973,338.34111555325
738239.66158657672349363565,-18.7098808760847,-2.49875382752973,338.34111555325
738239.66158666717819869518,-18.6975717439294,-2.48644469537441,338.427279478337
738239.66158675763290375471,-18.7098808760847,-2.48644469537441,338.451897742648
738239.66158684808760881424,-18.6975717439294,-2.46182643106377,338.378042949716
738239.66158693854231387377,-18.6729534796187,-2.43720816675314,338.390352081871
738239.66158702899701893330,-18.6360260831528,-2.40028077028718,338.414970346182
738239.66158711945172399282,-18.6729534796187,-2.42489903459782,338.390352081871
738239.66158720990642905235,-18.685262611774,-2.42489903459782,338.414970346182
738239.66158730024471879005,-18.6975717439294,-2.43720816675314,338.427279478337
738239.66158739069942384958,-18.72219000824,-2.47413556321909,338.451897742648
738239.66158748115412890911,-18.7344991403953,-2.48644469537441,338.488825139114
738239.66158757160883396864,-18.759117404706,-2.49875382752973,338.501134271269
738239.66158766206353902817,-18.759117404706,-2.51106295968505,338.451897742648
738239.66158775251824408770,-18.759117404706,-2.53568122399569,338.464206874803
738239.66158784297294914722,-18.759117404706,-2.52337209184037,338.476516006958
738239.66158793342765420675,-18.759117404706,-2.53568122399569,338.427279478337
738239.66158802388235926628,-18.7714265368613,-2.53568122399569,338.427279478337
738239.66158811433706432581,-18.759117404706,-2.52337209184037,338.390352081871
738239.66158820467535406351,-18.759117404706,-2.52337209184037,338.464206874803
738239.66158829513005912304,-18.7837356690166,-2.51106295968505,338.488825139114
738239.66158838558476418257,-18.6606443474634,-2.38797163813186,338.501134271269
738239.66158847603946924210,-18.2913703828038,-2.00638854131698,338.451897742648
738239.66158856649417430162,-17.8974781538336,-1.698660237434,338.144169438765
738239.66158865694887936115,-17.7497685679698,-1.83406069114251,337.836441134882
738239.66158874740358442068,-18.5375530259102,-2.81879126356802,337.824132002726
738239.66158883785828948021,-19.3376466160059,-3.56964832504247,338.058005513677
738239.66158892831299453974,-19.4115014089379,-3.39732047486801,338.291879024628
738239.66158901876769959927,-19.0053000478123,-2.94188258512121,338.304188156784
738239.66158910922240465879,-18.7837356690166,-2.64646341339356,338.353424685405
738239.66158919956069439650,-18.7344991403953,-2.56029948830632,338.439588610492
738239.66158929001539945602,-18.72219000824,-2.52337209184037,338.414970346182
738239.66158938047010451555,-18.72219000824,-2.52337209184037,338.427279478337
738239.66158947092480957508,-18.72219000824,-2.51106295968505,338.402661214026
738239.66158956137951463461,-18.7098808760847,-2.51106295968505,338.427279478337
738239.66158965183421969414,-18.6975717439294,-2.48644469537441,338.439588610492
738239.66158974228892475367,-18.6975717439294,-2.47413556321909,338.464206874803
738239.66158983274362981319,-18.6975717439294,-2.48644469537441,338.501134271269
738239.66158992319833487272,-18.685262611774,-2.47413556321909,338.501134271269
738239.66159001365303993225,-18.685262611774,-2.44951729890845,338.390352081871
738239.66159010399132966995,-18.6729534796187,-2.44951729890845,338.328806421094
738239.66159019444603472948,-18.6606443474634,-2.44951729890845,338.476516006958
738239.66159028490073978901,-18.6483352153081,-2.42489903459782,338.476516006958
738239.66159037535544484854,-18.6360260831528,-2.4125899024425,338.476516006958
738239.66159046581014990807,-18.6237169509974,-2.4125899024425,338.464206874803
738239.66159055626485496759,-18.5990986866868,-2.37566250597654,338.476516006958
738239.66159064671956002712,-18.5990986866868,-2.37566250597654,338.464206874803
738239.66159073717426508665,-18.5867895545315,-2.3510442416659,338.476516006958
738239.66159082762897014618,-18.5867895545315,-2.33873510951058,338.488825139114
738239.66159091808367520571,-18.5375530259102,-2.27718944873399,338.501134271269
738239.66159100842196494341,-18.5252438937549,-2.28949858088931,338.390352081871
738239.66159109887667000294,-18.5129347615996,-2.26488031657867,338.464206874803
738239.66159118933137506247,-18.5006256294443,-2.24026205226803,338.476516006958
738239.66159127978608012199,-18.4883164972889,-2.20333465580208,338.353424685405
738239.66159137024078518152,-18.451389100823,-2.1540981271808,338.36573381756
738239.66159146069549024105,-18.4390799686677,-2.14178899502548,338.390352081871
738239.66159155115019530058,-18.414461704357,-2.11717073071485,338.378042949716
738239.66159164160490036011,-18.4021525722017,-2.09255246640421,338.34111555325
738239.66159173205960541964,-18.3652251757358,-2.06793420209357,338.390352081871
738239.66159182251431047916,-18.3529160435804,-2.04331593778293,338.390352081871
738239.66159191296901553869,-18.3406069114251,-2.03100680562761,338.390352081871
738239.66159200330730527639,-18.3406069114251,-2.03100680562761,338.464206874803
738239.66159209376201033592,-18.3159886471145,-2.00638854131698,338.513443403424
738239.66159218421671539545,-18.3775343078911,-2.08024333424889,338.464206874803
738239.66159227467142045498,-18.414461704357,-2.14178899502548,338.439588610492
738239.66159236512612551451,-18.451389100823,-2.20333465580208,338.488825139114
738239.66159245558083057404,-18.4883164972889,-2.26488031657867,338.427279478337
738239.66159254603553563356,-18.5375530259102,-2.32642597735527,338.427279478337
738239.66159263649024069309,-18.5621712902209,-2.36335337382122,338.378042949716
738239.66159272694494575262,-18.6114078188421,-2.4125899024425,338.402661214026
738239.66159281739965081215,-18.6237169509974,-2.42489903459782,338.390352081871
738239.66159290773794054985,-18.6237169509974,-2.44951729890845,338.451897742648
738239.66159299819264560938,-18.6483352153081,-2.46182643106377,338.427279478337
738239.66159308864735066891,-18.6483352153081,-2.46182643106377,338.476516006958
738239.66159317910205572844,-18.6360260831528,-2.44951729890845,338.451897742648
738239.66159326955676078796,-18.6237169509974,-2.46182643106377,338.439588610492
738239.66159336001146584749,-18.6483352153081,-2.47413556321909,338.427279478337
738239.66159345046617090702,-18.6483352153081,-2.47413556321909,338.464206874803
738239.66159354092087596655,-18.6360260831528,-2.44951729890845,338.36573381756
738239.66159363137558102608,-18.6483352153081,-2.48644469537441,338.254951628162
738239.66159372183028608561,-18.6360260831528,-2.48644469537441,338.402661214026
738239.66159381228499114513,-18.6483352153081,-2.47413556321909,338.464206874803
738239.66159390262328088284,-18.6237169509974,-2.44951729890845,338.464206874803
738239.66159399307798594236,-18.6237169509974,-2.46182643106377,338.451897742648
738239.66159408353269100189,-18.6360260831528,-2.46182643106377,338.501134271269
738239.66159417398739606142,-18.6360260831528,-2.47413556321909,338.55037079989
738239.66159426444210112095,-18.6360260831528,-2.47413556321909,338.488825139114
738239.66159435489680618048,-18.6483352153081,-2.48644469537441,338.464206874803
738239.66159444535151124001,-18.6360260831528,-2.47413556321909,338.538061667735
738239.66159453580621629953,-18.6483352153081,-2.49875382752973,338.513443403424
738239.66159462626092135906,-18.6483352153081,-2.48644469537441,338.414970346182
738239.66159471671562641859,-18.6360260831528,-2.48644469537441,338.538061667735
738239.66159480705391615629,-18.6483352153081,-2.48644469537441,338.513443403424
738239.66159489750862121582,-18.6483352153081,-2.48644469537441,338.427279478337
738239.66159498796332627535,-18.6360260831528,-2.48644469537441,338.501134271269
738239.66159507841803133488,-18.6483352153081,-2.48644469537441,338.513443403424
738239.66159516887273639441,-18.6606443474634,-2.48644469537441,338.525752535579
738239.66159525932744145393,-18.6483352153081,-2.49875382752973,338.464206874803
738239.66159534978214651346,-18.6606443474634,-2.49875382752973,338.538061667735
738239.66159544023685157299,-18.6483352153081,-2.49875382752973,338.538061667735
738239.66159553069155663252,-18.6360260831528,-2.48644469537441,338.476516006958
738239.66159562114626169205,-18.6606443474634,-2.48644469537441,338.476516006958
738239.66159571160096675158,-18.685262611774,-2.52337209184037,338.501134271269
738239.66159580193925648928,-18.6729534796187,-2.49875382752973,338.390352081871
738239.66159589239396154881,-18.6606443474634,-2.49875382752973,338.476516006958
738239.66159598284866660833,-18.6729534796187,-2.51106295968505,338.402661214026
738239.66159607330337166786,-18.6729534796187,-2.49875382752973,338.451897742648
738239.66159616375807672739,-18.6729534796187,-2.51106295968505,338.427279478337
738239.66159625421278178692,-18.6606443474634,-2.51106295968505,338.427279478337
738239.66159634466748684645,-18.6729534796187,-2.51106295968505,338.414970346182
738239.66159643512219190598,-18.6606443474634,-2.51106295968505,338.427279478337
738239.66159652557689696550,-18.6606443474634,-2.49875382752973,338.402661214026
738239.66159661603160202503,-18.6483352153081,-2.48644469537441,338.414970346182
738239.66159670636989176273,-18.6606443474634,-2.51106295968505,338.414970346182
738239.66159679682459682226,-18.6483352153081,-2.49875382752973,338.414970346182
738239.66159688727930188179,-18.6606443474634,-2.51106295968505,338.390352081871
738239.66159697773400694132,-18.6606443474634,-2.49875382752973,338.36573381756
738239.66159706818871200085,-18.6483352153081,-2.49875382752973,338.378042949716
738239.66159715864341706038,-18.6606443474634,-2.51106295968505,338.304188156784
738239.66159724909812211990,-18.6606443474634,-2.49875382752973,338.439588610492
738239.66159733955282717943,-18.6483352153081,-2.49875382752973,338.476516006958
738239.66159743000753223896,-18.6483352153081,-2.51106295968505,338.414970346182
738239.66159752046223729849,-18.6360260831528,-2.48644469537441,338.476516006958
738239.66159761080052703619,-18.6237169509974,-2.48644469537441,338.414970346182
738239.66159770125523209572,-18.6237169509974,-2.49875382752973,338.464206874803
738239.66159779170993715525,-18.5990986866868,-2.46182643106377,338.451897742648
738239.66159788216464221478,-18.5867895545315,-2.44951729890845,338.488825139114
738239.66159797261934727430,-18.5744804223762,-2.43720816675314,338.488825139114
738239.66159806307405233383,-18.5744804223762,-2.42489903459782,338.488825139114
738239.66159815352875739336,-18.5990986866868,-2.4125899024425,338.476516006958
738239.66159824398346245289,-18.6114078188421,-2.42489903459782,338.525752535579
738239.66159833443816751242,-18.6237169509974,-2.44951729890845,338.562679932045
738239.66159842489287257195,-18.6360260831528,-2.46182643106377,338.525752535579
738239.66159851534757763147,-18.6606443474634,-2.47413556321909,338.476516006958
738239.66159860568586736917,-18.6729534796187,-2.51106295968505,338.488825139114
738239.66159869614057242870,-18.6729534796187,-2.51106295968505,338.513443403424
738239.66159878659527748823,-18.6606443474634,-2.49875382752973,338.476516006958
738239.66159887704998254776,-18.6606443474634,-2.51106295968505,338.488825139114
738239.66159896750468760729,-18.6606443474634,-2.49875382752973,338.513443403424
738239.66159905795939266682,-18.6606443474634,-2.51106295968505,338.488825139114
738239.66159914841409772635,-18.6606443474634,-2.51106295968505,338.488825139114
738239.66159923886880278587,-18.685262611774,-2.49875382752973,338.525752535579
738239.66159932932350784540,-18.6483352153081,-2.4125899024425,338.599607328511
738239.66159941977821290493,-18.3898434400464,-2.19102552364676,338.513443403424
738239.66159951011650264263,-18.0082603432315,-1.80944242683187,338.402661214026
738239.66159960057120770216,-17.6636046428826,-1.63711457665741,338.119551174454
738239.66159969102591276169,-18.0328786075421,-2.40028077028718,337.737968077639
738239.66159978148061782122,-18.8822087262591,-3.40962960702333,337.947223324279
738239.66159987193532288074,-19.30071921954,-3.48348439995524,338.304188156784
738239.66159996239002794027,-19.0791548407442,-3.13882869960631,338.316497288939
738239.66160005284473299980,-18.7344991403953,-2.73262733848079,338.390352081871
738239.66160014329943805933,-18.6360260831528,-2.57260862046164,338.451897742648
738239.66160023375414311886,-18.6360260831528,-2.52337209184037,338.451897742648
738239.66160032420884817839,-18.6360260831528,-2.48644469537441,338.402661214026
738239.66160041466355323792,-18.6237169509974,-2.46182643106377,338.36573381756
738239.66160050500184297562,-18.6237169509974,-2.47413556321909,338.34111555325
738239.66160059545654803514,-18.6114078188421,-2.44951729890845,338.15647857092
738239.66160068591125309467,-18.5867895545315,-2.43720816675314,338.230333363852
738239.66160077636595815420,-18.5990986866868,-2.44951729890845,338.36573381756
738239.66160086682066321373,-18.5990986866868,-2.43720816675314,338.439588610492
738239.66160095727536827326,-18.5744804223762,-2.42489903459782,338.390352081871
738239.66160104773007333279,-18.5990986866868,-2.42489903459782,338.402661214026
738239.66160113818477839231,-18.5867895545315,-2.40028077028718,338.402661214026
738239.66160122863948345184,-18.5744804223762,-2.38797163813186,338.390352081871
738239.66160131909418851137,-18.5498621580655,-2.38797163813186,338.427279478337
738239.66160140943247824907,-18.5498621580655,-2.36335337382122,338.451897742648
738239.66160149988718330860,-18.5375530259102,-2.33873510951058,338.414970346182
738239.66160159034188836813,-18.5252438937549,-2.32642597735527,338.390352081871
738239.66160168079659342766,-18.5252438937549,-2.31411684519995,338.427279478337
738239.66160177125129848719,-18.5129347615996,-2.30180771304463,338.414970346182
738239.66160186170600354671,-18.4883164972889,-2.26488031657867,338.402661214026
738239.66160195216070860624,-18.4636982329783,-2.25257118442335,338.378042949716
738239.66160204261541366577,-18.451389100823,-2.20333465580208,338.414970346182
738239.66160213307011872530,-18.4390799686677,-2.19102552364676,338.451897742648
738239.66160222352482378483,-18.414461704357,-2.14178899502548,338.488825139114
738239.66160231386311352253,-18.414461704357,-2.12947986287016,338.488825139114
738239.66160240431781858206,-18.3775343078911,-2.10486159855953,338.439588610492
738239.66160249477252364159,-18.3652251757358,-2.05562506993825,338.439588610492
738239.66160258522722870111,-18.3529160435804,-2.04331593778293,338.464206874803
738239.66160267568193376064,-18.3406069114251,-2.01869767347229,338.501134271269
738239.66160276613663882017,-18.3159886471145,-2.00638854131698,338.488825139114
738239.66160285659134387970,-18.3036795149592,-1.98177027700634,338.476516006958
738239.66160294704604893923,-18.3036795149592,-1.98177027700634,338.451897742648
738239.66160303750075399876,-18.3036795149592,-1.9571520126957,338.464206874803
738239.66160312795545905828,-18.3159886471145,-1.99407940916166,338.451897742648
738239.66160321841016411781,-18.3406069114251,-2.05562506993825,338.476516006958
738239.66160330874845385551,-18.3775343078911,-2.11717073071485,338.513443403424
738239.66160339920315891504,-18.4390799686677,-2.19102552364676,338.427279478337
738239.66160348965786397457,-18.4760073651336,-2.25257118442335,338.464206874803
738239.66160358011256903410,-18.5252438937549,-2.31411684519995,338.451897742648
738239.66160367056727409363,-18.5498621580655,-2.3510442416659,338.414970346182
738239.66160376102197915316,-18.5744804223762,-2.38797163813186,338.501134271269
738239.66160385147668421268,-18.5990986866868,-2.42489903459782,338.513443403424
738239.66160394193138927221,-18.6114078188421,-2.43720816675314,338.488825139114
738239.66160403238609433174,-18.5990986866868,-2.44951729890845,338.451897742648
738239.66160412284079939127,-18.6237169509974,-2.44951729890845,338.291879024628
738239.66160421317908912897,-18.6114078188421,-2.43720816675314,338.353424685405
738239.66160430363379418850,-18.6237169509974,-2.44951729890845,338.390352081871
738239.66160439408849924803,-18.6237169509974,-2.44951729890845,338.451897742648
738239.66160448454320430756,-18.6114078188421,-2.47413556321909,338.439588610492
738239.66160457499790936708,-18.6237169509974,-2.46182643106377,338.439588610492
738239.66160466545261442661,-18.5990986866868,-2.44951729890845,338.427279478337
738239.66160475590731948614,-18.6114078188421,-2.47413556321909,338.439588610492
738239.66160484636202454567,-18.5990986866868,-2.44951729890845,338.439588610492
738239.66160493681672960520,-18.5990986866868,-2.44951729890845,338.378042949716
738239.66160502727143466473,-18.6114078188421,-2.46182643106377,338.451897742648
738239.66160511772613972425,-18.6237169509974,-2.44951729890845,338.451897742648
738239.66160520806442946196,-18.6114078188421,-2.46182643106377,338.36573381756
738239.66160529851913452148,-18.6114078188421,-2.46182643106377,338.451897742648
738239.66160538897383958101,-18.6114078188421,-2.46182643106377,338.464206874803
738239.66160547942854464054,-18.6114078188421,-2.46182643106377,338.414970346182
738239.66160556988324970007,-18.6237169509974,-2.46182643106377,338.36573381756
738239.66160566033795475960,-18.6237169509974,-2.47413556321909,338.378042949716
738239.66160575079265981913,-18.6237169509974,-2.48644469537441,338.36573381756
738239.66160584124736487865,-18.6114078188421,-2.48644469537441,338.353424685405
738239.66160593170206993818,-18.6237169509974,-2.48644469537441,338.378042949716
738239.66160602215677499771,-18.6114078188421,-2.48644469537441,338.36573381756
738239.66160611249506473541,-18.6237169509974,-2.48644469537441,338.414970346182
738239.66160620294976979494,-18.6237169509974,-2.48644469537441,338.439588610492
738239.66160629340447485447,-18.6114078188421,-2.47413556321909,338.439588610492
738239.66160638385917991400,-18.6114078188421,-2.49875382752973,338.427279478337
738239.66160647431388497353,-18.6237169509974,-2.49875382752973,338.414970346182
738239.66160656476859003305,-18.6237169509974,-2.49875382752973,338.427279478337
738239.66160665522329509258,-18.6237169509974,-2.51106295968505,338.451897742648
738239.66160674567800015211,-18.6237169509974,-2.51106295968505,338.451897742648
738239.66160683613270521164,-18.6237169509974,-2.51106295968505,338.525752535579
738239.66160692658741027117,-18.5990986866868,-2.48644469537441,338.476516006958
738239.66160701704211533070,-18.5867895545315,-2.48644469537441,338.464206874803
738239.66160710738040506840,-18.6360260831528,-2.52337209184037,338.525752535579
738239.66160719783511012793,-18.6237169509974,-2.51106295968505,338.501134271269
738239.66160728828981518745,-18.6237169509974,-2.51106295968505,338.501134271269
738239.66160737874452024698,-18.6114078188421,-2.51106295968505,338.501134271269
738239.66160746919922530651,-18.6114078188421,-2.51106295968505,338.538061667735
738239.66160755965393036604,-18.5867895545315,-2.49875382752973,338.476516006958
738239.66160765010863542557,-18.5990986866868,-2.49875382752973,338.304188156784
738239.66160774056334048510,-18.6114078188421,-2.51106295968505,338.390352081871
738239.66160783101804554462,-18.6114078188421,-2.51106295968505,338.538061667735
738239.66160792147275060415,-18.6114078188421,-2.49875382752973,338.488825139114
738239.66160801181104034185,-18.6114078188421,-2.51106295968505,338.55037079989
738239.66160810226574540138,-18.5990986866868,-2.51106295968505,338.538061667735
738239.66160819272045046091,-18.5990986866868,-2.51106295968505,338.464206874803
738239.66160828317515552044,-18.5990986866868,-2.51106295968505,338.427279478337
738239.66160837362986057997,-18.5867895545315,-2.51106295968505,338.36573381756
738239.66160846408456563950,-18.5375530259102,-2.48644469537441,338.390352081871
738239.66160855453927069902,-18.5621712902209,-2.49875382752973,338.414970346182
738239.66160864499397575855,-18.5252438937549,-2.48644469537441,338.439588610492
738239.66160873544868081808,-18.5129347615996,-2.43720816675314,338.427279478337
738239.66160882590338587761,-18.4883164972889,-2.40028077028718,338.439588610492
738239.66160891624167561531,-18.5006256294443,-2.4125899024425,338.414970346182
738239.66160900669638067484,-18.5498621580655,-2.42489903459782,338.451897742648
738239.66160909715108573437,-18.5621712902209,-2.44951729890845,338.451897742648
738239.66160918760579079390,-18.5744804223762,-2.48644469537441,338.451897742648
738239.66160927806049585342,-18.5621712902209,-2.48644469537441,338.451897742648
738239.66160936851520091295,-18.5867895545315,-2.51106295968505,338.439588610492
738239.66160945896990597248,-18.6114078188421,-2.53568122399569,338.488825139114
738239.66160954942461103201,-18.6114078188421,-2.52337209184037,338.501134271269
738239.66160963987931609154,-18.5990986866868,-2.51106295968505,338.525752535579
738239.66160973033402115107,-18.5867895545315,-2.52337209184037,338.513443403424
738239.66160982078872621059,-18.5867895545315,-2.52337209184037,338.451897742648
738239.66160991112701594830,-18.5867895545315,-2.52337209184037,338.55037079989
738239.66161000158172100782,-18.5990986866868,-2.52337209184037,338.513443403424
738239.66161009203642606735,-18.6114078188421,-2.44951729890845,338.562679932045
738239.66161018249113112688,-18.4267708365123,-2.28949858088931,338.538061667735
738239.66161027294583618641,-18.0574968718528,-1.93253374838506,338.353424685405
738239.66161036340054124594,-17.6759137750379,-1.67404197312337,338.205715099541
738239.66161045385524630547,-17.6759137750379,-2.14178899502548,337.848750267037
738239.66161054430995136499,-18.5375530259102,-3.16344696391695,337.861059399192
738239.66161063476465642452,-19.1160822372102,-3.53272092857652,338.205715099541
738239.66161072521936148405,-19.0914639728996,-3.27422915331482,338.328806421094
738239.66161081555765122175,-18.7098808760847,-2.83110039572334,338.353424685405
738239.66161090601235628128,-18.5744804223762,-2.6095360169276,338.378042949716
738239.66161099646706134081,-18.5375530259102,-2.53568122399569,338.464206874803
738239.66161108692176640034,-18.5375530259102,-2.48644469537441,338.488825139114
738239.66161117737647145987,-18.5375530259102,-2.48644469537441,338.218024231697
738239.66161126783117651939,-18.5375530259102,-2.47413556321909,338.304188156784
738239.66161135828588157892,-18.5252438937549,-2.47413556321909,338.402661214026
738239.66161144874058663845,-18.5129347615996,-2.46182643106377,338.402661214026
738239.66161153919529169798,-18.5129347615996,-2.44951729890845,338.378042949716
738239.66161162964999675751,-18.4883164972889,-2.42489903459782,338.476516006958
738239.66161172010470181704,-18.5006256294443,-2.42489903459782,338.501134271269
738239.66161181044299155474,-18.5006256294443,-2.4125899024425,338.488825139114
738239.66161190089769661427,-18.4883164972889,-2.4125899024425,338.464206874803
738239.66161199135240167379,-18.4760073651336,-2.40028077028718,338.513443403424
738239.66161208180710673332,-18.4883164972889,-2.4125899024425,338.513443403424
738239.66161217226181179285,-18.4636982329783,-2.37566250597654,338.464206874803
738239.66161226271651685238,-18.4390799686677,-2.36335337382122,338.538061667735
738239.66161235317122191191,-18.4390799686677,-2.33873510951058,338.55037079989
738239.66161244362592697144,-18.4267708365123,-2.32642597735527,338.390352081871
738239.66161253408063203096,-18.4021525722017,-2.31411684519995,338.476516006958
738239.66161262453533709049,-18.4021525722017,-2.28949858088931,338.501134271269
738239.66161271487362682819,-18.3775343078911,-2.26488031657867,338.439588610492
738239.66161280532833188772,-18.3652251757358,-2.24026205226803,338.451897742648
738239.66161289578303694725,-18.3406069114251,-2.22795292011272,338.427279478337
738239.66161298623774200678,-18.3036795149592,-2.16640725933612,338.414970346182
738239.66161307669244706631,-18.3159886471145,-2.17871639149144,338.427279478337
738239.66161316714715212584,-18.2913703828038,-2.14178899502548,338.464206874803
738239.66161325760185718536,-18.2667521184932,-2.10486159855953,338.414970346182
738239.66161334805656224489,-18.2298247220272,-2.06793420209357,338.402661214026
738239.66161343851126730442,-18.2175155898719,-2.04331593778293,338.427279478337
738239.66161352896597236395,-18.2052064577166,-2.01869767347229,338.427279478337
738239.66161361942067742348,-18.1928973255613,-2.00638854131698,338.464206874803
738239.66161370975896716118,-18.180588193406,-1.99407940916166,338.402661214026
738239.66161380021367222071,-18.180588193406,-1.99407940916166,338.402661214026
738239.66161389066837728024,-18.1928973255613,-2.00638854131698,338.513443403424
738239.66161398112308233976,-18.2175155898719,-2.05562506993825,338.501134271269
738239.66161407157778739929,-18.2544429863379,-2.11717073071485,338.390352081871
738239.66161416203249245882,-18.3036795149592,-2.20333465580208,338.488825139114
738239.66161425248719751835,-18.3529160435804,-2.26488031657867,338.476516006958
738239.66161434294190257788,-18.3775343078911,-2.30180771304463,338.464206874803
738239.66161443339660763741,-18.414461704357,-2.37566250597654,338.488825139114
738239.66161452385131269693,-18.451389100823,-2.4125899024425,338.476516006958
738239.66161461418960243464,-18.4636982329783,-2.4125899024425,338.476516006958
738239.66161470464430749416,-18.5006256294443,-2.44951729890845,338.304188156784
738239.66161479509901255369,-18.4883164972889,-2.46182643106377,338.378042949716
738239.66161488555371761322,-18.4883164972889,-2.44951729890845,338.476516006958
738239.66161497600842267275,-18.5006256294443,-2.46182643106377,338.36573381756
738239.66161506646312773228,-18.5006256294443,-2.44951729890845,338.427279478337
738239.66161515691783279181,-18.5129347615996,-2.46182643106377,338.427279478337
738239.66161524737253785133,-18.5006256294443,-2.44951729890845,338.353424685405
738239.66161533782724291086,-18.5006256294443,-2.44951729890845,338.414970346182
738239.66161542828194797039,-18.5006256294443,-2.46182643106377,338.414970346182
738239.66161551862023770809,-18.4883164972889,-2.43720816675314,338.464206874803
738239.66161560907494276762,-18.4883164972889,-2.44951729890845,338.414970346182
738239.66161569952964782715,-18.4760073651336,-2.44951729890845,338.501134271269
738239.66161578998435288668,-18.5006256294443,-2.46182643106377,338.501134271269
738239.66161588043905794621,-18.5006256294443,-2.44951729890845,338.513443403424
738239.66161597089376300573,-18.4883164972889,-2.44951729890845,338.414970346182
738239.66161606134846806526,-18.4883164972889,-2.43720816675314,338.525752535579
738239.66161615180317312479,-18.5006256294443,-2.44951729890845,338.513443403424
738239.66161624225787818432,-18.5006256294443,-2.46182643106377,338.501134271269
738239.66161633271258324385,-18.4883164972889,-2.44951729890845,338.451897742648
738239.66161642316728830338,-18.5006256294443,-2.46182643106377,338.538061667735
738239.66161651350557804108,-18.5129347615996,-2.46182643106377,338.538061667735
738239.66161660396028310061,-18.5006256294443,-2.46182643106377,338.501134271269
738239.66161669441498816013,-18.5129347615996,-2.47413556321909,338.488825139114
738239.66161678486969321966,-18.5006256294443,-2.46182643106377,338.538061667735
738239.66161687532439827919,-18.5006256294443,-2.46182643106377,338.464206874803
738239.66161696577910333872,-18.5252438937549,-2.48644469537441,338.414970346182
738239.66161705623380839825,-18.5252438937549,-2.48644469537441,338.501134271269
738239.66161714668851345778,-18.5129347615996,-2.48644469537441,338.55037079989
738239.66161723714321851730,-18.5006256294443,-2.47413556321909,338.538061667735
738239.66161732759792357683,-18.5129347615996,-2.47413556321909,338.464206874803
738239.66161741793621331453,-18.5252438937549,-2.48644469537441,338.476516006958
738239.66161750839091837406,-18.5252438937549,-2.49875382752973,338.439588610492
738239.66161759884562343359,-18.5129347615996,-2.48644469537441,338.439588610492
738239.66161768930032849312,-18.5129347615996,-2.48644469537441,338.464206874803
738239.66161777975503355265,-18.5252438937549,-2.49875382752973,338.427279478337
738239.66161787020973861217,-18.5252438937549,-2.48644469537441,338.439588610492
738239.66161796066444367170,-18.5129347615996,-2.47413556321909,338.439588610492
738239.66161805111914873123,-18.5006256294443,-2.48644469537441,338.414970346182
738239.66161814157385379076,-18.5252438937549,-2.48644469537441,338.427279478337
738239.66161823202855885029,-18.5498621580655,-2.47413556321909,338.353424685405
738239.66161832248326390982,-18.5252438937549,-2.47413556321909,338.353424685405
738239.66161841282155364752,-18.5129347615996,-2.47413556321909,338.451897742648
738239.66161850327625870705,-18.5252438937549,-2.48644469537441,338.451897742648
738239.66161859373096376657,-18.5252438937549,-2.48644469537441,338.488825139114
738239.66161868418566882610,-18.5006256294443,-2.47413556321909,338.501134271269
738239.66161877464037388563,-18.5129347615996,-2.47413556321909,338.451897742648
738239.66161886509507894516,-18.4883164972889,-2.46182643106377,338.414970346182
738239.66161895554978400469,-18.4883164972889,-2.44951729890845,338.378042949716
738239.66161904600448906422,-18.4760073651336,-2.44951729890845,338.451897742648
738239.66161913645919412374,-18.4636982329783,-2.42489903459782,338.402661214026
738239.66161922691389918327,-18.451389100823,-2.42489903459782,338.451897742648
738239.66161931725218892097,-18.4760073651336,-2.42489903459782,338.538061667735
738239.66161940770689398050,-18.4883164972889,-2.38797163813186,338.525752535579
738239.66161949816159904003,-18.5252438937549,-2.42489903459782,338.439588610492
738239.66161958861630409956,-18.5252438937549,-2.44951729890845,338.513443403424
738239.66161967907100915909,-18.5498621580655,-2.46182643106377,338.55037079989
738239.66161976952571421862,-18.5375530259102,-2.47413556321909,338.451897742648
738239.66161985998041927814,-18.5375530259102,-2.46182643106377,338.538061667735
738239.66161995043512433767,-18.5621712902209,-2.48644469537441,338.513443403424
738239.66162004088982939720,-18.5621712902209,-2.48644469537441,338.488825139114
738239.66162013134453445673,-18.5744804223762,-2.49875382752973,338.538061667735
738239.66162022179923951626,-18.5744804223762,-2.49875382752973,338.562679932045
738239.66162031213752925396,-18.5990986866868,-2.52337209184037,338.501134271269
738239.66162040259223431349,-18.5375530259102,-2.44951729890845,338.464206874803
738239.66162049304693937302,-18.6114078188421,-2.43720816675314,338.587298196356
738239.66162058350164443254,-18.414461704357,-2.27718944873399,338.562679932045
738239.66162067395634949207,-18.0451877396975,-1.90791548407442,338.427279478337
738239.66162076441105455160,-17.6636046428826,-1.71096936958932,338.230333363852
738239.66162085486575961113,-17.6882229071932,-2.19102552364676,337.885677663503
738239.66162094532046467066,-18.5375530259102,-3.16344696391695,337.861059399192
738239.66162103577516973019,-19.1407005015208,-3.48348439995524,338.254951628162
738239.66162112622987478971,-19.0545365764336,-3.20037436038291,338.291879024628
738239.66162121656816452742,-18.8698995941038,-2.97880998158717,338.15647857092
738239.66162130702286958694,-18.6237169509974,-2.68339080985951,338.316497288939
738239.66162139747757464647,-18.5498621580655,-2.53568122399569,338.36573381756
738239.66162148793227970600,-18.5375530259102,-2.48644469537441,338.414970346182
738239.66162157838698476553,-18.5252438937549,-2.46182643106377,338.390352081871
738239.66162166884168982506,-18.5129347615996,-2.43720816675314,338.427279478337
738239.66162175929639488459,-18.5129347615996,-2.42489903459782,338.378042949716
738239.66162184975109994411,-18.5129347615996,-2.4125899024425,338.291879024628
738239.66162194020580500364,-18.5006256294443,-2.40028077028718,338.427279478337
738239.66162203066051006317,-18.5129347615996,-2.40028077028718,338.464206874803
738239.66162212099879980087,-18.5129347615996,-2.40028077028718,338.476516006958
738239.66162221145350486040,-18.5006256294443,-2.40028077028718,338.476516006958
738239.66162230190820991993,-18.5006256294443,-2.38797163813186,338.464206874803
738239.66162239236291497946,-18.4883164972889,-2.37566250597654,338.464206874803
738239.66162248281762003899,-18.4883164972889,-2.36335337382122,338.464206874803
738239.66162257327232509851,-18.4760073651336,-2.33873510951058,338.464206874803
738239.66162266372703015804,-18.4636982329783,-2.33873510951058,338.378042949716
738239.66162275418173521757,-18.4390799686677,-2.31411684519995,338.378042949716
738239.66162284463644027710,-18.4390799686677,-2.30180771304463,338.427279478337
738239.66162293509114533663,-18.4267708365123,-2.27718944873399,338.414970346182
738239.66162302554585039616,-18.414461704357,-2.26488031657867,338.439588610492
738239.66162311588414013386,-18.414461704357,-2.24026205226803,338.378042949716
738239.66162320633884519339,-18.3898434400464,-2.2156437879574,338.414970346182
738239.66162329679355025291,-18.3775343078911,-2.19102552364676,338.36573381756
738239.66162338724825531244,-18.3652251757358,-2.16640725933612,338.36573381756
738239.66162347770296037197,-18.3529160435804,-2.12947986287016,338.414970346182
738239.66162356815766543150,-18.3282977792698,-2.10486159855953,338.378042949716
738239.66162365861237049103,-18.3036795149592,-2.06793420209357,338.353424685405
738239.66162374906707555056,-18.2913703828038,-2.04331593778293,338.36573381756
738239.66162383952178061008,-18.2790612506485,-2.03100680562761,338.390352081871
738239.66162392997648566961,-18.2667521184932,-1.99407940916166,338.34111555325
738239.66162402031477540731,-18.2667521184932,-1.98177027700634,338.414970346182
738239.66162411076948046684,-18.2667521184932,-1.96946114485102,338.439588610492
738239.66162420122418552637,-18.2667521184932,-1.98177027700634,338.402661214026
738239.66162429167889058590,-18.2790612506485,-1.99407940916166,338.439588610492
738239.66162438213359564543,-18.3159886471145,-2.05562506993825,338.476516006958
738239.66162447258830070496,-18.3652251757358,-2.11717073071485,338.427279478337
738239.66162456304300576448,-18.4021525722017,-2.17871639149144,338.414970346182
738239.66162465349771082401,-18.4636982329783,-2.24026205226803,338.439588610492
738239.66162474395241588354,-18.5129347615996,-2.31411684519995,338.439588610492
738239.66162483440712094307,-18.5498621580655,-2.36335337382122,338.451897742648
738239.66162492486182600260,-18.5621712902209,-2.37566250597654,338.414970346182
738239.66162501520011574030,-18.5867895545315,-2.40028077028718,338.476516006958
738239.66162510565482079983,-18.6114078188421,-2.42489903459782,338.476516006958
738239.66162519610952585936,-18.6237169509974,-2.42489903459782,338.427279478337
738239.66162528656423091888,-18.6237169509974,-2.42489903459782,338.353424685405
738239.66162537701893597841,-18.6237169509974,-2.43720816675314,338.304188156784
738239.66162546747364103794,-18.6360260831528,-2.43720816675314,338.464206874803
738239.66162555792834609747,-18.6360260831528,-2.43720816675314,338.439588610492
738239.66162564838305115700,-18.6360260831528,-2.43720816675314,338.501134271269
738239.66162573883775621653,-18.6360260831528,-2.42489903459782,338.501134271269
738239.66162582929246127605,-18.6483352153081,-2.43720816675314,338.390352081871
738239.66162591963075101376,-18.6360260831528,-2.43720816675314,338.36573381756
738239.66162601008545607328,-18.6360260831528,-2.42489903459782,338.328806421094
738239.66162610054016113281,-18.6360260831528,-2.42489903459782,338.353424685405
738239.66162619099486619234,-18.6360260831528,-2.4125899024425,338.36573381756
738239.66162628144957125187,-18.6360260831528,-2.4125899024425,338.378042949716
738239.66162637190427631140,-18.6360260831528,-2.4125899024425,338.390352081871
738239.66162646235898137093,-18.6360260831528,-2.42489903459782,338.414970346182
738239.66162655281368643045,-18.6483352153081,-2.43720816675314,338.378042949716
738239.66162664326839148998,-18.6483352153081,-2.43720816675314,338.36573381756
738239.66162673372309654951,-18.6606443474634,-2.44951729890845,338.36573381756
738239.66162682406138628721,-18.6606443474634,-2.43720816675314,338.414970346182
738239.66162691451609134674,-18.6606443474634,-2.44951729890845,338.414970346182
738239.66162700497079640627,-18.6483352153081,-2.44951729890845,338.439588610492
738239.66162709542550146580,-18.6606443474634,-2.44951729890845,338.488825139114
738239.66162718588020652533,-18.6729534796187,-2.44951729890845,338.464206874803
738239.66162727633491158485,-18.6729534796187,-2.44951729890845,338.402661214026
738239.66162736678961664438,-18.685262611774,-2.47413556321909,338.402661214026
738239.66162745724432170391,-18.685262611774,-2.47413556321909,338.378042949716
738239.66162754769902676344,-18.685262611774,-2.47413556321909,338.439588610492
738239.66162763815373182297,-18.685262611774,-2.46182643106377,338.402661214026
738239.66162772860843688250,-18.685262611774,-2.46182643106377,338.390352081871
738239.66162781894672662020,-18.685262611774,-2.48644469537441,338.378042949716
738239.66162790940143167973,-18.685262611774,-2.48644469537441,338.414970346182
738239.66162799985613673925,-18.6729534796187,-2.47413556321909,338.36573381756
738239.66162809031084179878,-18.7098808760847,-2.46182643106377,338.353424685405
738239.66162818076554685831,-18.685262611774,-2.48644469537441,338.353424685405
738239.66162827122025191784,-18.685262611774,-2.47413556321909,338.378042949716
738239.66162836167495697737,-18.7098808760847,-2.47413556321909,338.378042949716
738239.66162845212966203690,-18.685262611774,-2.47413556321909,338.439588610492
738239.66162854258436709642,-18.6975717439294,-2.48644469537441,338.451897742648
738239.66162863303907215595,-18.6975717439294,-2.48644469537441,338.451897742648
738239.66162872337736189365,-18.7098808760847,-2.51106295968505,338.414970346182
738239.66162881383206695318,-18.7098808760847,-2.51106295968505,338.451897742648
738239.66162890428677201271,-18.685262611774,-2.51106295968505,338.316497288939
738239.66162899474147707224,-18.685262611774,-2.52337209184037,338.402661214026
738239.66162908519618213177,-18.685262611774,-2.51106295968505,338.451897742648
738239.66162917565088719130,-18.6729534796187,-2.49875382752973,338.476516006958
738239.66162926610559225082,-18.6729534796187,-2.49875382752973,338.451897742648
738239.66162935656029731035,-18.6114078188421,-2.44951729890845,338.402661214026
738239.66162944701500236988,-18.6114078188421,-2.43720816675314,338.476516006958
738239.66162953746970742941,-18.6483352153081,-2.44951729890845,338.414970346182
738239.66162962792441248894,-18.6729534796187,-2.46182643106377,338.414970346182
738239.66162971826270222664,-18.6729534796187,-2.46182643106377,338.402661214026
738239.66162980871740728617,-18.685262611774,-2.48644469537441,338.36573381756
738239.66162989917211234570,-18.7098808760847,-2.53568122399569,338.451897742648
738239.66162998962681740522,-18.7098808760847,-2.51106295968505,338.439588610492
738239.66163008008152246475,-18.72219000824,-2.53568122399569,338.451897742648
738239.66163017053622752428,-18.7468082725506,-2.54799035615101,338.451897742648
738239.66163026099093258381,-18.7344991403953,-2.56029948830632,338.427279478337
738239.66163035144563764334,-18.7468082725506,-2.56029948830632,338.402661214026
738239.66163044190034270287,-18.7344991403953,-2.54799035615101,338.378042949716
738239.66163053235504776239,-18.7344991403953,-2.54799035615101,338.414970346182
738239.66163062269333750010,-18.7344991403953,-2.53568122399569,338.427279478337
738239.66163071314804255962,-18.7344991403953,-2.52337209184037,338.488825139114
738239.66163080360274761915,-18.6606443474634,-2.4125899024425,338.525752535579
738239.66163089405745267868,-18.414461704357,-2.19102552364676,338.538061667735
738239.66163098451215773821,-17.9959512110762,-1.85867895545315,338.291879024628
738239.66163107496686279774,-17.6266772464166,-1.71096936958932,337.922605059969
738239.66163116542156785727,-18.0328786075421,-2.49875382752973,337.737968077639
738239.66163125587627291679,-19.0176091799676,-3.44655700348928,337.947223324279
738239.66163134633097797632,-19.3745740124719,-3.47117526779992,338.34111555325
738239.66163143678568303585,-19.0422274442783,-3.08959217098504,338.328806421094
738239.66163152724038809538,-18.72219000824,-2.69569994201483,338.316497288939
738239.66163161757867783308,-18.6606443474634,-2.58491775261696,338.316497288939
738239.66163170803338289261,-18.6360260831528,-2.52337209184037,338.390352081871
738239.66163179848808795214,-18.6237169509974,-2.49875382752973,338.378042949716
