time_dn,ecg_projection_ll_ra_mV,ecg_projection_la_ra_mV,ecg_projection_vx_rl_mV
738239.69429348863195627928,-17.8851690216783,-2.67108167770419,336.679382712282
738239.69429357908666133881,-17.8605507573677,-2.58491775261696,336.679382712282
738239.69429366954136639833,-17.835932493057,-2.54799035615101,336.900947091077
738239.69429375999607145786,-17.8851690216783,-2.69569994201483,336.839401430301
738239.69429385045077651739,-17.8851690216783,-2.83110039572334,336.79016490168
738239.69429394090548157692,-17.8974781538336,-2.48644469537441,336.81478316599
738239.69429403124377131462,-17.9220964181443,-2.49875382752973,336.704000976592
738239.69429412169847637415,-17.9467146824549,-2.76955473494675,336.704000976592
738239.69429421215318143368,-17.909787285989,-2.72031820632547,336.740928373058
738239.69429430260788649321,-17.9220964181443,-2.65877254554888,336.79016490168
738239.69429439306259155273,-17.909787285989,-2.75724560279143,336.900947091077
738239.69429448340088129044,-17.9713329467655,-2.75724560279143,336.851710562456
738239.69429457385558634996,-17.9344055502996,-2.59722688477228,336.802474033835
738239.69429466431029140949,-17.8851690216783,-2.47413556321909,336.81478316599
738239.69429475476499646902,-18.0082603432315,-2.67108167770419,336.802474033835
738239.69429484521970152855,-18.0328786075421,-2.75724560279143,336.876328826767
738239.69429493567440658808,-17.9220964181443,-2.68339080985951,336.753237505214
738239.69429502601269632578,-17.9836420789209,-2.8064821314127,336.81478316599
738239.69429511646740138531,-17.8974781538336,-2.68339080985951,336.679382712282
738239.69429520692210644484,-17.835932493057,-2.32642597735527,336.728619240903
738239.69429529737681150436,-17.8605507573677,-2.42489903459782,336.79016490168
738239.69429538783151656389,-18.0205694753868,-2.76955473494675,336.839401430301
738239.69429547828622162342,-17.8974781538336,-2.54799035615101,336.753237505214
738239.69429556862451136112,-17.9836420789209,-2.6095360169276,336.740928373058
738239.69429565907921642065,-17.9590238146102,-2.69569994201483,336.827092298145
738239.69429574953392148018,-17.8113142287464,-2.59722688477228,336.876328826767
738239.69429583998862653971,-17.8605507573677,-2.59722688477228,336.864019694611
738239.69429593044333159924,-18.0698060040081,-2.83110039572334,336.691691844437
738239.69429602078162133694,-17.9713329467655,-2.64646341339356,336.925565355388
738239.69429611123632639647,-17.8482416252124,-2.53568122399569,336.777855769524
738239.69429620169103145599,-17.872859889523,-2.58491775261696,336.728619240903
738239.69429629214573651552,-17.8974781538336,-2.62184514908292,336.950183619699
738239.69429638260044157505,-17.8605507573677,-2.48644469537441,336.888637958922
738239.69429647305514663458,-17.7866959644358,-2.49875382752973,336.827092298145
738239.69429656339343637228,-18.0328786075421,-2.72031820632547,336.950183619699
738239.69429665384814143181,-17.8851690216783,-2.6095360169276,336.876328826767
738239.69429674430284649134,-17.835932493057,-2.47413556321909,336.81478316599
738239.69429683475755155087,-17.8974781538336,-2.54799035615101,336.802474033835
738239.69429692521225661039,-18.1313516647847,-2.73262733848079,336.81478316599
738239.69429701566696166992,-18.0944242683187,-2.69569994201483,336.900947091077
738239.69429710600525140762,-17.9590238146102,-2.62184514908292,336.876328826767
738239.69429719645995646715,-17.9467146824549,-2.64646341339356,336.81478316599
738239.69429728691466152668,-18.1682790612506,-2.92957345296589,337.024038412631
738239.69429737736936658621,-18.0574968718528,-2.74493647063611,336.962492751854
738239.69429746782407164574,-17.9590238146102,-2.62184514908292,336.913256223233
738239.69429755816236138344,-18.0698060040081,-2.68339080985951,336.987111016165
738239.69429764861706644297,-18.1067334004741,-2.70800907417015,337.024038412631
738239.69429773907177150249,-17.8851690216783,-2.56029948830632,336.987111016165
738239.69429782952647656202,-17.602058982106,-2.24026205226803,336.937874487543
738239.69429791998118162155,-17.1343119602039,-1.79713329467655,336.642455315816
738239.69429801043588668108,-16.752728863389,-1.82175155898719,336.445509201331
738239.69429810077417641878,-17.4912767927081,-2.76955473494675,336.310108747622
738239.69429819122888147831,-18.451389100823,-3.77890357168289,336.593218787194
738239.69429828168358653784,-18.6237169509974,-3.76659443952757,336.827092298145
738239.69429837213829159737,-18.4636982329783,-3.37270221055737,336.765546637369
738239.69429846259299665689,-18.14366079694,-2.88033692434461,336.765546637369
738239.69429855304770171642,-18.0082603432315,-2.74493647063611,336.913256223233
738239.69429864338599145412,-17.9836420789209,-2.8680277921893,336.900947091077
738239.69429873384069651365,-17.9467146824549,-2.67108167770419,337.011729280475
738239.69429882429540157318,-17.8851690216783,-2.59722688477228,336.851710562456
738239.69429891475010663271,-18.0821151361634,-2.76955473494675,336.827092298145
738239.69429900520481169224,-18.0574968718528,-2.69569994201483,336.876328826767
738239.69429909554310142994,-18.0082603432315,-2.62184514908292,337.085584073407
738239.69429918599780648947,-17.9836420789209,-2.62184514908292,336.888637958922
738239.69429927645251154900,-17.9590238146102,-2.67108167770419,336.974801884009
738239.69429936690721660852,-17.9713329467655,-2.6095360169276,336.925565355388
738239.69429945736192166805,-17.8113142287464,-2.48644469537441,336.728619240903
738239.69429954781662672758,-17.9467146824549,-2.70800907417015,336.827092298145
738239.69429963815491646528,-18.0205694753868,-2.54799035615101,336.987111016165
738239.69429972860962152481,-18.0082603432315,-2.70800907417015,337.036347544786
738239.69429981906432658434,-17.7990050965911,-2.49875382752973,336.851710562456
738239.69429990951903164387,-17.8851690216783,-2.3510442416659,336.728619240903
738239.69429999997373670340,-18.0328786075421,-2.57260862046164,336.99942014832
738239.69430009031202644110,-17.9344055502996,-2.6095360169276,336.99942014832
738239.69430018076673150063,-17.8113142287464,-2.36335337382122,336.937874487543
738239.69430027122143656015,-17.909787285989,-2.48644469537441,336.913256223233
738239.69430036167614161968,-17.8605507573677,-2.52337209184037,336.950183619699
738239.69430045213084667921,-17.7251503036592,-2.28949858088931,336.753237505214
738239.69430054258555173874,-17.8482416252124,-2.53568122399569,336.81478316599
738239.69430063292384147644,-17.7866959644358,-2.38797163813186,336.839401430301
738239.69430072337854653597,-17.7374594358145,-2.17871639149144,336.900947091077
738239.69430081383325159550,-17.7620777001251,-2.20333465580208,336.950183619699
738239.69430090428795665503,-17.6512955107273,-2.16640725933612,336.962492751854
738239.69430099474266171455,-17.6759137750379,-2.28949858088931,336.913256223233
738239.69430108519736677408,-17.7005320393485,-2.16640725933612,336.937874487543
738239.69430117553565651178,-17.7620777001251,-2.2156437879574,336.839401430301
738239.69430126599036157131,-17.7374594358145,-2.30180771304463,336.864019694611
738239.69430135644506663084,-17.6512955107273,-2.14178899502548,336.913256223233
738239.69430144689977169037,-17.6882229071932,-2.26488031657867,337.073274941252
738239.69430153735447674990,-17.6512955107273,-2.05562506993825,336.925565355388
738239.69430162769276648760,-17.7497685679698,-2.27718944873399,337.011729280475
738239.69430171814747154713,-17.8113142287464,-2.43720816675314,337.048656676941
738239.69430180860217660666,-17.8482416252124,-2.48644469537441,336.987111016165
738239.69430189905688166618,-17.8851690216783,-2.48644469537441,336.864019694611
738239.69430198951158672571,-17.8605507573677,-2.46182643106377,336.876328826767
738239.69430207996629178524,-17.9220964181443,-2.49875382752973,337.159438866339
738239.69430217030458152294,-17.9959512110762,-2.68339080985951,337.048656676941
738239.69430226075928658247,-18.0082603432315,-2.68339080985951,336.962492751854
738239.69430235121399164200,-17.9590238146102,-2.57260862046164,337.036347544786
738239.69430244166869670153,-18.0574968718528,-2.74493647063611,337.011729280475
738239.69430253212340176105,-17.9344055502996,-2.70800907417015,336.937874487543
738239.69430262257810682058,-17.9344055502996,-2.53568122399569,336.950183619699
738239.69430271291639655828,-18.0328786075421,-2.59722688477228,336.974801884009
738239.69430280337110161781,-18.1067334004741,-2.69569994201483,336.99942014832
738239.69430289382580667734,-18.0451877396975,-2.70800907417015,336.962492751854
738239.69430298428051173687,-18.0082603432315,-2.69569994201483,336.777855769524
738239.69430307473521679640,-17.8974781538336,-2.54799035615101,336.900947091077
738239.69430316507350653410,-17.9344055502996,-2.69569994201483,336.913256223233
738239.69430325552821159363,-18.1190425326294,-2.89264605649993,337.110202337718
738239.69430334598291665316,-18.0821151361634,-2.72031820632547,336.99942014832
738239.69430343643762171268,-17.9959512110762,-2.59722688477228,336.839401430301
738239.69430352689232677221,-18.0328786075421,-2.62184514908292,337.048656676941
738239.69430361734703183174,-18.0205694753868,-2.68339080985951,337.011729280475
738239.69430370768532156944,-18.0082603432315,-2.69569994201483,336.925565355388
738239.69430379814002662897,-17.9220964181443,-2.53568122399569,336.937874487543
738239.69430388859473168850,-17.909787285989,-2.67108167770419,337.024038412631
738239.69430397904943674803,-18.0574968718528,-2.64646341339356,336.937874487543
738239.69430406950414180756,-18.0698060040081,-2.72031820632547,336.925565355388
738239.69430415995884686708,-17.909787285989,-2.64646341339356,336.974801884009
738239.69430425029713660479,-18.1067334004741,-2.69569994201483,336.827092298145
738239.69430434075184166431,-18.1067334004741,-2.65877254554888,337.060965809097
738239.69430443120654672384,-18.14366079694,-2.8064821314127,336.962492751854
738239.69430452166125178337,-17.9959512110762,-2.72031820632547,336.913256223233
738239.69430461211595684290,-17.9959512110762,-2.64646341339356,336.900947091077
738239.69430470245424658060,-17.9344055502996,-2.52337209184037,336.900947091077
738239.69430479290895164013,-18.1682790612506,-2.73262733848079,337.036347544786
738239.69430488336365669966,-18.0328786075421,-2.74493647063611,336.987111016165
738239.69430497381836175919,-17.8974781538336,-2.67108167770419,336.827092298145
738239.69430506427306681871,-17.9713329467655,-2.57260862046164,336.950183619699
738239.69430515472777187824,-18.0698060040081,-2.65877254554888,336.99942014832
738239.69430524506606161594,-18.2052064577166,-2.8064821314127,336.99942014832
738239.69430533552076667547,-18.0082603432315,-2.63415428123824,336.876328826767
738239.69430542597547173500,-18.0821151361634,-2.72031820632547,336.937874487543
738239.69430551643017679453,-18.0451877396975,-2.58491775261696,337.048656676941
738239.69430560688488185406,-17.8605507573677,-2.58491775261696,336.987111016165
738239.69430569722317159176,-17.835932493057,-2.63415428123824,336.950183619699
738239.69430578767787665129,-18.180588193406,-2.88033692434461,336.888637958922
738239.69430587813258171082,-18.180588193406,-2.76955473494675,336.876328826767
738239.69430596858728677034,-17.9713329467655,-2.51106295968505,337.097893205563
738239.69430605904199182987,-18.0698060040081,-2.69569994201483,337.147129734184
738239.69430614949669688940,-18.14366079694,-2.67108167770419,337.036347544786
738239.69430623983498662710,-18.1067334004741,-2.70800907417015,336.99942014832
738239.69430633028969168663,-17.9220964181443,-2.57260862046164,337.024038412631
738239.69430642074439674616,-17.9836420789209,-2.59722688477228,337.036347544786
738239.69430651119910180569,-18.1190425326294,-2.63415428123824,336.827092298145
738239.69430660165380686522,-18.180588193406,-2.73262733848079,336.913256223233
738239.69430669210851192474,-18.0205694753868,-2.73262733848079,337.048656676941
738239.69430678244680166245,-18.1682790612506,-2.96650084943185,337.085584073407
738239.69430687290150672197,-18.1928973255613,-2.74493647063611,336.900947091077
738239.69430696335621178150,-18.1682790612506,-2.69569994201483,337.060965809097
738239.69430705381091684103,-18.1067334004741,-2.6095360169276,337.097893205563
738239.69430714426562190056,-17.9836420789209,-2.78186386710206,336.765546637369
738239.69430723460391163826,-18.0205694753868,-2.64646341339356,337.024038412631
738239.69430732505861669779,-18.1067334004741,-2.53568122399569,337.048656676941
738239.69430741551332175732,-18.0944242683187,-2.52337209184037,337.048656676941
738239.69430750596802681684,-17.7005320393485,-2.31411684519995,336.864019694611
738239.69430759642273187637,-17.0973845637379,-1.83406069114251,336.617837051505
738239.69430768687743693590,-17.0112206386507,-1.84636982329783,336.470127465641
738239.69430777721572667360,-17.5774407177953,-2.96650084943185,336.248563086845
738239.69430786767043173313,-18.3036795149592,-3.70504877875098,336.556291390728
738239.69430795812513679266,-18.7344991403953,-3.70504877875098,336.864019694611
738239.69430804857984185219,-18.3529160435804,-3.05266477451908,336.839401430301
738239.69430813903454691172,-18.3898434400464,-3.10190130314035,336.925565355388
738239.69430822948925197124,-18.0574968718528,-2.79417299925738,336.99942014832
738239.69430831982754170895,-18.0205694753868,-2.69569994201483,337.048656676941
738239.69430841028224676847,-18.0451877396975,-2.70800907417015,336.962492751854
738239.69430850073695182800,-18.1928973255613,-2.8680277921893,336.913256223233
738239.69430859119165688753,-17.9836420789209,-2.73262733848079,336.900947091077
738239.69430868164636194706,-17.6389863785719,-2.19102552364676,336.876328826767
738239.69430877198465168476,-18.1190425326294,-2.56029948830632,337.220984527116
738239.69430886243935674429,-18.3159886471145,-2.92957345296589,337.110202337718
738239.69430895289406180382,-18.0205694753868,-2.76955473494675,337.011729280475
738239.69430904334876686335,-17.8482416252124,-2.49875382752973,336.950183619699
738239.69430913380347192287,-17.8974781538336,-2.46182643106377,337.011729280475
738239.69430922425817698240,-18.1190425326294,-2.65877254554888,337.085584073407
738239.69430931459646672010,-18.0328786075421,-2.59722688477228,336.876328826767
738239.69430940505117177963,-17.8236233609017,-2.56029948830632,336.900947091077
738239.69430949550587683916,-17.9713329467655,-2.56029948830632,336.937874487543
738239.69430958596058189869,-17.9344055502996,-2.43720816675314,337.147129734184
738239.69430967641528695822,-18.0821151361634,-2.62184514908292,337.048656676941
738239.69430976686999201775,-17.9344055502996,-2.63415428123824,336.974801884009
738239.69430985720828175545,-17.602058982106,-2.1540981271808,336.876328826767
738239.69430994766298681498,-18.1067334004741,-2.56029948830632,336.765546637369
738239.69431003811769187450,-18.0082603432315,-2.62184514908292,336.753237505214
738239.69431012857239693403,-17.8482416252124,-2.44951729890845,336.962492751854
738239.69431021902710199356,-17.7620777001251,-2.32642597735527,337.036347544786
738239.69431030936539173126,-17.8974781538336,-2.3510442416659,336.913256223233
738239.69431039982009679079,-17.6266772464166,-2.17871639149144,336.913256223233
738239.69431049027480185032,-17.602058982106,-2.32642597735527,336.913256223233
738239.69431058072950690985,-17.9220964181443,-2.36335337382122,336.81478316599
738239.69431067118421196938,-17.9590238146102,-2.30180771304463,336.888637958922
738239.69431076163891702890,-17.7990050965911,-2.32642597735527,337.011729280475
738239.69431085197720676661,-17.5897498499507,-1.9571520126957,337.18405713065
738239.69431094243191182613,-17.4666585283975,-1.83406069114251,337.073274941252
738239.69431103288661688566,-17.8605507573677,-2.47413556321909,336.937874487543
738239.69431112334132194519,-17.7497685679698,-2.32642597735527,337.024038412631
738239.69431121379602700472,-17.6512955107273,-2.05562506993825,336.99942014832
738239.69431130413431674242,-17.7497685679698,-2.16640725933612,337.073274941252
738239.69431139458902180195,-17.9836420789209,-2.43720816675314,337.110202337718
738239.69431148504372686148,-18.0451877396975,-2.64646341339356,336.913256223233
738239.69431157549843192101,-17.7128411715039,-2.46182643106377,336.962492751854
738239.69431166595313698053,-17.9590238146102,-2.58491775261696,336.950183619699
738239.69431175640784204006,-18.1928973255613,-2.74493647063611,337.110202337718
738239.69431184674613177776,-18.0821151361634,-2.62184514908292,337.048656676941
738239.69431193720083683729,-18.0205694753868,-2.6095360169276,337.134820602028
738239.69431202765554189682,-18.0698060040081,-2.59722688477228,337.220984527116
738239.69431211811024695635,-18.0821151361634,-2.62184514908292,337.073274941252
738239.69431220856495201588,-18.14366079694,-2.74493647063611,337.024038412631
738239.69431229901965707541,-17.9220964181443,-2.59722688477228,337.073274941252
738239.69431238935794681311,-17.872859889523,-2.59722688477228,337.073274941252
738239.69431247981265187263,-18.2790612506485,-2.99111911374248,337.024038412631
738239.69431257026735693216,-18.2667521184932,-2.94188258512121,337.036347544786
738239.69431266072206199169,-18.1190425326294,-2.59722688477228,337.048656676941
738239.69431275117676705122,-17.9344055502996,-2.43720816675314,336.99942014832
738239.69431284151505678892,-18.1928973255613,-2.79417299925738,337.048656676941
738239.69431293196976184845,-18.2421338541826,-2.92957345296589,336.99942014832
738239.69431302242446690798,-17.9344055502996,-2.63415428123824,336.888637958922
738239.69431311287917196751,-17.8113142287464,-2.40028077028718,337.024038412631
738239.69431320333387702703,-18.2298247220272,-2.74493647063611,337.048656676941
738239.69431329378858208656,-18.14366079694,-2.8680277921893,337.073274941252
738239.69431338412687182426,-18.0698060040081,-2.81879126356802,336.987111016165
738239.69431347458157688379,-18.0328786075421,-2.75724560279143,336.827092298145
738239.69431356503628194332,-18.2298247220272,-2.74493647063611,336.900947091077
738239.69431365549098700285,-18.2544429863379,-2.73262733848079,337.036347544786
738239.69431374594569206238,-18.1067334004741,-2.75724560279143,337.060965809097
738239.69431383640039712191,-18.0698060040081,-2.83110039572334,336.937874487543
738239.69431392673868685961,-18.0451877396975,-2.69569994201483,336.876328826767
738239.69431401719339191914,-18.0328786075421,-2.48644469537441,337.097893205563
738239.69431410764809697866,-17.9344055502996,-2.70800907417015,336.987111016165
738239.69431419810280203819,-18.2790612506485,-3.23730175684886,336.900947091077
738239.69431428855750709772,-18.0205694753868,-2.38797163813186,336.937874487543
738239.69431437889579683542,-18.4390799686677,-2.92957345296589,337.110202337718
738239.69431446935050189495,-18.2913703828038,-2.92957345296589,337.060965809097
738239.69431455980520695448,-18.1682790612506,-2.76955473494675,337.085584073407
738239.69431465025991201401,-18.0944242683187,-2.6095360169276,337.122511469873
738239.69431474071461707354,-18.0698060040081,-2.68339080985951,337.134820602028
738239.69431483116932213306,-18.1190425326294,-2.78186386710206,337.060965809097
738239.69431492150761187077,-17.9590238146102,-2.70800907417015,337.048656676941
738239.69431501196231693029,-18.1190425326294,-2.78186386710206,337.134820602028
738239.69431510241702198982,-18.0698060040081,-2.6095360169276,337.048656676941
738239.69431519287172704935,-18.2790612506485,-2.81879126356802,337.085584073407
738239.69431528332643210888,-18.2913703828038,-2.85571866003398,337.036347544786
738239.69431537378113716841,-18.14366079694,-2.8064821314127,336.99942014832
738239.69431546411942690611,-18.1313516647847,-2.69569994201483,337.048656676941
738239.69431555457413196564,-17.9959512110762,-2.58491775261696,337.036347544786
738239.69431564502883702517,-17.9959512110762,-2.68339080985951,337.024038412631
738239.69431573548354208469,-18.1559699290953,-2.94188258512121,336.99942014832
738239.69431582593824714422,-18.2052064577166,-2.75724560279143,337.011729280475
738239.69431591627653688192,-17.8605507573677,-2.38797163813186,337.085584073407
738239.69431600673124194145,-18.0698060040081,-2.67108167770419,337.024038412631
738239.69431609718594700098,-18.2667521184932,-2.90495518865525,337.036347544786
738239.69431618764065206051,-18.0451877396975,-2.83110039572334,336.99942014832
738239.69431627809535712004,-18.1313516647847,-2.6095360169276,337.048656676941
738239.69431636855006217957,-18.2052064577166,-2.64646341339356,337.122511469873
738239.69431645888835191727,-18.180588193406,-2.88033692434461,337.097893205563
738239.69431654934305697680,-18.0944242683187,-2.64646341339356,337.060965809097
738239.69431663979776203632,-18.2667521184932,-2.79417299925738,337.097893205563
738239.69431673025246709585,-18.1313516647847,-2.68339080985951,337.147129734184
738239.69431682070717215538,-18.1682790612506,-2.76955473494675,337.085584073407
738239.69431691104546189308,-18.4390799686677,-2.99111911374248,337.060965809097
738239.69431700150016695261,-18.1682790612506,-2.78186386710206,336.913256223233
738239.69431709195487201214,-18.1067334004741,-2.70800907417015,337.060965809097
738239.69431718240957707167,-18.3159886471145,-3.02804651020844,337.171747998494
738239.69431727286428213120,-18.1067334004741,-2.63415428123824,337.073274941252
738239.69431736331898719072,-17.9959512110762,-2.46182643106377,337.110202337718
738239.69431745365727692842,-17.5774407177953,-2.10486159855953,337.036347544786
738239.69431754411198198795,-17.2081667531358,-1.85867895545315,336.851710562456
738239.69431763456668704748,-16.9373658457188,-1.96946114485102,336.580909655039
738239.69431772502139210701,-17.4297311319315,-2.8064821314127,336.445509201331
738239.69431781547609716654,-18.3898434400464,-3.7173579109063,336.654764447971
738239.69431790593080222607,-18.7714265368613,-3.69273964659566,336.99942014832
738239.69431799626909196377,-18.4760073651336,-3.27422915331482,336.987111016165
738239.69431808672379702330,-18.4267708365123,-3.17575609607227,336.937874487543
738239.69431817717850208282,-18.2421338541826,-2.78186386710206,337.122511469873
738239.69431826763320714235,-18.1190425326294,-2.67108167770419,337.147129734184
738239.69431835808791220188,-17.9590238146102,-2.54799035615101,337.122511469873
738239.69431844842620193958,-18.3406069114251,-2.94188258512121,337.073274941252
738239.69431853888090699911,-18.2298247220272,-2.81879126356802,337.110202337718
738239.69431862933561205864,-18.1682790612506,-2.79417299925738,337.097893205563
738239.69431871979031711817,-18.2298247220272,-2.90495518865525,337.060965809097
738239.69431881024502217770,-18.0821151361634,-2.68339080985951,337.097893205563
738239.69431890069972723722,-17.835932493057,-2.46182643106377,337.110202337718
738239.69431899103801697493,-18.2913703828038,-2.76955473494675,337.048656676941
738239.69431908149272203445,-18.1559699290953,-2.67108167770419,337.097893205563
738239.69431917194742709398,-18.0944242683187,-2.73262733848079,337.060965809097
738239.69431926240213215351,-18.1190425326294,-2.65877254554888,337.134820602028
738239.69431935285683721304,-17.9713329467655,-2.52337209184037,337.073274941252
738239.69431944331154227257,-17.9220964181443,-2.44951729890845,337.159438866339
738239.69431953364983201027,-18.2175155898719,-2.8064821314127,337.147129734184
738239.69431962410453706980,-17.6143681142613,-2.28949858088931,337.110202337718
738239.69431971455924212933,-17.9590238146102,-2.53568122399569,336.937874487543
738239.69431980501394718885,-18.3036795149592,-2.88033692434461,337.060965809097
738239.69431989546865224838,-17.9590238146102,-2.65877254554888,337.085584073407
738239.69431998580694198608,-17.8851690216783,-2.28949858088931,337.097893205563
738239.69432007626164704561,-17.6512955107273,-2.1540981271808,337.036347544786
738239.69432016671635210514,-18.0698060040081,-2.54799035615101,337.085584073407
738239.69432025717105716467,-18.1067334004741,-2.65877254554888,337.110202337718
738239.69432034762576222420,-17.9836420789209,-2.51106295968505,337.011729280475
738239.69432043808046728373,-17.872859889523,-2.37566250597654,337.036347544786
738239.69432052841875702143,-17.3804946033102,-1.98177027700634,336.925565355388
738239.69432061887346208096,-17.8482416252124,-2.38797163813186,336.888637958922
738239.69432070932816714048,-18.0574968718528,-2.40028077028718,337.048656676941
738239.69432079978287220001,-17.6759137750379,-2.10486159855953,337.073274941252
738239.69432089023757725954,-17.872859889523,-2.31411684519995,336.99942014832
738239.69432098069228231907,-17.8236233609017,-2.30180771304463,336.962492751854
738239.69432107103057205677,-17.56513158564,-2.04331593778293,336.987111016165
738239.69432116148527711630,-17.7497685679698,-2.20333465580208,336.987111016165
738239.69432125193998217583,-17.6636046428826,-2.14178899502548,337.011729280475
738239.69432134239468723536,-17.9590238146102,-2.56029948830632,337.011729280475
738239.69432143284939229488,-18.1067334004741,-2.72031820632547,336.962492751854
738239.69432152318768203259,-17.909787285989,-2.4125899024425,337.036347544786
738239.69432161364238709211,-17.7128411715039,-2.26488031657867,336.950183619699
738239.69432170409709215164,-18.2175155898719,-2.84340952787866,337.011729280475
738239.69432179455179721117,-18.3652251757358,-2.96650084943185,337.073274941252
738239.69432188500650227070,-18.0821151361634,-2.76955473494675,337.097893205563
738239.69432197546120733023,-17.9344055502996,-2.57260862046164,336.987111016165
738239.69432206579949706793,-18.1190425326294,-2.6095360169276,336.974801884009
738239.69432215625420212746,-18.2175155898719,-2.78186386710206,336.99942014832
738239.69432224670890718699,-18.0574968718528,-2.63415428123824,336.974801884009
738239.69432233716361224651,-17.9467146824549,-2.53568122399569,336.937874487543
738239.69432242761831730604,-17.9713329467655,-2.58491775261696,336.987111016165
738239.69432251795660704374,-18.2421338541826,-2.90495518865525,336.900947091077
738239.69432260841131210327,-18.5375530259102,-3.18806522822759,336.888637958922
738239.69432269886601716280,-18.180588193406,-2.75724560279143,337.122511469873
738239.69432278932072222233,-18.0821151361634,-2.69569994201483,337.134820602028
738239.69432287977542728186,-18.1682790612506,-2.85571866003398,337.085584073407
738239.69432297023013234138,-17.8113142287464,-2.37566250597654,337.036347544786
738239.69432306056842207909,-17.8482416252124,-2.33873510951058,337.073274941252
738239.69432315102312713861,-18.0082603432315,-2.49875382752973,337.171747998494
738239.69432324147783219814,-18.2298247220272,-2.84340952787866,337.110202337718
738239.69432333193253725767,-18.3775343078911,-2.96650084943185,337.060965809097
738239.69432342238724231720,-18.5375530259102,-3.10190130314035,337.048656676941
738239.69432351284194737673,-18.2421338541826,-2.8064821314127,337.110202337718
738239.69432360318023711443,-17.7866959644358,-2.46182643106377,337.097893205563
738239.69432369363494217396,-17.8482416252124,-2.49875382752973,337.122511469873
738239.69432378408964723349,-18.5867895545315,-3.11421043529567,337.097893205563
738239.69432387454435229301,-18.3159886471145,-3.0034282458978,336.99942014832
738239.69432396499905735254,-18.5375530259102,-3.23730175684886,337.073274941252
738239.69432405533734709024,-18.1190425326294,-2.62184514908292,337.060965809097
738239.69432414579205214977,-17.9344055502996,-2.42489903459782,337.036347544786
738239.69432423624675720930,-18.414461704357,-2.97880998158717,337.060965809097
738239.69432432670146226883,-18.2052064577166,-2.78186386710206,337.060965809097
738239.69432441715616732836,-18.0574968718528,-2.68339080985951,337.024038412631
738239.69432450761087238789,-18.1190425326294,-2.74493647063611,337.048656676941
738239.69432459794916212559,-18.0944242683187,-2.76955473494675,336.962492751854
738239.69432468840386718512,-18.1928973255613,-2.95419171727653,336.876328826767
738239.69432477885857224464,-18.5867895545315,-3.13882869960631,337.024038412631
738239.69432486931327730417,-18.4390799686677,-2.91726432081057,337.060965809097
738239.69432495976798236370,-18.3282977792698,-2.88033692434461,337.134820602028
738239.69432505022268742323,-18.2667521184932,-2.76955473494675,337.011729280475
738239.69432514056097716093,-18.2421338541826,-2.76955473494675,337.011729280475
738239.69432523101568222046,-18.2175155898719,-2.78186386710206,337.048656676941
738239.69432532147038727999,-18.2175155898719,-2.8064821314127,336.950183619699
738239.69432541192509233952,-18.2175155898719,-2.88033692434461,337.024038412631
738239.69432550237979739904,-18.2052064577166,-2.95419171727653,336.987111016165
738239.69432559271808713675,-18.14366079694,-2.78186386710206,337.024038412631
738239.69432568317279219627,-18.1928973255613,-2.78186386710206,336.888637958922
738239.69432577362749725580,-18.1559699290953,-2.74493647063611,336.925565355388
738239.69432586408220231533,-18.0328786075421,-2.64646341339356,337.134820602028
738239.69432595453690737486,-18.0821151361634,-2.74493647063611,337.073274941252
738239.69432604499161243439,-18.2667521184932,-2.83110039572334,336.962492751854
738239.69432613532990217209,-18.2544429863379,-2.69569994201483,336.99942014832
738239.69432622578460723162,-18.2544429863379,-2.83110039572334,336.974801884009
738239.69432631623931229115,-18.1928973255613,-2.94188258512121,336.925565355388
738239.69432640669401735067,-18.2052064577166,-2.73262733848079,337.024038412631
738239.69432649714872241020,-18.1928973255613,-2.59722688477228,337.048656676941
738239.69432658760342746973,-18.2790612506485,-2.88033692434461,337.085584073407
738239.69432667794171720743,-18.3282977792698,-2.95419171727653,336.987111016165
738239.69432676839642226696,-18.3282977792698,-2.89264605649993,336.937874487543
738239.69432685885112732649,-18.3898434400464,-2.85571866003398,336.950183619699
738239.69432694930583238602,-18.3036795149592,-2.8680277921893,337.134820602028
738239.69432703976053744555,-18.2790612506485,-2.95419171727653,337.134820602028
738239.69432713009882718325,-18.2421338541826,-2.83110039572334,337.110202337718
738239.69432722055353224277,-18.3159886471145,-2.72031820632547,337.085584073407
738239.69432731100823730230,-18.1559699290953,-2.67108167770419,336.987111016165
738239.69432740146294236183,-17.6882229071932,-2.3510442416659,336.839401430301
738239.69432749191764742136,-17.294330678223,-2.10486159855953,336.433200069175
738239.69432758237235248089,-16.8881293170975,-2.05562506993825,336.334727011933
738239.69432767271064221859,-17.6759137750379,-3.04035564236376,336.322417879777
738239.69432776316534727812,-18.8329721976379,-3.86506749677012,336.691691844437
738239.69432785362005233765,-19.0053000478123,-3.74197617521694,336.974801884009
738239.69432794407475739717,-18.5006256294443,-3.21268349253822,336.99942014832
738239.69432803452946245670,-18.2421338541826,-2.95419171727653,336.950183619699
738239.69432812486775219440,-18.2544429863379,-2.92957345296589,336.864019694611
738239.69432821532245725393,-18.3036795149592,-2.81879126356802,336.888637958922
738239.69432830577716231346,-18.2175155898719,-2.79417299925738,337.134820602028
738239.69432839623186737299,-18.14366079694,-2.74493647063611,337.036347544786
738239.69432848668657243252,-18.0821151361634,-2.68339080985951,337.110202337718
738239.69432857714127749205,-18.2544429863379,-2.94188258512121,336.950183619699
738239.69432866747956722975,-18.2421338541826,-2.88033692434461,336.864019694611
738239.69432875793427228928,-18.2298247220272,-2.69569994201483,337.134820602028
738239.69432884838897734880,-18.1928973255613,-2.68339080985951,337.110202337718
738239.69432893884368240833,-18.1682790612506,-2.76955473494675,336.962492751854
738239.69432902929838746786,-18.14366079694,-2.81879126356802,336.851710562456
738239.69432911975309252739,-18.0451877396975,-2.52337209184037,337.122511469873
738239.69432921009138226509,-18.0821151361634,-2.58491775261696,337.134820602028
738239.69432930054608732462,-18.1313516647847,-2.72031820632547,336.937874487543
738239.69432939100079238415,-18.0821151361634,-2.73262733848079,337.024038412631
738239.69432948145549744368,-18.0451877396975,-2.56029948830632,337.024038412631
738239.69432957191020250320,-18.0698060040081,-2.59722688477228,336.950183619699
738239.69432966224849224091,-18.1067334004741,-2.76955473494675,336.864019694611
738239.69432975270319730043,-18.0451877396975,-2.6095360169276,337.097893205563
738239.69432984315790235996,-18.0205694753868,-2.44951729890845,337.060965809097
738239.69432993361260741949,-17.9959512110762,-2.48644469537441,336.937874487543
738239.69433002406731247902,-18.0082603432315,-2.56029948830632,336.987111016165
738239.69433011452201753855,-17.9590238146102,-2.49875382752973,336.987111016165
738239.69433020486030727625,-17.8851690216783,-2.43720816675314,337.048656676941
738239.69433029531501233578,-17.872859889523,-2.49875382752973,336.974801884009
738239.69433038576971739531,-17.8113142287464,-2.46182643106377,337.011729280475
738239.69433047622442245483,-17.8482416252124,-2.40028077028718,336.974801884009
738239.69433056667912751436,-17.909787285989,-2.31411684519995,336.99942014832
738239.69433065713383257389,-17.8851690216783,-2.40028077028718,336.937874487543
738239.69433074747212231159,-17.835932493057,-2.28949858088931,336.827092298145
738239.69433083792682737112,-17.8236233609017,-2.32642597735527,337.011729280475
738239.69433092838153243065,-17.7990050965911,-2.30180771304463,336.974801884009
738239.69433101883623749018,-17.8113142287464,-2.27718944873399,336.913256223233
738239.69433110929094254971,-17.7866959644358,-2.28949858088931,336.839401430301
738239.69433119962923228741,-17.835932493057,-2.3510442416659,336.839401430301
738239.69433129008393734694,-17.9590238146102,-2.47413556321909,336.950183619699
738239.69433138053864240646,-18.0574968718528,-2.59722688477228,336.950183619699
738239.69433147099334746599,-18.0944242683187,-2.62184514908292,337.024038412631
738239.69433156144805252552,-18.0944242683187,-2.63415428123824,337.097893205563
738239.69433165190275758505,-18.1067334004741,-2.68339080985951,336.962492751854
738239.69433174224104732275,-18.1928973255613,-2.73262733848079,337.048656676941
738239.69433183269575238228,-18.1928973255613,-2.72031820632547,337.048656676941
738239.69433192315045744181,-18.1559699290953,-2.69569994201483,336.99942014832
738239.69433201360516250134,-18.1190425326294,-2.68339080985951,337.060965809097
738239.69433210405986756086,-18.2052064577166,-2.76955473494675,337.060965809097
738239.69433219451457262039,-18.2175155898719,-2.81879126356802,337.085584073407
738239.69433228485286235809,-18.1682790612506,-2.74493647063611,337.060965809097
738239.69433237530756741762,-18.1928973255613,-2.69569994201483,337.073274941252
738239.69433246576227247715,-18.2175155898719,-2.68339080985951,337.073274941252
738239.69433255621697753668,-18.2667521184932,-2.78186386710206,337.011729280475
738239.69433264667168259621,-18.2175155898719,-2.73262733848079,336.987111016165
738239.69433273700997233391,-18.2175155898719,-2.75724560279143,336.987111016165
738239.69433282746467739344,-18.1928973255613,-2.78186386710206,337.060965809097
738239.69433291791938245296,-18.2052064577166,-2.74493647063611,337.097893205563
738239.69433300837408751249,-18.2175155898719,-2.79417299925738,336.99942014832
738239.69433309882879257202,-18.1682790612506,-2.73262733848079,337.060965809097
738239.69433318928349763155,-18.2544429863379,-2.74493647063611,337.171747998494
738239.69433327962178736925,-18.2421338541826,-2.73262733848079,336.827092298145
738239.69433337007649242878,-18.2544429863379,-2.8064821314127,336.99942014832
738239.69433346053119748831,-18.2421338541826,-2.75724560279143,337.085584073407
738239.69433355098590254784,-18.2544429863379,-2.75724560279143,337.097893205563
738239.69433364144060760736,-18.2421338541826,-2.74493647063611,337.134820602028
738239.69433373177889734507,-18.2421338541826,-2.8064821314127,337.159438866339
738239.69433382223360240459,-18.2421338541826,-2.8064821314127,337.036347544786
738239.69433391268830746412,-18.180588193406,-2.64646341339356,337.110202337718
738239.69433400314301252365,-18.2421338541826,-2.72031820632547,337.036347544786
738239.69433409359771758318,-18.2667521184932,-2.84340952787866,336.974801884009
738239.69433418405242264271,-18.2790612506485,-2.85571866003398,337.134820602028
738239.69433427439071238041,-18.2790612506485,-2.81879126356802,337.20867539496
738239.69433436484541743994,-18.2667521184932,-2.76955473494675,337.036347544786
738239.69433445530012249947,-18.2913703828038,-2.85571866003398,336.888637958922
738239.69433454575482755899,-18.2544429863379,-2.83110039572334,336.777855769524
738239.69433463620953261852,-18.2544429863379,-2.73262733848079,337.196366262805
738239.69433472666423767805,-18.2667521184932,-2.74493647063611,337.110202337718
738239.69433481700252741575,-18.2667521184932,-2.73262733848079,337.085584073407
738239.69433490745723247528,-18.2544429863379,-2.79417299925738,336.974801884009
738239.69433499791193753481,-18.1928973255613,-2.75724560279143,336.839401430301
738239.69433508836664259434,-18.2667521184932,-2.70800907417015,337.073274941252
738239.69433517882134765387,-18.3282977792698,-2.79417299925738,337.097893205563
738239.69433526915963739157,-18.3036795149592,-2.88033692434461,337.048656676941
738239.69433535961434245110,-18.2913703828038,-2.84340952787866,336.962492751854
738239.69433545006904751062,-18.3036795149592,-2.83110039572334,336.900947091077
738239.69433554052375257015,-18.2544429863379,-2.84340952787866,337.331766716514
738239.69433563097845762968,-18.180588193406,-2.74493647063611,337.122511469873
738239.69433572143316268921,-18.2298247220272,-2.75724560279143,337.085584073407
738239.69433581177145242691,-18.180588193406,-2.72031820632547,337.060965809097
738239.69433590222615748644,-18.2298247220272,-2.72031820632547,336.913256223233
738239.69433599268086254597,-18.2298247220272,-2.74493647063611,337.073274941252
738239.69433608313556760550,-18.2052064577166,-2.74493647063611,337.18405713065
738239.69433617359027266502,-18.180588193406,-2.65877254554888,337.18405713065
738239.69433626404497772455,-18.2544429863379,-2.79417299925738,337.048656676941
738239.69433635438326746225,-18.3036795149592,-2.95419171727653,336.937874487543
738239.69433644483797252178,-18.2790612506485,-2.67108167770419,337.245602791426
738239.69433653529267758131,-18.3406069114251,-2.76955473494675,337.270221055737
738239.69433662574738264084,-18.3036795149592,-2.78186386710206,337.085584073407
738239.69433671620208770037,-18.3159886471145,-2.79417299925738,337.048656676941
738239.69433680654037743807,-18.3282977792698,-2.89264605649993,337.110202337718
738239.69433689699508249760,-18.3159886471145,-2.79417299925738,337.20867539496
738239.69433698744978755713,-18.2790612506485,-2.73262733848079,337.20867539496
738239.69433707790449261665,-18.3159886471145,-2.76955473494675,337.036347544786
738239.69433716835919767618,-18.3159886471145,-2.81879126356802,337.134820602028
738239.69433725881390273571,-18.2913703828038,-2.70800907417015,337.196366262805
738239.69433734915219247341,-18.0944242683187,-2.48644469537441,337.073274941252
738239.69433743960689753294,-17.6636046428826,-2.27718944873399,336.827092298145
738239.69433753006160259247,-17.2697124139124,-2.16640725933612,336.753237505214
738239.69433762051630765200,-17.1343119602039,-2.46182643106377,336.396272672709
738239.69433771097101271152,-18.0451877396975,-3.33577481409141,336.457818333486
738239.69433780142571777105,-19.0176091799676,-3.87737662892544,337.060965809097
738239.69433789176400750875,-19.0545365764336,-3.76659443952757,337.122511469873
738239.69433798221871256828,-18.5867895545315,-3.33577481409141,337.011729280475
738239.69433807267341762781,-18.3159886471145,-2.99111911374248,336.99942014832
738239.69433816312812268734,-18.2544429863379,-2.76955473494675,336.974801884009
738239.69433825358282774687,-18.3159886471145,-2.8064821314127,336.913256223233
738239.69433834392111748457,-18.2790612506485,-2.8064821314127,336.987111016165
738239.69433843437582254410,-18.2175155898719,-2.75724560279143,337.024038412631
738239.69433852483052760363,-18.2667521184932,-2.78186386710206,337.011729280475
738239.69433861528523266315,-18.2913703828038,-2.79417299925738,337.073274941252
738239.69433870573993772268,-18.2298247220272,-2.75724560279143,336.987111016165
738239.69433879619464278221,-18.2790612506485,-2.81879126356802,336.950183619699
738239.69433888653293251991,-18.2298247220272,-2.73262733848079,337.097893205563
738239.69433897698763757944,-18.2052064577166,-2.70800907417015,337.060965809097
738239.69433906744234263897,-18.1928973255613,-2.69569994201483,337.036347544786
738239.69433915789704769850,-18.180588193406,-2.69569994201483,337.024038412631
738239.69433924835175275803,-18.1682790612506,-2.72031820632547,336.974801884009
738239.69433933869004249573,-18.1559699290953,-2.67108167770419,336.99942014832
738239.69433942914474755526,-18.1190425326294,-2.6095360169276,336.974801884009
738239.69433951959945261478,-18.0328786075421,-2.53568122399569,337.060965809097
738239.69433961005415767431,-18.1067334004741,-2.63415428123824,336.974801884009
738239.69433970050886273384,-18.2175155898719,-2.73262733848079,336.937874487543
738239.69433979096356779337,-18.14366079694,-2.67108167770419,337.085584073407
738239.69433988130185753107,-18.0821151361634,-2.63415428123824,337.18405713065
738239.69433997175656259060,-18.0944242683187,-2.57260862046164,337.097893205563
738239.69434006221126765013,-18.0698060040081,-2.54799035615101,337.097893205563
738239.69434015266597270966,-18.0205694753868,-2.56029948830632,337.085584073407
738239.69434024312067776918,-17.9959512110762,-2.54799035615101,337.048656676941
738239.69434033357538282871,-17.9836420789209,-2.48644469537441,336.962492751854
738239.69434042391367256641,-17.9590238146102,-2.4125899024425,337.122511469873
738239.69434051436837762594,-17.9344055502996,-2.40028077028718,337.171747998494
738239.69434060482308268547,-17.872859889523,-2.36335337382122,337.011729280475
738239.69434069527778774500,-17.872859889523,-2.40028077028718,337.060965809097
738239.69434078573249280453,-17.9713329467655,-2.4125899024425,337.097893205563
738239.69434087607078254223,-17.9344055502996,-2.37566250597654,337.024038412631
738239.69434096652548760176,-17.909787285989,-2.43720816675314,336.99942014832
738239.69434105698019266129,-17.8605507573677,-2.37566250597654,337.147129734184
738239.69434114743489772081,-17.8236233609017,-2.2156437879574,337.159438866339
738239.69434123788960278034,-18.1067334004741,-2.58491775261696,337.060965809097
738239.69434132834430783987,-18.0328786075421,-2.54799035615101,336.99942014832
738239.69434141868259757757,-18.14366079694,-2.67108167770419,337.110202337718
738239.69434150913730263710,-18.14366079694,-2.64646341339356,336.987111016165
738239.69434159959200769663,-18.1313516647847,-2.63415428123824,337.036347544786
738239.69434169004671275616,-18.2175155898719,-2.72031820632547,337.060965809097
738239.69434178050141781569,-18.180588193406,-2.74493647063611,336.81478316599
738239.69434187095612287521,-18.1682790612506,-2.75724560279143,336.974801884009
738239.69434196129441261292,-18.2790612506485,-2.85571866003398,337.036347544786
738239.69434205174911767244,-18.2790612506485,-2.81879126356802,337.048656676941
738239.69434214220382273197,-18.2175155898719,-2.63415428123824,337.073274941252
738239.69434223265852779150,-18.2052064577166,-2.67108167770419,337.097893205563
738239.69434232311323285103,-18.2790612506485,-2.75724560279143,336.987111016165
738239.69434241345152258873,-18.0944242683187,-2.57260862046164,337.147129734184
738239.69434250390622764826,-18.2052064577166,-2.6095360169276,337.134820602028
738239.69434259436093270779,-18.2790612506485,-2.67108167770419,337.060965809097
738239.69434268481563776731,-18.2790612506485,-2.67108167770419,337.147129734184
738239.69434277527034282684,-18.3036795149592,-2.64646341339356,337.036347544786
738239.69434286572504788637,-18.2421338541826,-2.62184514908292,337.060965809097
738239.69434295606333762407,-18.2298247220272,-2.58491775261696,337.048656676941
738239.69434304651804268360,-18.2298247220272,-2.43720816675314,337.036347544786
738239.69434313697274774313,-18.2298247220272,-2.40028077028718,337.048656676941
738239.69434322742745280266,-18.2421338541826,-2.42489903459782,337.011729280475
738239.69434331788215786219,-18.2421338541826,-2.40028077028718,336.962492751854
738239.69434340833686292171,-18.2421338541826,-2.3510442416659,337.024038412631
738239.69434349867515265942,-18.2052064577166,-2.33873510951058,337.060965809097
738239.69434358912985771894,-18.180588193406,-2.31411684519995,337.073274941252
738239.69434367958456277847,-18.2544429863379,-2.37566250597654,337.011729280475
738239.69434377003926783800,-18.2667521184932,-2.36335337382122,337.011729280475
738239.69434386049397289753,-18.2175155898719,-2.31411684519995,337.159438866339
738239.69434395083226263523,-18.2298247220272,-2.31411684519995,337.085584073407
738239.69434404128696769476,-18.2790612506485,-2.3510442416659,337.18405713065
738239.69434413174167275429,-18.2667521184932,-2.33873510951058,337.159438866339
738239.69434422219637781382,-18.2790612506485,-2.3510442416659,337.159438866339
738239.69434431265108287334,-18.2298247220272,-2.33873510951058,337.122511469873
738239.69434440310578793287,-18.2298247220272,-2.30180771304463,337.159438866339
738239.69434449344407767057,-18.2544429863379,-2.3510442416659,337.147129734184
738239.69434458389878273010,-18.3036795149592,-2.40028077028718,337.122511469873
738239.69434467435348778963,-18.2790612506485,-2.37566250597654,337.196366262805
738239.69434476480819284916,-18.2790612506485,-2.37566250597654,337.196366262805
738239.69434485526289790869,-18.2913703828038,-2.36335337382122,337.085584073407
738239.69434494560118764639,-18.2790612506485,-2.3510442416659,337.159438866339
738239.69434503605589270592,-18.2544429863379,-2.31411684519995,337.159438866339
738239.69434512651059776545,-18.2667521184932,-2.31411684519995,337.159438866339
738239.69434521696530282497,-18.2790612506485,-2.32642597735527,337.085584073407
738239.69434530742000788450,-18.2913703828038,-2.30180771304463,336.99942014832
738239.69434539787471294403,-18.2790612506485,-2.26488031657867,337.171747998494
738239.69434548821300268173,-18.2667521184932,-2.27718944873399,337.18405713065
738239.69434557866770774126,-18.2544429863379,-2.2156437879574,337.147129734184
738239.69434566912241280079,-18.2913703828038,-2.22795292011272,337.122511469873
738239.69434575957711786032,-18.2298247220272,-2.20333465580208,337.122511469873
738239.69434585003182291985,-18.1928973255613,-2.16640725933612,337.011729280475
738239.69434594048652797937,-18.2913703828038,-2.30180771304463,337.011729280475
738239.69434603082481771708,-18.2175155898719,-2.24026205226803,337.073274941252
738239.69434612127952277660,-18.2052064577166,-2.2156437879574,337.048656676941
738239.69434621173422783613,-18.2052064577166,-2.24026205226803,337.122511469873
738239.69434630218893289566,-18.2298247220272,-2.26488031657867,337.171747998494
738239.69434639264363795519,-18.2298247220272,-2.26488031657867,337.085584073407
738239.69434648298192769289,-18.2298247220272,-2.27718944873399,337.036347544786
738239.69434657343663275242,-18.2913703828038,-2.3510442416659,337.110202337718
738239.69434666389133781195,-18.3036795149592,-2.37566250597654,337.20867539496
738239.69434675434604287148,-18.3159886471145,-2.40028077028718,337.134820602028
738239.69434684480074793100,-18.3036795149592,-2.36335337382122,337.110202337718
738239.69434693525545299053,-18.3036795149592,-2.36335337382122,337.233293659271
738239.69434702559374272823,-18.3159886471145,-2.36335337382122,337.18405713065
738239.69434711604844778776,-18.3529160435804,-2.37566250597654,337.036347544786
738239.69434720650315284729,-18.3036795149592,-2.32642597735527,337.060965809097
738239.69434729695785790682,-18.2913703828038,-2.27718944873399,337.159438866339
738239.69434738741256296635,-18.3036795149592,-2.26488031657867,337.196366262805
738239.69434747786726802588,-18.2913703828038,-2.17871639149144,337.220984527116
738239.69434756820555776358,-18.0082603432315,-1.90791548407442,337.110202337718
738239.69434765866026282310,-17.5774407177953,-1.53864151941486,337.097893205563
738239.69434774911496788263,-17.2327850174464,-1.35400453708508,336.740928373058
738239.69434783956967294216,-17.4666585283975,-2.01869767347229,336.408581804865
738239.69434793002437800169,-18.5252438937549,-2.96650084943185,336.667073580126
738239.69434802036266773939,-19.0422274442783,-3.20037436038291,336.937874487543
738239.69434811081737279892,-18.7344991403953,-2.84340952787866,337.011729280475
738239.69434820127207785845,-18.4021525722017,-2.43720816675314,337.011729280475
738239.69434829172678291798,-18.3159886471145,-2.28949858088931,337.134820602028
738239.69434838218148797750,-18.2913703828038,-2.24026205226803,337.18405713065
738239.69434847263619303703,-18.3036795149592,-2.22795292011272,337.097893205563
738239.69434856297448277473,-18.2913703828038,-2.20333465580208,337.159438866339
738239.69434865342918783426,-18.2913703828038,-2.17871639149144,337.159438866339
738239.69434874388389289379,-18.2913703828038,-2.19102552364676,336.937874487543
738239.69434883433859795332,-18.2667521184932,-2.16640725933612,337.048656676941
738239.69434892479330301285,-18.2790612506485,-2.16640725933612,337.171747998494
738239.69434901524800807238,-18.2667521184932,-2.1540981271808,337.171747998494
738239.69434910558629781008,-18.2667521184932,-2.1540981271808,337.134820602028
738239.69434919604100286961,-18.2544429863379,-2.12947986287016,337.18405713065
738239.69434928649570792913,-18.2421338541826,-2.11717073071485,337.18405713065
738239.69434937695041298866,-18.2421338541826,-2.10486159855953,337.147129734184
738239.69434946740511804819,-18.2298247220272,-2.09255246640421,337.171747998494
738239.69434955774340778589,-18.2175155898719,-2.08024333424889,337.122511469873
738239.69434964819811284542,-18.2052064577166,-2.05562506993825,337.134820602028
738239.69434973865281790495,-18.180588193406,-2.01869767347229,337.073274941252
738239.69434982910752296448,-18.1682790612506,-2.01869767347229,337.036347544786
738239.69434991956222802401,-18.1682790612506,-1.99407940916166,337.048656676941
738239.69435001001693308353,-18.1313516647847,-1.9571520126957,337.036347544786
738239.69435010035522282124,-18.1190425326294,-1.93253374838506,337.097893205563
738239.69435019080992788076,-18.1190425326294,-1.93253374838506,337.048656676941
738239.69435028126463294029,-18.0944242683187,-1.88329721976379,337.048656676941
738239.69435037171933799982,-18.0698060040081,-1.87098808760847,336.99942014832
738239.69435046217404305935,-18.0574968718528,-1.85867895545315,337.060965809097
738239.69435055251233279705,-18.0574968718528,-1.83406069114251,337.097893205563
738239.69435064296703785658,-18.0328786075421,-1.79713329467655,337.134820602028
738239.69435073342174291611,-18.0205694753868,-1.78482416252124,337.085584073407
738239.69435082387644797564,-18.0205694753868,-1.77251503036592,337.085584073407
738239.69435091433115303516,-17.9959512110762,-1.77251503036592,337.060965809097
738239.69435100478585809469,-17.9836420789209,-1.74789676605528,337.097893205563
738239.69435109512414783239,-17.9836420789209,-1.73558763389996,337.097893205563
738239.69435118557885289192,-18.0082603432315,-1.7602058982106,337.122511469873
738239.69435127603355795145,-18.0205694753868,-1.74789676605528,337.110202337718
738239.69435136648826301098,-18.0451877396975,-1.78482416252124,337.073274941252
738239.69435145694296807051,-18.0698060040081,-1.84636982329783,337.122511469873
738239.69435154739767313004,-18.1313516647847,-1.90791548407442,337.110202337718
738239.69435163773596286774,-18.1682790612506,-1.94484288054038,337.073274941252
738239.69435172819066792727,-18.2052064577166,-2.00638854131698,337.085584073407
738239.69435181864537298679,-18.2421338541826,-2.04331593778293,337.122511469873
738239.69435190910007804632,-18.2544429863379,-2.06793420209357,337.060965809097
738239.69435199955478310585,-18.2790612506485,-2.08024333424889,337.134820602028
738239.69435208989307284355,-18.2790612506485,-2.09255246640421,337.097893205563
738239.69435218034777790308,-18.2790612506485,-2.09255246640421,337.18405713065
738239.69435227080248296261,-18.2913703828038,-2.10486159855953,336.962492751854
738239.69435236125718802214,-18.3036795149592,-2.10486159855953,336.900947091077
738239.69435245171189308167,-18.2913703828038,-2.10486159855953,337.097893205563
738239.69435254216659814119,-18.2913703828038,-2.11717073071485,337.159438866339
738239.69435263250488787889,-18.2913703828038,-2.10486159855953,337.18405713065
738239.69435272295959293842,-18.2913703828038,-2.11717073071485,337.134820602028
738239.69435281341429799795,-18.2913703828038,-2.11717073071485,337.147129734184
738239.69435290386900305748,-18.3036795149592,-2.10486159855953,337.20867539496
738239.69435299432370811701,-18.3036795149592,-2.11717073071485,337.134820602028
738239.69435308477841317654,-18.3036795149592,-2.10486159855953,337.110202337718
738239.69435317511670291424,-18.3036795149592,-2.11717073071485,337.060965809097
738239.69435326557140797377,-18.3036795149592,-2.11717073071485,337.073274941252
738239.69435335602611303329,-18.3036795149592,-2.11717073071485,337.060965809097
738239.69435344648081809282,-18.3159886471145,-2.12947986287016,337.024038412631
738239.69435353693552315235,-18.3159886471145,-2.12947986287016,337.073274941252
738239.69435362727381289005,-18.3159886471145,-2.12947986287016,337.122511469873
738239.69435371772851794958,-18.3159886471145,-2.14178899502548,337.122511469873
738239.69435380818322300911,-18.3282977792698,-2.14178899502548,337.073274941252
738239.69435389863792806864,-18.3282977792698,-2.14178899502548,337.085584073407
738239.69435398909263312817,-18.3282977792698,-2.12947986287016,337.097893205563
738239.69435407954733818769,-18.3282977792698,-2.14178899502548,337.134820602028
738239.69435416988562792540,-18.3282977792698,-2.1540981271808,337.097893205563
738239.69435426034033298492,-18.3282977792698,-2.14178899502548,337.073274941252
738239.69435435079503804445,-18.3406069114251,-2.14178899502548,337.060965809097
738239.69435444124974310398,-18.3406069114251,-2.14178899502548,337.122511469873
738239.69435453170444816351,-18.3406069114251,-2.14178899502548,337.073274941252
738239.69435462215915322304,-18.3406069114251,-2.14178899502548,337.159438866339
738239.69435471249744296074,-18.3282977792698,-2.14178899502548,337.171747998494
738239.69435480295214802027,-18.3282977792698,-2.14178899502548,337.073274941252
738239.69435489340685307980,-18.3406069114251,-2.14178899502548,337.122511469873
738239.69435498386155813932,-18.3282977792698,-2.14178899502548,337.18405713065
738239.69435507431626319885,-18.3159886471145,-2.12947986287016,337.196366262805
738239.69435516465455293655,-18.3282977792698,-2.12947986287016,337.060965809097
738239.69435525510925799608,-18.3282977792698,-2.12947986287016,337.147129734184
738239.69435534556396305561,-18.3282977792698,-2.12947986287016,337.18405713065
738239.69435543601866811514,-18.3159886471145,-2.11717073071485,337.097893205563
738239.69435552647337317467,-18.3159886471145,-2.11717073071485,337.171747998494
738239.69435561692807823420,-18.3282977792698,-2.12947986287016,337.159438866339
738239.69435570726636797190,-18.3282977792698,-2.14178899502548,337.110202337718
738239.69435579772107303143,-18.3282977792698,-2.14178899502548,336.962492751854
738239.69435588817577809095,-18.3159886471145,-2.14178899502548,337.048656676941
738239.69435597863048315048,-18.2913703828038,-2.12947986287016,337.122511469873
738239.69435606908518821001,-18.2790612506485,-2.11717073071485,337.048656676941
738239.69435615942347794771,-18.2544429863379,-2.06793420209357,337.147129734184
738239.69435624987818300724,-18.2298247220272,-2.04331593778293,337.134820602028
738239.69435634033288806677,-18.2421338541826,-2.01869767347229,337.147129734184
738239.69435643078759312630,-18.2421338541826,-2.04331593778293,337.110202337718
738239.69435652124229818583,-18.2667521184932,-2.05562506993825,337.147129734184
738239.69435661169700324535,-18.2790612506485,-2.04331593778293,337.20867539496
738239.69435670203529298306,-18.3036795149592,-2.08024333424889,337.073274941252
738239.69435679248999804258,-18.3036795149592,-2.11717073071485,337.18405713065
738239.69435688294470310211,-18.3282977792698,-2.11717073071485,337.171747998494
738239.69435697339940816164,-18.3529160435804,-2.14178899502548,337.196366262805
738239.69435706385411322117,-18.3282977792698,-2.14178899502548,337.122511469873
738239.69435715430881828070,-18.3282977792698,-2.14178899502548,337.196366262805
738239.69435724464710801840,-18.3406069114251,-2.14178899502548,337.171747998494
738239.69435733510181307793,-18.3282977792698,-2.1540981271808,337.110202337718
738239.69435742555651813745,-18.3282977792698,-2.12947986287016,337.060965809097
738239.69435751601122319698,-18.3406069114251,-2.14178899502548,337.085584073407
738239.69435760646592825651,-18.3529160435804,-2.06793420209357,337.134820602028
738239.69435769680421799421,-18.1682790612506,-1.89560635191911,337.134820602028
738239.69435778725892305374,-17.7866959644358,-1.52633238725954,337.048656676941
738239.69435787771362811327,-17.4420402640868,-1.28014974415316,336.802474033835
738239.69435796816833317280,-17.4666585283975,-1.73558763389996,336.433200069175
738239.69435805862303823233,-18.3652251757358,-2.74493647063611,336.519363994263
738239.69435814907774329185,-19.0053000478123,-3.24961088900418,336.851710562456
738239.69435823941603302956,-18.9806817835017,-3.11421043529567,336.900947091077
738239.69435832987073808908,-18.5867895545315,-2.63415428123824,336.950183619699
738239.69435842032544314861,-18.3406069114251,-2.26488031657867,336.888637958922
738239.69435851078014820814,-18.2790612506485,-2.1540981271808,337.073274941252
738239.69435860123485326767,-18.2790612506485,-2.11717073071485,337.085584073407
738239.69435869168955832720,-18.2790612506485,-2.11717073071485,337.073274941252
738239.69435878202784806490,-18.2544429863379,-2.09255246640421,337.085584073407
738239.69435887248255312443,-18.2421338541826,-2.06793420209357,337.110202337718
738239.69435896293725818396,-18.2421338541826,-2.06793420209357,337.097893205563
738239.69435905339196324348,-18.2421338541826,-2.04331593778293,337.060965809097
738239.69435914384666830301,-18.2298247220272,-2.04331593778293,337.110202337718
738239.69435923418495804071,-18.2298247220272,-2.01869767347229,337.097893205563
738239.69435932463966310024,-18.2298247220272,-2.01869767347229,336.925565355388
738239.69435941509436815977,-18.2052064577166,-2.00638854131698,336.950183619699
738239.69435950554907321930,-18.1928973255613,-1.99407940916166,337.036347544786
738239.69435959600377827883,-18.180588193406,-1.98177027700634,337.097893205563
738239.69435968645848333836,-18.180588193406,-1.96946114485102,337.159438866339
738239.69435977679677307606,-18.1682790612506,-1.9571520126957,337.036347544786
738239.69435986725147813559,-18.1559699290953,-1.93253374838506,337.024038412631
738239.69435995770618319511,-18.1190425326294,-1.92022461622974,337.036347544786
738239.69436004816088825464,-18.1067334004741,-1.88329721976379,337.048656676941
738239.69436013861559331417,-18.1067334004741,-1.88329721976379,337.110202337718
738239.69436022907029837370,-18.1190425326294,-1.87098808760847,337.048656676941
738239.69436031940858811140,-18.0821151361634,-1.85867895545315,337.048656676941
738239.69436040986329317093,-18.0574968718528,-1.83406069114251,337.097893205563
738239.69436050031799823046,-18.0451877396975,-1.79713329467655,337.073274941252
738239.69436059077270328999,-18.0205694753868,-1.77251503036592,337.060965809097
738239.69436068122740834951,-17.9959512110762,-1.74789676605528,337.060965809097
738239.69436077156569808722,-17.9836420789209,-1.71096936958932,337.073274941252
738239.69436086202040314674,-17.9713329467655,-1.68635110527868,337.073274941252
738239.69436095247510820627,-17.9590238146102,-1.66173284096805,337.097893205563
738239.69436104292981326580,-17.9220964181443,-1.63711457665741,337.122511469873
738239.69436113338451832533,-17.9220964181443,-1.62480544450209,337.147129734184
738239.69436122383922338486,-17.9220964181443,-1.62480544450209,337.073274941252
738239.69436131417751312256,-17.909787285989,-1.61249631234677,337.024038412631
738239.69436140463221818209,-17.909787285989,-1.61249631234677,337.024038412631
738239.69436149508692324162,-17.9344055502996,-1.67404197312337,336.99942014832
738239.69436158554162830114,-17.9836420789209,-1.73558763389996,337.024038412631
738239.69436167599633336067,-18.0082603432315,-1.78482416252124,337.060965809097
738239.69436176633462309837,-18.0451877396975,-1.84636982329783,337.110202337718
738239.69436185678932815790,-18.0698060040081,-1.89560635191911,337.097893205563
738239.69436194724403321743,-18.0944242683187,-1.93253374838506,337.159438866339
738239.69436203769873827696,-18.1313516647847,-1.96946114485102,337.147129734184
738239.69436212815344333649,-18.1559699290953,-1.98177027700634,337.110202337718
738239.69436221860814839602,-18.1682790612506,-2.00638854131698,337.110202337718
738239.69436230894643813372,-18.180588193406,-2.00638854131698,337.134820602028
738239.69436239940114319324,-18.1928973255613,-2.03100680562761,337.024038412631
738239.69436248985584825277,-18.180588193406,-2.03100680562761,337.097893205563
738239.69436258031055331230,-18.180588193406,-2.04331593778293,337.159438866339
738239.69436267076525837183,-18.180588193406,-2.04331593778293,337.134820602028
738239.69436276121996343136,-18.1928973255613,-2.03100680562761,337.085584073407
738239.69436285155825316906,-18.1928973255613,-2.03100680562761,336.987111016165
738239.69436294201295822859,-18.180588193406,-2.03100680562761,336.900947091077
738239.69436303246766328812,-18.1928973255613,-2.03100680562761,337.024038412631
738239.69436312292236834764,-18.2052064577166,-2.04331593778293,337.073274941252
738239.69436321337707340717,-18.1928973255613,-2.03100680562761,337.085584073407
738239.69436330371536314487,-18.2052064577166,-2.04331593778293,337.011729280475
738239.69436339417006820440,-18.2052064577166,-2.03100680562761,337.048656676941
738239.69436348462477326393,-18.1928973255613,-2.04331593778293,337.048656676941
738239.69436357507947832346,-18.1928973255613,-2.05562506993825,337.036347544786
738239.69436366553418338299,-18.2052064577166,-2.05562506993825,337.036347544786
738239.69436375598888844252,-18.2052064577166,-2.05562506993825,337.073274941252
738239.69436384632717818022,-18.2052064577166,-2.05562506993825,337.060965809097
738239.69436393678188323975,-18.2175155898719,-2.06793420209357,337.073274941252
738239.69436402723658829927,-18.2052064577166,-2.05562506993825,337.097893205563
738239.69436411769129335880,-18.2175155898719,-2.05562506993825,337.097893205563
738239.69436420814599841833,-18.2052064577166,-2.06793420209357,337.147129734184
738239.69436429860070347786,-18.2175155898719,-2.05562506993825,337.110202337718
738239.69436438893899321556,-18.2298247220272,-2.05562506993825,337.073274941252
738239.69436447939369827509,-18.2298247220272,-2.06793420209357,337.024038412631
738239.69436456984840333462,-18.2052064577166,-2.08024333424889,337.060965809097
738239.69436466030310839415,-18.2052064577166,-2.06793420209357,337.134820602028
738239.69436475075781345367,-18.2052064577166,-2.06793420209357,337.134820602028
738239.69436484109610319138,-18.2175155898719,-2.05562506993825,337.073274941252
738239.69436493155080825090,-18.2175155898719,-2.06793420209357,337.073274941252
738239.69436502200551331043,-18.2175155898719,-2.05562506993825,337.073274941252
738239.69436511246021836996,-18.2175155898719,-2.06793420209357,337.085584073407
738239.69436520291492342949,-18.2175155898719,-2.05562506993825,337.110202337718
738239.69436529336962848902,-18.2175155898719,-2.08024333424889,337.159438866339
738239.69436538370791822672,-18.2175155898719,-2.06793420209357,337.159438866339
738239.69436547416262328625,-18.2052064577166,-2.06793420209357,337.110202337718
738239.69436556461732834578,-18.2175155898719,-2.08024333424889,337.159438866339
738239.69436565507203340530,-18.2298247220272,-2.08024333424889,337.171747998494
738239.69436574552673846483,-18.2052064577166,-2.08024333424889,337.110202337718
738239.69436583598144352436,-18.2052064577166,-2.06793420209357,337.073274941252
738239.69436592631973326206,-18.2175155898719,-2.08024333424889,337.036347544786
738239.69436601677443832159,-18.1928973255613,-2.06793420209357,337.024038412631
738239.69436610722914338112,-18.180588193406,-2.05562506993825,337.011729280475
738239.69436619768384844065,-18.180588193406,-2.03100680562761,337.024038412631
738239.69436628813855350018,-18.14366079694,-1.99407940916166,337.085584073407
738239.69436637847684323788,-18.1190425326294,-1.96946114485102,336.99942014832
738239.69436646893154829741,-18.1313516647847,-1.9571520126957,337.011729280475
738239.69436655938625335693,-18.1682790612506,-2.00638854131698,337.196366262805
738239.69436664984095841646,-18.180588193406,-2.00638854131698,337.159438866339
738239.69436674029566347599,-18.1928973255613,-2.01869767347229,337.159438866339
738239.69436683075036853552,-18.2052064577166,-2.05562506993825,337.134820602028
738239.69436692108865827322,-18.2052064577166,-2.06793420209357,337.110202337718
738239.69436701154336333275,-18.2175155898719,-2.08024333424889,337.036347544786
738239.69436710199806839228,-18.2298247220272,-2.09255246640421,337.060965809097
738239.69436719245277345181,-18.2298247220272,-2.10486159855953,337.085584073407
738239.69436728290747851133,-18.2298247220272,-2.09255246640421,337.073274941252
738239.69436737324576824903,-18.2298247220272,-2.10486159855953,337.110202337718
738239.69436746370047330856,-18.2298247220272,-2.10486159855953,337.122511469873
738239.69436755415517836809,-18.2298247220272,-2.10486159855953,337.085584073407
738239.69436764460988342762,-18.2421338541826,-2.08024333424889,337.134820602028
738239.69436773506458848715,-18.1682790612506,-1.96946114485102,337.18405713065
738239.69436782551929354668,-17.872859889523,-1.63711457665741,337.220984527116
738239.69436791585758328438,-17.5158950570187,-1.3047680084638,336.925565355388
738239.69436800631228834391,-17.2820215460677,-1.29245887630848,336.580909655039
738239.69436809676699340343,-17.9467146824549,-2.27718944873399,336.433200069175
738239.69436818722169846296,-18.7468082725506,-3.27422915331482,336.667073580126
738239.69436827767640352249,-18.9068269905698,-3.12651956745099,336.888637958922
738239.69436836813110858202,-18.5006256294443,-2.59722688477228,336.987111016165
738239.69436845846939831972,-18.2421338541826,-2.22795292011272,336.962492751854
738239.69436854892410337925,-18.2052064577166,-2.11717073071485,337.024038412631
738239.69436863937880843878,-18.1928973255613,-2.08024333424889,337.036347544786
738239.69436872983351349831,-18.180588193406,-2.06793420209357,337.122511469873
738239.69436882028821855783,-18.1682790612506,-2.04331593778293,337.097893205563
738239.69436891062650829554,-18.1682790612506,-2.03100680562761,337.024038412631
738239.69436900108121335506,-18.1682790612506,-2.01869767347229,337.060965809097
738239.69436909153591841459,-18.1559699290953,-2.01869767347229,337.085584073407
738239.69436918199062347412,-18.14366079694,-2.00638854131698,337.073274941252
738239.69436927244532853365,-18.14366079694,-1.99407940916166,337.122511469873
738239.69436936290003359318,-18.1313516647847,-1.98177027700634,337.097893205563
738239.69436945323832333088,-18.1190425326294,-1.98177027700634,337.085584073407
738239.69436954369302839041,-18.1190425326294,-1.96946114485102,337.134820602028
738239.69436963414773344994,-18.1067334004741,-1.94484288054038,337.134820602028
738239.69436972460243850946,-18.1067334004741,-1.93253374838506,337.060965809097
738239.69436981505714356899,-18.0821151361634,-1.92022461622974,337.134820602028
738239.69436990551184862852,-18.0821151361634,-1.89560635191911,337.073274941252
738239.69436999585013836622,-18.0574968718528,-1.87098808760847,337.048656676941
738239.69437008630484342575,-18.0574968718528,-1.87098808760847,337.134820602028
738239.69437017675954848528,-18.0451877396975,-1.85867895545315,337.110202337718
738239.69437026721425354481,-18.0205694753868,-1.82175155898719,337.171747998494
738239.69437035766895860434,-18.0082603432315,-1.79713329467655,337.147129734184
738239.69437044800724834204,-17.9959512110762,-1.77251503036592,337.134820602028
738239.69437053846195340157,-17.9713329467655,-1.74789676605528,337.134820602028
738239.69437062891665846109,-17.9467146824549,-1.72327850174464,337.171747998494
738239.69437071937136352062,-17.9220964181443,-1.68635110527868,337.147129734184
738239.69437080982606858015,-17.909787285989,-1.66173284096805,337.110202337718
738239.69437090028077363968,-17.909787285989,-1.63711457665741,337.196366262805
738239.69437099061906337738,-17.8851690216783,-1.61249631234677,337.171747998494
738239.69437108107376843691,-17.872859889523,-1.58787804803613,337.18405713065
738239.69437117152847349644,-17.8605507573677,-1.5632597837255,337.196366262805
738239.69437126198317855597,-17.8605507573677,-1.5632597837255,337.110202337718
738239.69437135243788361549,-17.8605507573677,-1.55095065157018,337.085584073407
738239.69437144289258867502,-17.8482416252124,-1.55095065157018,337.011729280475
738239.69437153323087841272,-17.872859889523,-1.58787804803613,337.048656676941
738239.69437162368558347225,-17.8974781538336,-1.64942370881273,337.048656676941
738239.69437171414028853178,-17.9344055502996,-1.71096936958932,337.011729280475
738239.69437180459499359131,-17.9836420789209,-1.77251503036592,337.036347544786
738239.69437189504969865084,-18.0205694753868,-1.83406069114251,337.048656676941
738239.69437198538798838854,-18.0574968718528,-1.89560635191911,337.085584073407
738239.69437207584269344807,-18.0821151361634,-1.93253374838506,337.085584073407
738239.69437216629739850760,-18.1067334004741,-1.96946114485102,337.159438866339
738239.69437225675210356712,-18.1190425326294,-1.99407940916166,337.147129734184
738239.69437234720680862665,-18.1190425326294,-1.99407940916166,337.060965809097
738239.69437243766151368618,-18.1313516647847,-2.00638854131698,337.159438866339
738239.69437252799980342388,-18.1559699290953,-2.01869767347229,337.147129734184
738239.69437261845450848341,-18.1559699290953,-2.04331593778293,337.048656676941
738239.69437270890921354294,-18.14366079694,-2.03100680562761,337.134820602028
738239.69437279936391860247,-18.1559699290953,-2.04331593778293,337.171747998494
738239.69437288981862366199,-18.1682790612506,-2.05562506993825,337.085584073407
738239.69437298015691339970,-18.1559699290953,-2.04331593778293,337.073274941252
738239.69437307061161845922,-18.1559699290953,-2.04331593778293,337.122511469873
738239.69437316106632351875,-18.1682790612506,-2.04331593778293,337.159438866339
738239.69437325152102857828,-18.1682790612506,-2.06793420209357,337.073274941252
738239.69437334197573363781,-18.1682790612506,-2.05562506993825,337.085584073407
738239.69437343243043869734,-18.1682790612506,-2.04331593778293,337.024038412631
738239.69437352276872843504,-18.1682790612506,-2.05562506993825,336.987111016165
738239.69437361322343349457,-18.180588193406,-2.05562506993825,337.073274941252
738239.69437370367813855410,-18.180588193406,-2.06793420209357,337.085584073407
738239.69437379413284361362,-18.180588193406,-2.06793420209357,337.134820602028
738239.69437388458754867315,-18.180588193406,-2.06793420209357,337.159438866339
738239.69437397504225373268,-18.180588193406,-2.06793420209357,337.18405713065
738239.69437406538054347038,-18.1928973255613,-2.09255246640421,337.134820602028
738239.69437415583524852991,-18.1682790612506,-2.06793420209357,337.20867539496
738239.69437424628995358944,-18.1682790612506,-2.05562506993825,337.159438866339
738239.69437433674465864897,-18.180588193406,-2.06793420209357,337.073274941252
738239.69437442719936370850,-18.1928973255613,-2.08024333424889,337.159438866339
738239.69437451753765344620,-18.1928973255613,-2.09255246640421,337.196366262805
738239.69437460799235850573,-18.180588193406,-2.08024333424889,337.085584073407
738239.69437469844706356525,-18.180588193406,-2.08024333424889,337.159438866339
738239.69437478890176862478,-18.180588193406,-2.09255246640421,337.171747998494
738239.69437487935647368431,-18.180588193406,-2.08024333424889,337.171747998494
738239.69437496981117874384,-18.180588193406,-2.09255246640421,337.060965809097
738239.69437506014946848154,-18.1682790612506,-2.09255246640421,337.147129734184
738239.69437515060417354107,-18.180588193406,-2.08024333424889,337.171747998494
738239.69437524105887860060,-18.1682790612506,-2.08024333424889,337.097893205563
738239.69437533151358366013,-18.1682790612506,-2.08024333424889,337.110202337718
738239.69437542196828871965,-18.1559699290953,-2.08024333424889,337.110202337718
738239.69437551242299377918,-18.1682790612506,-2.08024333424889,337.110202337718
738239.69437560276128351688,-18.1559699290953,-2.08024333424889,337.085584073407
738239.69437569321598857641,-18.1559699290953,-2.08024333424889,337.073274941252
738239.69437578367069363594,-18.1682790612506,-2.09255246640421,337.097893205563
738239.69437587412539869547,-18.1682790612506,-2.08024333424889,337.147129734184
738239.69437596458010375500,-18.14366079694,-2.06793420209357,337.085584073407
738239.69437605491839349270,-18.1313516647847,-2.04331593778293,337.085584073407
738239.69437614537309855223,-18.1067334004741,-2.00638854131698,337.085584073407
738239.69437623582780361176,-18.0698060040081,-1.96946114485102,337.134820602028
738239.69437632628250867128,-18.0698060040081,-1.9571520126957,337.110202337718
738239.69437641673721373081,-18.0944242683187,-1.99407940916166,337.147129734184
738239.69437650719191879034,-18.1067334004741,-1.99407940916166,337.171747998494
738239.69437659753020852804,-18.1313516647847,-2.00638854131698,337.20867539496
738239.69437668798491358757,-18.1313516647847,-2.03100680562761,337.085584073407
738239.69437677843961864710,-18.14366079694,-2.03100680562761,337.134820602028
738239.69437686889432370663,-18.1559699290953,-2.05562506993825,337.122511469873
738239.69437695934902876616,-18.1682790612506,-2.05562506993825,337.122511469873
738239.69437704980373382568,-18.1928973255613,-2.10486159855953,336.974801884009
738239.69437714014202356339,-18.1682790612506,-2.08024333424889,337.122511469873
738239.69437723059672862291,-18.1682790612506,-2.06793420209357,337.147129734184
738239.69437732105143368244,-18.1559699290953,-2.09255246640421,337.196366262805
738239.69437741150613874197,-18.1559699290953,-2.08024333424889,337.171747998494
738239.69437750196084380150,-18.180588193406,-2.06793420209357,337.159438866339
738239.69437759229913353920,-18.1559699290953,-1.99407940916166,337.270221055737
738239.69437768275383859873,-17.9467146824549,-1.79713329467655,337.245602791426
738239.69437777320854365826,-17.602058982106,-1.42785933001699,337.048656676941
738239.69437786366324871778,-17.2697124139124,-1.20629495122125,336.79016490168
738239.69437795411795377731,-17.6143681142613,-1.90791548407442,336.556291390728
738239.69437804457265883684,-18.414461704357,-2.99111911374248,336.654764447971
738239.69437813491094857454,-18.8329721976379,-3.13882869960631,336.974801884009
738239.69437822536565363407,-18.6114078188421,-2.76955473494675,337.048656676941
738239.69437831582035869360,-18.2544429863379,-2.31411684519995,337.073274941252
738239.69437840627506375313,-18.14366079694,-2.14178899502548,337.110202337718
738239.69437849672976881266,-18.1190425326294,-2.06793420209357,337.147129734184
738239.69437858706805855036,-18.1190425326294,-2.05562506993825,337.134820602028
738239.69437867752276360989,-18.1067334004741,-2.04331593778293,337.110202337718
738239.69437876797746866941,-18.0944242683187,-2.01869767347229,337.147129734184
738239.69437885843217372894,-18.0944242683187,-2.00638854131698,337.196366262805
738239.69437894888687878847,-18.1067334004741,-2.00638854131698,337.18405713065
738239.69437903934158384800,-18.0821151361634,-1.98177027700634,337.134820602028
738239.69437912967987358570,-18.0574968718528,-1.96946114485102,337.024038412631
738239.69437922013457864523,-18.0574968718528,-1.9571520126957,337.073274941252
738239.69437931058928370476,-18.0574968718528,-1.9571520126957,337.122511469873
738239.69437940104398876429,-18.0574968718528,-1.94484288054038,337.097893205563
738239.69437949149869382381,-18.0451877396975,-1.94484288054038,337.097893205563
738239.69437958195339888334,-18.0328786075421,-1.92022461622974,337.134820602028
738239.69437967229168862104,-18.0328786075421,-1.90791548407442,337.122511469873
738239.69437976274639368057,-18.0205694753868,-1.89560635191911,337.171747998494
738239.69437985320109874010,-17.9959512110762,-1.87098808760847,337.122511469873
738239.69437994365580379963,-17.9836420789209,-1.87098808760847,337.147129734184
738239.69438003411050885916,-17.9590238146102,-1.83406069114251,337.171747998494
738239.69438012444879859686,-17.9713329467655,-1.82175155898719,337.18405713065
738239.69438021490350365639,-17.9713329467655,-1.80944242683187,337.196366262805
738239.69438030535820871592,-17.9344055502996,-1.78482416252124,337.171747998494
738239.69438039581291377544,-17.9220964181443,-1.74789676605528,337.18405713065
738239.69438048626761883497,-17.9220964181443,-1.7602058982106,337.073274941252
738239.69438057672232389450,-17.8974781538336,-1.73558763389996,337.036347544786
738239.69438066706061363220,-17.872859889523,-1.68635110527868,337.18405713065
738239.69438075751531869173,-17.8482416252124,-1.64942370881273,337.122511469873
738239.69438084797002375126,-17.835932493057,-1.63711457665741,337.20867539496
738239.69438093842472881079,-17.8113142287464,-1.58787804803613,337.220984527116
738239.69438102887943387032,-17.8113142287464,-1.57556891588082,337.18405713065
738239.69438111933413892984,-17.7866959644358,-1.55095065157018,337.18405713065
738239.69438120967242866755,-17.7866959644358,-1.53864151941486,337.196366262805
738239.69438130012713372707,-17.7990050965911,-1.5632597837255,337.134820602028
738239.69438139058183878660,-17.8113142287464,-1.57556891588082,337.060965809097
738239.69438148103654384613,-17.8482416252124,-1.64942370881273,337.147129734184
738239.69438157149124890566,-17.8851690216783,-1.68635110527868,337.110202337718
738239.69438166182953864336,-17.9220964181443,-1.77251503036592,337.122511469873
738239.69438175228424370289,-17.9590238146102,-1.82175155898719,337.122511469873
738239.69438184273894876242,-17.9959512110762,-1.89560635191911,337.085584073407
738239.69438193319365382195,-18.0205694753868,-1.92022461622974,337.122511469873
738239.69438202364835888147,-18.0574968718528,-1.9571520126957,337.147129734184
738239.69438211410306394100,-18.0821151361634,-2.01869767347229,337.18405713065
738239.69438220444135367870,-18.1067334004741,-2.04331593778293,337.233293659271
738239.69438229489605873823,-18.1067334004741,-2.04331593778293,337.20867539496
738239.69438238535076379776,-18.0944242683187,-2.03100680562761,337.233293659271
738239.69438247580546885729,-18.0944242683187,-2.01869767347229,337.18405713065
738239.69438256626017391682,-18.1190425326294,-2.03100680562761,337.233293659271
738239.69438265671487897635,-18.1190425326294,-2.05562506993825,337.270221055737
738239.69438274705316871405,-18.1190425326294,-2.04331593778293,337.245602791426
738239.69438283750787377357,-18.1067334004741,-2.03100680562761,337.20867539496
738239.69438292796257883310,-18.1313516647847,-2.05562506993825,337.220984527116
738239.69438301841728389263,-18.1313516647847,-2.05562506993825,337.245602791426
738239.69438310887198895216,-18.0698060040081,-2.00638854131698,337.20867539496
738239.69438319921027868986,-18.14366079694,-2.09255246640421,337.270221055737
738239.69438328966498374939,-18.1313516647847,-2.06793420209357,337.257911923582
738239.69438338011968880892,-18.1313516647847,-2.08024333424889,337.220984527116
738239.69438347057439386845,-18.14366079694,-2.08024333424889,337.245602791426
738239.69438356102909892797,-18.14366079694,-2.08024333424889,337.257911923582
738239.69438365148380398750,-18.1682790612506,-2.09255246640421,337.257911923582
738239.69438374182209372520,-18.14366079694,-2.08024333424889,337.134820602028
738239.69438383227679878473,-18.1559699290953,-2.09255246640421,337.220984527116
738239.69438392273150384426,-18.1313516647847,-2.08024333424889,337.257911923582
738239.69438401318620890379,-18.14366079694,-2.06793420209357,336.987111016165
738239.69438410364091396332,-18.180588193406,-2.09255246640421,337.036347544786
738239.69438419397920370102,-18.180588193406,-2.10486159855953,337.220984527116
738239.69438428443390876055,-18.1559699290953,-2.10486159855953,337.282530187892
738239.69438437488861382008,-18.1682790612506,-2.10486159855953,337.147129734184
738239.69438446534331887960,-18.1682790612506,-2.10486159855953,337.233293659271
738239.69438455579802393913,-18.1559699290953,-2.11717073071485,337.245602791426
738239.69438464625272899866,-18.1682790612506,-2.11717073071485,337.18405713065
738239.69438473659101873636,-18.1682790612506,-2.10486159855953,337.257911923582
738239.69438482704572379589,-18.1559699290953,-2.08024333424889,337.257911923582
738239.69438491750042885542,-18.1682790612506,-2.10486159855953,337.18405713065
738239.69438500795513391495,-18.14366079694,-2.10486159855953,337.233293659271
738239.69438509840983897448,-18.1559699290953,-2.10486159855953,337.171747998494
738239.69438518886454403400,-18.14366079694,-2.09255246640421,337.134820602028
738239.69438527920283377171,-18.14366079694,-2.08024333424889,337.122511469873
738239.69438536965753883123,-18.1313516647847,-2.08024333424889,337.159438866339
738239.69438546011224389076,-18.1067334004741,-2.05562506993825,337.18405713065
738239.69438555056694895029,-18.1067334004741,-2.04331593778293,337.18405713065
738239.69438564102165400982,-18.1190425326294,-2.04331593778293,337.134820602028
738239.69438573135994374752,-18.14366079694,-2.06793420209357,337.159438866339
738239.69438582181464880705,-18.14366079694,-2.05562506993825,337.159438866339
738239.69438591226935386658,-18.1682790612506,-2.09255246640421,337.159438866339
738239.69438600272405892611,-18.1682790612506,-2.09255246640421,337.196366262805
738239.69438609317876398563,-18.1682790612506,-2.10486159855953,337.20867539496
738239.69438618363346904516,-18.180588193406,-2.10486159855953,337.233293659271
738239.69438627397175878286,-18.2052064577166,-2.1540981271808,337.159438866339
738239.69438636442646384239,-18.2298247220272,-2.1540981271808,337.196366262805
738239.69438645488116890192,-18.2052064577166,-2.1540981271808,337.171747998494
738239.69438654533587396145,-18.1928973255613,-2.14178899502548,337.171747998494
738239.69438663579057902098,-18.1928973255613,-2.14178899502548,337.159438866339
738239.69438672624528408051,-18.180588193406,-2.12947986287016,337.147129734184
738239.69438681658357381821,-18.2052064577166,-2.09255246640421,337.294839320048
738239.69438690703827887774,-18.14366079694,-2.01869767347229,337.36869411298
738239.69438699749298393726,-17.872859889523,-1.72327850174464,337.245602791426
738239.69438708794768899679,-17.56513158564,-1.44016846217231,337.122511469873
738239.69438717840239405632,-17.3804946033102,-1.698660237434,336.81478316599
738239.69438726874068379402,-17.9959512110762,-2.54799035615101,336.728619240903
738239.69438735919538885355,-18.5252438937549,-3.16344696391695,336.753237505214
738239.69438744965009391308,-18.7468082725506,-3.01573737805312,337.085584073407
738239.69438754010479897261,-18.4760073651336,-2.6095360169276,336.900947091077
738239.69438763055950403214,-18.2298247220272,-2.32642597735527,337.011729280475
738239.69438772101420909166,-18.180588193406,-2.19102552364676,337.18405713065
738239.69438781135249882936,-18.1682790612506,-2.14178899502548,337.233293659271
738239.69438790180720388889,-18.1682790612506,-2.14178899502548,337.245602791426
738239.69438799226190894842,-18.1559699290953,-2.10486159855953,337.196366262805
738239.69438808271661400795,-18.14366079694,-2.09255246640421,337.171747998494
738239.69438817317131906748,-18.14366079694,-2.09255246640421,337.171747998494
738239.69438826362602412701,-18.1559699290953,-2.09255246640421,337.18405713065
738239.69438835396431386471,-18.1313516647847,-2.08024333424889,337.196366262805
738239.69438844441901892424,-18.1313516647847,-2.06793420209357,337.18405713065
738239.69438853487372398376,-18.1313516647847,-2.04331593778293,337.159438866339
738239.69438862532842904329,-18.1067334004741,-2.01869767347229,337.196366262805
738239.69438871578313410282,-18.1313516647847,-2.04331593778293,337.220984527116
738239.69438880612142384052,-18.0944242683187,-2.03100680562761,337.18405713065
738239.69438889657612890005,-18.1067334004741,-2.03100680562761,337.159438866339
738239.69438898703083395958,-18.0944242683187,-2.00638854131698,337.294839320048
738239.69438907748553901911,-18.0698060040081,-1.98177027700634,337.257911923582
738239.69438916794024407864,-18.0821151361634,-1.98177027700634,337.233293659271
738239.69438925839494913816,-18.0574968718528,-1.94484288054038,337.245602791426
738239.69438934873323887587,-18.0698060040081,-1.9571520126957,337.270221055737
738239.69438943918794393539,-18.0451877396975,-1.92022461622974,337.270221055737
738239.69438952964264899492,-18.0451877396975,-1.89560635191911,337.220984527116
738239.69438962009735405445,-17.9959512110762,-1.88329721976379,337.270221055737
738239.69438971055205911398,-17.9959512110762,-1.87098808760847,337.282530187892
738239.69438980089034885168,-17.9959512110762,-1.85867895545315,337.245602791426
738239.69438989134505391121,-17.9713329467655,-1.80944242683187,337.220984527116
738239.69438998179975897074,-17.9590238146102,-1.7602058982106,337.196366262805
738239.69439007225446403027,-17.9344055502996,-1.73558763389996,337.171747998494
738239.69439016270916908979,-17.9467146824549,-1.71096936958932,337.171747998494
738239.69439025316387414932,-17.909787285989,-1.68635110527868,337.159438866339
738239.69439034350216388702,-17.9220964181443,-1.68635110527868,337.196366262805
738239.69439043395686894655,-17.909787285989,-1.66173284096805,337.196366262805
738239.69439052441157400608,-17.8851690216783,-1.64942370881273,337.196366262805
738239.69439061486627906561,-17.9220964181443,-1.698660237434,337.270221055737
738239.69439070532098412514,-17.9344055502996,-1.74789676605528,337.257911923582
738239.69439079577568918467,-17.9713329467655,-1.82175155898719,337.220984527116
738239.69439088611397892237,-17.9959512110762,-1.88329721976379,337.282530187892
738239.69439097656868398190,-18.0205694753868,-1.93253374838506,337.257911923582
738239.69439106702338904142,-18.0944242683187,-2.01869767347229,336.99942014832
738239.69439115747809410095,-18.0944242683187,-2.01869767347229,337.18405713065
738239.69439124793279916048,-18.1313516647847,-2.08024333424889,337.257911923582
738239.69439133827108889818,-18.1313516647847,-2.10486159855953,337.196366262805
738239.69439142872579395771,-18.1682790612506,-2.1540981271808,337.233293659271
738239.69439151918049901724,-18.1559699290953,-2.12947986287016,337.270221055737
738239.69439160963520407677,-18.14366079694,-2.11717073071485,337.257911923582
738239.69439170008990913630,-18.14366079694,-2.10486159855953,337.18405713065
738239.69439179054461419582,-18.1682790612506,-2.12947986287016,337.270221055737
738239.69439188088290393353,-18.1682790612506,-2.14178899502548,337.270221055737
738239.69439197133760899305,-18.180588193406,-2.1540981271808,337.20867539496
738239.69439206179231405258,-18.180588193406,-2.16640725933612,337.220984527116
738239.69439215224701911211,-18.1928973255613,-2.16640725933612,337.307148452203
738239.69439224270172417164,-18.14366079694,-2.10486159855953,337.245602791426
738239.69439233315642923117,-18.180588193406,-2.1540981271808,337.307148452203
738239.69439242349471896887,-18.14366079694,-2.11717073071485,337.20867539496
738239.69439251394942402840,-18.1682790612506,-2.12947986287016,337.270221055737
738239.69439260440412908792,-18.2175155898719,-2.17871639149144,337.307148452203
738239.69439269485883414745,-18.1928973255613,-2.16640725933612,337.147129734184
738239.69439278531353920698,-18.180588193406,-2.1540981271808,337.18405713065
738239.69439287565182894468,-18.2175155898719,-2.19102552364676,337.134820602028
738239.69439296610653400421,-18.1928973255613,-2.17871639149144,337.18405713065
738239.69439305656123906374,-18.2175155898719,-2.20333465580208,337.196366262805
738239.69439314701594412327,-18.1559699290953,-2.12947986287016,337.196366262805
738239.69439323747064918280,-18.180588193406,-2.16640725933612,337.233293659271
738239.69439332792535424232,-18.2052064577166,-2.16640725933612,337.270221055737
738239.69439341826364398003,-18.2175155898719,-2.17871639149144,337.294839320048
738239.69439350871834903955,-18.180588193406,-2.17871639149144,337.20867539496
738239.69439359917305409908,-18.180588193406,-2.16640725933612,337.196366262805
738239.69439368962775915861,-18.1682790612506,-2.1540981271808,337.233293659271
738239.69439378008246421814,-18.1559699290953,-2.16640725933612,337.20867539496
738239.69439387053716927767,-18.1928973255613,-2.19102552364676,337.233293659271
738239.69439396087545901537,-18.1928973255613,-2.19102552364676,337.270221055737
738239.69439405133016407490,-18.1559699290953,-2.16640725933612,337.245602791426
738239.69439414178486913443,-18.1559699290953,-2.16640725933612,337.245602791426
738239.69439423223957419395,-18.1559699290953,-2.19102552364676,337.20867539496
738239.69439432269427925348,-18.1190425326294,-2.12947986287016,337.220984527116
738239.69439441303256899118,-18.1313516647847,-2.12947986287016,337.18405713065
738239.69439450348727405071,-18.1313516647847,-2.14178899502548,337.245602791426
738239.69439459394197911024,-18.1067334004741,-2.10486159855953,337.073274941252
738239.69439468439668416977,-18.1067334004741,-2.09255246640421,337.122511469873
738239.69439477485138922930,-18.1313516647847,-2.12947986287016,337.270221055737
738239.69439486530609428883,-18.14366079694,-2.11717073071485,337.257911923582
738239.69439495564438402653,-18.1559699290953,-2.12947986287016,337.20867539496
738239.69439504609908908606,-18.1559699290953,-2.1540981271808,337.20867539496
738239.69439513655379414558,-18.180588193406,-2.20333465580208,337.171747998494
738239.69439522700849920511,-18.1928973255613,-2.19102552364676,337.196366262805
738239.69439531746320426464,-18.1928973255613,-2.2156437879574,337.20867539496
738239.69439540780149400234,-18.180588193406,-2.17871639149144,337.257911923582
738239.69439549825619906187,-18.180588193406,-2.20333465580208,337.257911923582
738239.69439558871090412140,-18.1928973255613,-2.20333465580208,337.307148452203
738239.69439567916560918093,-18.180588193406,-2.20333465580208,337.294839320048
738239.69439576962031424046,-18.180588193406,-2.20333465580208,337.282530187892
738239.69439586007501929998,-18.180588193406,-2.14178899502548,337.331766716514
738239.69439595041330903769,-18.1067334004741,-2.04331593778293,337.307148452203
738239.69439604086801409721,-17.8605507573677,-1.80944242683187,337.307148452203
738239.69439613132271915674,-17.5282041891741,-1.5017141229489,337.171747998494
738239.69439622177742421627,-17.3435672068443,-1.72327850174464,336.827092298145
738239.69439631223212927580,-17.835932493057,-2.52337209184037,336.753237505214
738239.69439640268683433533,-18.3406069114251,-3.16344696391695,336.704000976592
738239.69439649302512407303,-18.6483352153081,-3.05266477451908,336.937874487543
738239.69439658347982913256,-18.451389100823,-2.69569994201483,337.073274941252
738239.69439667393453419209,-18.180588193406,-2.37566250597654,337.073274941252
738239.69439676438923925161,-18.1313516647847,-2.22795292011272,337.085584073407
738239.69439685484394431114,-18.1313516647847,-2.19102552364676,337.159438866339
738239.69439694518223404884,-18.0944242683187,-2.14178899502548,337.270221055737
738239.69439703563693910837,-18.1313516647847,-2.1540981271808,337.245602791426
738239.69439712609164416790,-18.1190425326294,-2.14178899502548,337.20867539496
738239.69439721654634922743,-18.1190425326294,-2.12947986287016,337.233293659271
738239.69439730700105428696,-18.1313516647847,-2.14178899502548,337.245602791426
738239.69439739745575934649,-18.1190425326294,-2.12947986287016,337.220984527116
738239.69439748779404908419,-18.1313516647847,-2.11717073071485,337.245602791426
738239.69439757824875414371,-18.1067334004741,-2.09255246640421,337.220984527116
738239.69439766870345920324,-18.0944242683187,-2.09255246640421,337.245602791426
738239.69439775915816426277,-18.0944242683187,-2.08024333424889,337.245602791426
738239.69439784961286932230,-18.0821151361634,-2.06793420209357,337.270221055737
738239.69439794006757438183,-18.0698060040081,-2.05562506993825,337.282530187892
738239.69439803040586411953,-18.0698060040081,-2.04331593778293,337.257911923582
738239.69439812086056917906,-18.0574968718528,-2.03100680562761,337.18405713065
738239.69439821131527423859,-18.0574968718528,-2.00638854131698,337.18405713065
738239.69439830176997929811,-18.0451877396975,-1.99407940916166,337.196366262805
738239.69439839222468435764,-18.0328786075421,-1.98177027700634,337.220984527116
738239.69439848256297409534,-18.0205694753868,-1.9571520126957,337.196366262805
738239.69439857301767915487,-18.0082603432315,-1.94484288054038,337.171747998494
738239.69439866347238421440,-17.9836420789209,-1.90791548407442,337.20867539496
738239.69439875392708927393,-17.9713329467655,-1.87098808760847,337.220984527116
738239.69439884438179433346,-17.9590238146102,-1.83406069114251,337.20867539496
738239.69439893483649939299,-17.9590238146102,-1.82175155898719,337.20867539496
738239.69439902517478913069,-17.9467146824549,-1.80944242683187,337.282530187892
738239.69439911562949419022,-17.9220964181443,-1.7602058982106,337.20867539496
738239.69439920608419924974,-17.909787285989,-1.72327850174464,337.294839320048
738239.69439929653890430927,-17.909787285989,-1.71096936958932,337.307148452203
738239.69439938699360936880,-17.8974781538336,-1.68635110527868,337.344075848669
738239.69439947744831442833,-17.8851690216783,-1.66173284096805,337.344075848669
738239.69439956778660416603,-17.8974781538336,-1.67404197312337,337.307148452203
738239.69439965824130922556,-17.9220964181443,-1.71096936958932,337.319457584358
738239.69439974869601428509,-17.9344055502996,-1.77251503036592,337.307148452203
738239.69439983915071934462,-17.9713329467655,-1.84636982329783,337.294839320048
738239.69439992960542440414,-18.0082603432315,-1.92022461622974,337.257911923582
738239.69440001994371414185,-18.0451877396975,-1.96946114485102,337.294839320048
738239.69440011039841920137,-18.0698060040081,-2.01869767347229,337.294839320048
738239.69440020085312426090,-18.0944242683187,-2.05562506993825,337.220984527116
738239.69440029130782932043,-18.1190425326294,-2.08024333424889,337.270221055737
738239.69440038176253437996,-18.14366079694,-2.11717073071485,337.282530187892
738239.69440047221723943949,-18.1559699290953,-2.11717073071485,337.257911923582
738239.69440056255552917719,-18.1682790612506,-2.14178899502548,337.307148452203
738239.69440065301023423672,-18.1682790612506,-2.1540981271808,337.331766716514
738239.69440074346493929625,-18.1682790612506,-2.14178899502548,337.307148452203
738239.69440083391964435577,-18.180588193406,-2.14178899502548,337.270221055737
738239.69440092437434941530,-18.1928973255613,-2.1540981271808,337.257911923582
738239.69440101471263915300,-18.180588193406,-2.14178899502548,337.331766716514
738239.69440110516734421253,-18.180588193406,-2.12947986287016,337.257911923582
738239.69440119562204927206,-18.1682790612506,-2.14178899502548,337.282530187892
738239.69440128607675433159,-18.180588193406,-2.12947986287016,337.134820602028
738239.69440137653145939112,-18.180588193406,-2.14178899502548,337.20867539496
738239.69440146698616445065,-18.1928973255613,-2.14178899502548,337.220984527116
738239.69440155732445418835,-18.1928973255613,-2.1540981271808,337.18405713065
738239.69440164777915924788,-18.2052064577166,-2.16640725933612,337.073274941252
738239.69440173823386430740,-18.2052064577166,-2.16640725933612,337.085584073407
738239.69440182868856936693,-18.1928973255613,-2.1540981271808,337.257911923582
738239.69440191914327442646,-18.1928973255613,-2.1540981271808,337.245602791426
738239.69440200959797948599,-18.2052064577166,-2.16640725933612,337.20867539496
738239.69440209993626922369,-18.1928973255613,-2.1540981271808,337.20867539496
738239.69440219039097428322,-18.2052064577166,-2.16640725933612,337.220984527116
738239.69440228084567934275,-18.2175155898719,-2.17871639149144,337.233293659271
738239.69440237130038440228,-18.2052064577166,-2.16640725933612,337.257911923582
738239.69440246175508946180,-18.2175155898719,-2.16640725933612,337.270221055737
738239.69440255209337919950,-18.2175155898719,-2.17871639149144,337.294839320048
738239.69440264254808425903,-18.2175155898719,-2.17871639149144,337.245602791426
738239.69440273300278931856,-18.2298247220272,-2.19102552364676,337.257911923582
738239.69440282345749437809,-18.2175155898719,-2.17871639149144,337.233293659271
738239.69440291391219943762,-18.2175155898719,-2.17871639149144,337.319457584358
738239.69440300436690449715,-18.2175155898719,-2.19102552364676,337.220984527116
738239.69440309470519423485,-18.2175155898719,-2.17871639149144,337.233293659271
738239.69440318515989929438,-18.2175155898719,-2.17871639149144,337.294839320048
738239.69440327561460435390,-18.2298247220272,-2.19102552364676,337.257911923582
738239.69440336606930941343,-18.2175155898719,-2.17871639149144,337.270221055737
738239.69440345652401447296,-18.180588193406,-2.17871639149144,337.220984527116
738239.69440354697871953249,-18.180588193406,-2.1540981271808,337.196366262805
738239.69440363731700927019,-18.180588193406,-2.1540981271808,337.196366262805
738239.69440372777171432972,-18.14366079694,-2.11717073071485,337.171747998494
738239.69440381822641938925,-18.1682790612506,-2.11717073071485,337.220984527116
738239.69440390868112444878,-18.2052064577166,-2.12947986287016,337.307148452203
738239.69440399913582950830,-18.2052064577166,-2.12947986287016,337.282530187892
738239.69440408947411924601,-18.2052064577166,-2.14178899502548,337.307148452203
738239.69440417992882430553,-18.2421338541826,-2.16640725933612,337.344075848669
738239.69440427038352936506,-18.2421338541826,-2.17871639149144,337.356384980824
738239.69440436083823442459,-18.2544429863379,-2.19102552364676,337.319457584358
738239.69440445129293948412,-18.2667521184932,-2.20333465580208,337.307148452203
738239.69440454174764454365,-18.2544429863379,-2.2156437879574,337.356384980824
738239.69440463208593428135,-18.2667521184932,-2.20333465580208,337.319457584358
738239.69440472254063934088,-18.2544429863379,-2.2156437879574,337.294839320048
738239.69440481299534440041,-18.2667521184932,-2.20333465580208,337.319457584358
738239.69440490345004945993,-18.2544429863379,-2.20333465580208,337.196366262805
738239.69440499390475451946,-18.2667521184932,-2.17871639149144,337.270221055737
738239.69440508435945957899,-18.2052064577166,-2.09255246640421,337.270221055737
738239.69440517469774931669,-17.8974781538336,-1.82175155898719,337.122511469873
738239.69440526515245437622,-17.5405133213294,-1.52633238725954,336.925565355388
738239.69440535560715943575,-17.3066398103783,-1.51402325510422,336.79016490168
738239.69440544606186449528,-17.8482416252124,-2.3510442416659,336.654764447971
738239.69440553651656955481,-18.5621712902209,-3.11421043529567,336.839401430301
738239.69440562685485929251,-18.8329721976379,-3.0034282458978,337.048656676941
738239.69440571730956435204,-18.5498621580655,-2.68339080985951,337.147129734184
738239.69440580776426941156,-18.2913703828038,-2.37566250597654,337.048656676941
738239.69440589821897447109,-18.2175155898719,-2.22795292011272,337.196366262805
738239.69440598867367953062,-18.2175155898719,-2.20333465580208,337.257911923582
738239.69440607912838459015,-18.2298247220272,-2.17871639149144,337.282530187892
738239.69440616946667432785,-18.2052064577166,-2.1540981271808,337.220984527116
738239.69440625992137938738,-18.2052064577166,-2.1540981271808,337.282530187892
738239.69440635037608444691,-18.2052064577166,-2.1540981271808,337.294839320048
738239.69440644083078950644,-18.1928973255613,-2.12947986287016,337.233293659271
738239.69440653128549456596,-18.1928973255613,-2.14178899502548,337.319457584358
738239.69440662162378430367,-18.180588193406,-2.11717073071485,337.220984527116
738239.69440671207848936319,-18.1928973255613,-2.11717073071485,337.233293659271
738239.69440680253319442272,-18.180588193406,-2.11717073071485,337.282530187892
738239.69440689298789948225,-18.1682790612506,-2.10486159855953,337.294839320048
738239.69440698344260454178,-18.1559699290953,-2.09255246640421,337.307148452203
738239.69440707389730960131,-18.14366079694,-2.08024333424889,337.270221055737
738239.69440716423559933901,-18.14366079694,-2.06793420209357,337.220984527116
738239.69440725469030439854,-18.1313516647847,-2.05562506993825,337.18405713065
738239.69440734514500945807,-18.1190425326294,-2.03100680562761,337.220984527116
738239.69440743559971451759,-18.1067334004741,-2.03100680562761,337.220984527116
738239.69440752605441957712,-18.0821151361634,-2.00638854131698,337.233293659271
738239.69440761650912463665,-18.0698060040081,-1.98177027700634,337.307148452203
738239.69440770684741437435,-18.0574968718528,-1.96946114485102,337.220984527116
738239.69440779730211943388,-18.0451877396975,-1.9571520126957,337.257911923582
738239.69440788775682449341,-18.0205694753868,-1.92022461622974,337.270221055737
738239.69440797821152955294,-18.0082603432315,-1.89560635191911,337.282530187892
738239.69440806866623461246,-17.9959512110762,-1.89560635191911,337.282530187892
738239.69440815900452435017,-17.9713329467655,-1.85867895545315,337.294839320048
738239.69440824945922940969,-17.9836420789209,-1.85867895545315,337.307148452203
738239.69440833991393446922,-17.9590238146102,-1.82175155898719,337.294839320048
738239.69440843036863952875,-17.9467146824549,-1.80944242683187,337.245602791426
738239.69440852082334458828,-17.9467146824549,-1.80944242683187,337.282530187892
738239.69440861127804964781,-17.9467146824549,-1.79713329467655,337.282530187892
738239.69440870161633938551,-17.9344055502996,-1.77251503036592,337.220984527116
738239.69440879207104444504,-17.9467146824549,-1.78482416252124,337.134820602028
738239.69440888252574950457,-17.9713329467655,-1.83406069114251,337.307148452203
738239.69440897298045456409,-18.0082603432315,-1.88329721976379,337.270221055737
738239.69440906343515962362,-18.0451877396975,-1.93253374838506,337.233293659271
738239.69440915388986468315,-18.0821151361634,-2.00638854131698,337.307148452203
738239.69440924422815442085,-18.1313516647847,-2.05562506993825,337.331766716514
738239.69440933468285948038,-18.1682790612506,-2.09255246640421,337.220984527116
738239.69440942513756453991,-18.180588193406,-2.12947986287016,337.294839320048
738239.69440951559226959944,-18.180588193406,-2.12947986287016,337.294839320048
738239.69440960604697465897,-18.2175155898719,-2.14178899502548,337.245602791426
738239.69440969638526439667,-18.2175155898719,-2.17871639149144,337.331766716514
738239.69440978683996945620,-18.2175155898719,-2.16640725933612,337.257911923582
738239.69440987729467451572,-18.2175155898719,-2.16640725933612,337.147129734184
738239.69440996774937957525,-18.2298247220272,-2.16640725933612,337.196366262805
738239.69441005820408463478,-18.2175155898719,-2.1540981271808,337.196366262805
738239.69441014865878969431,-18.2175155898719,-2.1540981271808,337.220984527116
738239.69441023899707943201,-18.2298247220272,-2.16640725933612,337.196366262805
738239.69441032945178449154,-18.2298247220272,-2.16640725933612,337.171747998494
738239.69441041990648955107,-18.2175155898719,-2.17871639149144,337.294839320048
738239.69441051036119461060,-18.2052064577166,-2.1540981271808,337.294839320048
738239.69441060081589967012,-18.2175155898719,-2.14178899502548,337.20867539496
738239.69441069127060472965,-18.2298247220272,-2.16640725933612,337.282530187892
738239.69441078160889446735,-18.2421338541826,-2.17871639149144,337.294839320048
738239.69441087206359952688,-18.2421338541826,-2.17871639149144,337.307148452203
738239.69441096251830458641,-18.2298247220272,-2.17871639149144,337.233293659271
738239.69441105297300964594,-18.2421338541826,-2.17871639149144,337.294839320048
738239.69441114342771470547,-18.2298247220272,-2.16640725933612,337.307148452203
738239.69441123376600444317,-18.2298247220272,-2.16640725933612,337.20867539496
738239.69441132422070950270,-18.2298247220272,-2.17871639149144,337.319457584358
738239.69441141467541456223,-18.2544429863379,-2.17871639149144,337.147129734184
738239.69441150513011962175,-18.2544429863379,-2.17871639149144,337.196366262805
738239.69441159558482468128,-18.2544429863379,-2.20333465580208,337.18405713065
738239.69441168603952974081,-18.2667521184932,-2.17871639149144,337.159438866339
738239.69441177637781947851,-18.2544429863379,-2.19102552364676,337.18405713065
738239.69441186683252453804,-18.2544429863379,-2.17871639149144,337.233293659271
738239.69441195728722959757,-18.2421338541826,-2.17871639149144,337.220984527116
738239.69441204774193465710,-18.2421338541826,-2.20333465580208,337.20867539496
738239.69441213819663971663,-18.2544429863379,-2.19102552364676,337.220984527116
738239.69441222853492945433,-18.2667521184932,-2.19102552364676,337.196366262805
738239.69441231898963451385,-18.2667521184932,-2.19102552364676,337.073274941252
738239.69441240944433957338,-18.2544429863379,-2.19102552364676,337.319457584358
738239.69441249989904463291,-18.2544429863379,-2.19102552364676,337.294839320048
738239.69441259035374969244,-18.2421338541826,-2.19102552364676,337.20867539496
738239.69441268080845475197,-18.2298247220272,-2.17871639149144,337.245602791426
738239.69441277114674448967,-18.2052064577166,-2.1540981271808,337.270221055737
738239.69441286160144954920,-18.1928973255613,-2.12947986287016,337.282530187892
738239.69441295205615460873,-18.1682790612506,-2.11717073071485,337.20867539496
738239.69441304251085966825,-18.1928973255613,-2.11717073071485,337.331766716514
738239.69441313296556472778,-18.2298247220272,-2.12947986287016,337.319457584358
738239.69441322342026978731,-18.2544429863379,-2.12947986287016,337.245602791426
738239.69441331375855952501,-18.2667521184932,-2.14178899502548,337.307148452203
738239.69441340421326458454,-18.2667521184932,-2.16640725933612,337.344075848669
738239.69441349466796964407,-18.2667521184932,-2.17871639149144,337.282530187892
738239.69441358512267470360,-18.2790612506485,-2.19102552364676,337.270221055737
738239.69441367557737976313,-18.2913703828038,-2.20333465580208,337.319457584358
738239.69441376591566950083,-18.3036795149592,-2.2156437879574,337.331766716514
738239.69441385637037456036,-18.3036795149592,-2.22795292011272,337.245602791426
738239.69441394682507961988,-18.2913703828038,-2.2156437879574,337.294839320048
738239.69441403727978467941,-18.2913703828038,-2.22795292011272,337.344075848669
738239.69441412773448973894,-18.3036795149592,-2.22795292011272,337.307148452203
738239.69441421818919479847,-18.3159886471145,-2.20333465580208,337.233293659271
738239.69441430852748453617,-18.2175155898719,-2.06793420209357,337.36869411298
738239.69441439898218959570,-17.909787285989,-1.78482416252124,337.294839320048
738239.69441448943689465523,-17.5282041891741,-1.55095065157018,337.085584073407
738239.69441457989159971476,-17.2450941496017,-1.5017141229489,336.691691844437
738239.69441467034630477428,-17.7497685679698,-2.32642597735527,336.507054862107
738239.69441476080100983381,-18.685262611774,-3.11421043529567,336.753237505214
738239.69441485113929957151,-18.9314452548804,-3.05266477451908,337.036347544786
738239.69441494159400463104,-18.5744804223762,-2.68339080985951,337.048656676941
738239.69441503204870969057,-18.3282977792698,-2.37566250597654,337.085584073407
738239.69441512250341475010,-18.2667521184932,-2.25257118442335,337.147129734184
738239.69441521295811980963,-18.2544429863379,-2.2156437879574,337.171747998494
738239.69441530329640954733,-18.2544429863379,-2.19102552364676,337.20867539496
738239.69441539375111460686,-18.2421338541826,-2.17871639149144,337.245602791426
738239.69441548420581966639,-18.2421338541826,-2.17871639149144,337.20867539496
738239.69441557466052472591,-18.2421338541826,-2.16640725933612,337.20867539496
738239.69441566511522978544,-18.2421338541826,-2.16640725933612,337.20867539496
738239.69441575556993484497,-18.2298247220272,-2.1540981271808,337.171747998494
738239.69441584590822458267,-18.2298247220272,-2.1540981271808,337.085584073407
738239.69441593636292964220,-18.2175155898719,-2.14178899502548,337.245602791426
738239.69441602681763470173,-18.2052064577166,-2.12947986287016,337.257911923582
738239.69441611727233976126,-18.1928973255613,-2.12947986287016,337.282530187892
738239.69441620772704482079,-18.1928973255613,-2.12947986287016,337.294839320048
738239.69441629818174988031,-18.180588193406,-2.11717073071485,337.282530187892
738239.69441638852003961802,-18.1682790612506,-2.10486159855953,337.294839320048
738239.69441647897474467754,-18.1559699290953,-2.08024333424889,337.220984527116
738239.69441656942944973707,-18.14366079694,-2.06793420209357,337.307148452203
738239.69441665988415479660,-18.1313516647847,-2.05562506993825,337.294839320048
738239.69441675033885985613,-18.1190425326294,-2.03100680562761,337.294839320048
738239.69441684067714959383,-18.1067334004741,-2.01869767347229,337.233293659271
738239.69441693113185465336,-18.0821151361634,-2.01869767347229,337.245602791426
738239.69441702158655971289,-18.0698060040081,-1.98177027700634,337.294839320048
738239.69441711204126477242,-18.0451877396975,-1.96946114485102,337.307148452203
738239.69441720249596983194,-18.0328786075421,-1.9571520126957,337.270221055737
738239.69441729295067489147,-18.0205694753868,-1.93253374838506,337.257911923582
738239.69441738328896462917,-17.9959512110762,-1.89560635191911,337.257911923582
738239.69441747374366968870,-17.9836420789209,-1.87098808760847,337.171747998494
738239.69441756419837474823,-17.9836420789209,-1.87098808760847,337.233293659271
738239.69441765465307980776,-17.9713329467655,-1.85867895545315,337.18405713065
738239.69441774510778486729,-17.9590238146102,-1.84636982329783,337.245602791426
738239.69441783544607460499,-17.9467146824549,-1.83406069114251,337.171747998494
738239.69441792590077966452,-17.9590238146102,-1.82175155898719,337.20867539496
738239.69441801635548472404,-17.9467146824549,-1.83406069114251,337.196366262805
738239.69441810681018978357,-17.9836420789209,-1.88329721976379,337.20867539496
738239.69441819726489484310,-18.0328786075421,-1.93253374838506,337.196366262805
738239.69441828771959990263,-18.0698060040081,-1.98177027700634,337.18405713065
738239.69441837805788964033,-18.0944242683187,-2.04331593778293,337.20867539496
738239.69441846851259469986,-18.1559699290953,-2.08024333424889,337.220984527116
738239.69441855896729975939,-18.1928973255613,-2.12947986287016,337.220984527116
738239.69441864942200481892,-18.2052064577166,-2.14178899502548,337.270221055737
738239.69441873987670987844,-18.2175155898719,-2.16640725933612,337.20867539496
738239.69441883033141493797,-18.2298247220272,-2.16640725933612,337.233293659271
738239.69441892066970467567,-18.2421338541826,-2.17871639149144,337.171747998494
738239.69441901112440973520,-18.2544429863379,-2.19102552364676,337.196366262805
738239.69441910157911479473,-18.2544429863379,-2.19102552364676,337.159438866339
738239.69441919203381985426,-18.2421338541826,-2.19102552364676,337.220984527116
738239.69441928248852491379,-18.2544429863379,-2.19102552364676,337.196366262805
738239.69441937282681465149,-18.2421338541826,-2.19102552364676,337.048656676941
738239.69441946328151971102,-18.2544429863379,-2.19102552364676,337.196366262805
738239.69441955373622477055,-18.2421338541826,-2.19102552364676,337.245602791426
738239.69441964419092983007,-18.2544429863379,-2.19102552364676,337.20867539496
738239.69441973464563488960,-18.2421338541826,-2.19102552364676,337.257911923582
738239.69441982510033994913,-18.2421338541826,-2.19102552364676,337.270221055737
738239.69441991543862968683,-18.2421338541826,-2.19102552364676,337.233293659271
738239.69442000589333474636,-18.2544429863379,-2.19102552364676,337.220984527116
738239.69442009634803980589,-18.2544429863379,-2.20333465580208,337.270221055737
738239.69442018680274486542,-18.2544429863379,-2.20333465580208,337.282530187892
738239.69442027725744992495,-18.2544429863379,-2.20333465580208,337.294839320048
738239.69442036771215498447,-18.2544429863379,-2.2156437879574,337.233293659271
738239.69442045805044472218,-18.2544429863379,-2.20333465580208,337.319457584358
738239.69442054850514978170,-18.2667521184932,-2.20333465580208,337.307148452203
738239.69442063895985484123,-18.2667521184932,-2.2156437879574,337.20867539496
738239.69442072941455990076,-18.2667521184932,-2.2156437879574,337.270221055737
738239.69442081986926496029,-18.2667521184932,-2.22795292011272,337.319457584358
738239.69442091020755469799,-18.2667521184932,-2.2156437879574,337.257911923582
738239.69442100066225975752,-18.2790612506485,-2.22795292011272,337.294839320048
738239.69442109111696481705,-18.2790612506485,-2.22795292011272,337.282530187892
738239.69442118157166987658,-18.2790612506485,-2.22795292011272,337.294839320048
738239.69442127202637493610,-18.2790612506485,-2.22795292011272,337.245602791426
738239.69442136248107999563,-18.2667521184932,-2.22795292011272,337.257911923582
738239.69442145281936973333,-18.2790612506485,-2.22795292011272,337.307148452203
738239.69442154327407479286,-18.2790612506485,-2.22795292011272,337.319457584358
738239.69442163372877985239,-18.2790612506485,-2.22795292011272,337.282530187892
738239.69442172418348491192,-18.2790612506485,-2.22795292011272,337.319457584358
738239.69442181463818997145,-18.2790612506485,-2.22795292011272,337.307148452203
738239.69442190509289503098,-18.2913703828038,-2.22795292011272,337.319457584358
738239.69442199543118476868,-18.2913703828038,-2.24026205226803,337.282530187892
738239.69442208588588982821,-18.2913703828038,-2.24026205226803,337.319457584358
738239.69442217634059488773,-18.2544429863379,-2.24026205226803,337.282530187892
738239.69442226679529994726,-18.2298247220272,-2.20333465580208,337.294839320048
738239.69442235725000500679,-18.2175155898719,-2.17871639149144,337.245602791426
738239.69442244758829474449,-18.2052064577166,-2.16640725933612,337.270221055737
738239.69442253804299980402,-18.2298247220272,-2.16640725933612,337.356384980824
738239.69442262849770486355,-18.2667521184932,-2.17871639149144,337.319457584358
738239.69442271895240992308,-18.2667521184932,-2.17871639149144,337.319457584358
738239.69442280940711498260,-18.2790612506485,-2.17871639149144,337.147129734184
738239.69442289986182004213,-18.2790612506485,-2.20333465580208,337.245602791426
738239.69442299020010977983,-18.2790612506485,-2.2156437879574,337.20867539496
738239.69442308065481483936,-18.2913703828038,-2.2156437879574,337.282530187892
738239.69442317110951989889,-18.3036795149592,-2.22795292011272,337.331766716514
738239.69442326156422495842,-18.3159886471145,-2.25257118442335,337.294839320048
738239.69442335201893001795,-18.3282977792698,-2.26488031657867,337.282530187892
738239.69442344235721975565,-18.3282977792698,-2.26488031657867,337.282530187892
738239.69442353281192481518,-18.3282977792698,-2.26488031657867,337.196366262805
738239.69442362326662987471,-18.3159886471145,-2.26488031657867,337.245602791426
738239.69442371372133493423,-18.3282977792698,-2.25257118442335,337.270221055737
738239.69442380417603999376,-18.3036795149592,-2.16640725933612,337.319457584358
738239.69442389463074505329,-18.0574968718528,-1.96946114485102,337.257911923582
738239.69442398496903479099,-17.6636046428826,-1.66173284096805,337.060965809097
738239.69442407542373985052,-17.3066398103783,-1.47709585863826,336.765546637369
738239.69442416587844491005,-17.4297311319315,-2.09255246640421,336.396272672709
738239.69442425633314996958,-18.451389100823,-3.0034282458978,336.679382712282
738239.69442434678785502911,-19.0176091799676,-3.21268349253822,337.024038412631
738239.69442443724256008863,-18.72219000824,-2.88033692434461,337.097893205563
738239.69442452758084982634,-18.3898434400464,-2.49875382752973,337.097893205563
738239.69442461803555488586,-18.2913703828038,-2.31411684519995,337.147129734184
738239.69442470849025994539,-18.2790612506485,-2.27718944873399,337.159438866339
738239.69442479894496500492,-18.2667521184932,-2.25257118442335,337.196366262805
738239.69442488939967006445,-18.2667521184932,-2.25257118442335,337.257911923582
738239.69442497973795980215,-18.2667521184932,-2.24026205226803,337.257911923582
738239.69442507019266486168,-18.2544429863379,-2.2156437879574,337.233293659271
738239.69442516064736992121,-18.2544429863379,-2.2156437879574,337.307148452203
738239.69442525110207498074,-18.2421338541826,-2.2156437879574,337.331766716514
738239.69442534155678004026,-18.2298247220272,-2.19102552364676,337.307148452203
738239.69442543201148509979,-18.2298247220272,-2.19102552364676,337.257911923582
738239.69442552234977483749,-18.2175155898719,-2.17871639149144,337.319457584358
738239.69442561280447989702,-18.2175155898719,-2.17871639149144,337.307148452203
738239.69442570325918495655,-18.2052064577166,-2.16640725933612,337.233293659271
738239.69442579371389001608,-18.180588193406,-2.1540981271808,337.294839320048
738239.69442588416859507561,-18.180588193406,-2.14178899502548,337.331766716514
738239.69442597462330013514,-18.1682790612506,-2.12947986287016,337.245602791426
738239.69442606496158987284,-18.1559699290953,-2.11717073071485,337.294839320048
738239.69442615541629493237,-18.14366079694,-2.10486159855953,337.294839320048
738239.69442624587099999189,-18.1313516647847,-2.09255246640421,337.220984527116
738239.69442633632570505142,-18.1190425326294,-2.06793420209357,337.048656676941
738239.69442642678041011095,-18.0821151361634,-2.04331593778293,337.147129734184
738239.69442651711869984865,-18.0698060040081,-2.03100680562761,337.196366262805
738239.69442660757340490818,-18.0574968718528,-2.00638854131698,337.196366262805
738239.69442669802810996771,-18.0451877396975,-1.98177027700634,337.20867539496
738239.69442678848281502724,-18.0451877396975,-1.96946114485102,337.20867539496
738239.69442687893752008677,-18.0082603432315,-1.94484288054038,337.196366262805
738239.69442696939222514629,-17.9959512110762,-1.93253374838506,337.18405713065
738239.69442705973051488400,-17.9836420789209,-1.90791548407442,337.18405713065
738239.69442715018521994352,-17.9713329467655,-1.88329721976379,337.220984527116
738239.69442724063992500305,-17.9590238146102,-1.87098808760847,337.18405713065
738239.69442733109463006258,-17.9467146824549,-1.85867895545315,337.233293659271
738239.69442742154933512211,-17.9467146824549,-1.84636982329783,337.159438866339
738239.69442751200404018164,-17.9713329467655,-1.87098808760847,337.233293659271
738239.69442760234232991934,-17.9836420789209,-1.88329721976379,337.18405713065
738239.69442769279703497887,-18.0082603432315,-1.92022461622974,337.257911923582
738239.69442778325174003839,-18.0451877396975,-1.98177027700634,337.270221055737
