time_dn,ecg_projection_ll_ra_mV,ecg_projection_la_ra_mV,ecg_projection_vx_rl_mV
738353.48283875896595418453,-6.2653482670573,-3.34808394624673,342.920112715028
738353.48283887130673974752,-6.28996653136794,-3.37270221055737,342.920112715028
738353.48283898364752531052,-6.30227566352326,-3.38501134271269,342.858567054252
738353.48283909598831087351,-6.31458479567858,-3.40962960702333,342.920112715028
738353.48283920832909643650,-6.30227566352326,-3.39732047486801,342.920112715028
738353.48283932066988199949,-6.25303913490198,-3.34808394624673,342.858567054252
738353.48283943301066756248,-6.22842087059135,-3.33577481409141,342.932421847184
738353.48283954535145312548,-6.24073000274667,-3.29884741762546,342.920112715028
738353.48283965769223868847,-6.28996653136794,-3.36039307840205,342.895494450718
738353.48283977003302425146,-6.3268939278339,-3.40962960702333,342.858567054252
738353.48283988237380981445,-6.28996653136794,-3.38501134271269,342.883185318562
738353.48283999471459537745,-6.2653482670573,-3.39732047486801,342.858567054252
738353.48284010705538094044,-6.2653482670573,-3.37270221055737,342.870876186407
738353.48284021939616650343,-6.20380260628071,-3.32346568193609,342.858567054252
738353.48284033173695206642,-6.2653482670573,-3.37270221055737,342.846257922096
738353.48284044419415295124,-6.25303913490198,-3.37270221055737,342.846257922096
738353.48284055653493851423,-6.17918434197007,-3.20037436038291,342.920112715028
738353.48284066887572407722,-6.17918434197007,-3.21268349253822,342.96934924365
738353.48284078121650964022,-6.3268939278339,-3.34808394624673,342.932421847184
738353.48284089355729520321,-6.33920305998922,-3.38501134271269,342.760093997009
738353.48284100589808076620,-6.3268939278339,-3.44655700348928,342.846257922096
738353.48284111823886632919,-6.31458479567858,-3.38501134271269,342.944730979339
738353.48284123057965189219,-6.28996653136794,-3.37270221055737,342.883185318562
738353.48284134292043745518,-6.28996653136794,-3.36039307840205,342.858567054252
738353.48284145526122301817,-6.28996653136794,-3.38501134271269,342.833948789941
738353.48284156760200858116,-6.24073000274667,-3.31115654978078,342.833948789941
738353.48284167994279414415,-6.30227566352326,-3.34808394624673,342.895494450718
738353.48284179228357970715,-6.3268939278339,-3.39732047486801,342.870876186407
738353.48284190462436527014,-6.3268939278339,-3.40962960702333,342.907803582873
738353.48284201696515083313,-6.33920305998922,-3.53272092857652,342.957040111494
738353.48284212930593639612,-6.33920305998922,-3.58195745719779,343.043204036582
738353.48284224176313728094,-6.22842087059135,-3.27422915331482,343.301695811843
738353.48284235410392284393,-5.93300169886369,-2.74493647063611,342.870876186407
738353.48284246644470840693,-5.48987294127221,-1.89560635191911,342.60007527899
738353.48284257878549396992,-5.76067384868923,-1.698660237434,342.661620939767
738353.48284269112627953291,-6.10532954903816,-2.20333465580208,342.489293089592
738353.48284280346706509590,-6.30227566352326,-2.95419171727653,342.612384411145
738353.48284291580785065889,-6.3268939278339,-3.20037436038291,342.833948789941
738353.48284302814863622189,-6.28996653136794,-3.27422915331482,342.846257922096
738353.48284314048942178488,-6.28996653136794,-3.34808394624673,342.870876186407
738353.48284325283020734787,-6.28996653136794,-3.32346568193609,342.883185318562
738353.48284336517099291086,-6.27765739921262,-3.34808394624673,342.883185318562
738353.48284347751177847385,-6.27765739921262,-3.33577481409141,342.907803582873
738353.48284358985256403685,-6.22842087059135,-3.27422915331482,343.043204036582
738353.48284370219334959984,-6.30227566352326,-3.34808394624673,342.96934924365
738353.48284381453413516283,-6.24073000274667,-3.2619200211595,342.944730979339
738353.48284392687492072582,-6.25303913490198,-3.29884741762546,342.981658375805
738353.48284403933212161064,-6.33920305998922,-3.38501134271269,342.96934924365
738353.48284415167290717363,-6.35151219214454,-3.42193873917865,342.96934924365
738353.48284426401369273663,-6.30227566352326,-3.39732047486801,342.96934924365
738353.48284437635447829962,-6.22842087059135,-3.24961088900418,342.99396750796
738353.48284448869526386261,-6.25303913490198,-3.2619200211595,343.006276640116
738353.48284460103604942560,-6.30227566352326,-3.37270221055737,342.920112715028
738353.48284471337683498859,-6.2653482670573,-3.29884741762546,343.018585772271
738353.48284482571762055159,-6.22842087059135,-3.22499262469354,343.030894904426
738353.48284493805840611458,-6.27765739921262,-3.29884741762546,343.043204036582
738353.48284505039919167757,-6.24073000274667,-3.27422915331482,343.055513168737
738353.48284516273997724056,-6.21611173843603,-3.18806522822759,343.080131433047
738353.48284527508076280355,-6.21611173843603,-3.15113783176163,342.99396750796
738353.48284538742154836655,-6.17918434197007,-3.11421043529567,342.96934924365
738353.48284549976233392954,-6.15456607765943,-3.04035564236376,343.153986225979
738353.48284561210311949253,-6.10532954903816,-2.97880998158717,343.17860449029
738353.48284572444390505552,-6.19149347412539,-3.04035564236376,343.117058829513
738353.48284583690110594034,-6.1299478133488,-2.95419171727653,343.240150151067
738353.48284594924189150333,-6.11763868119348,-2.90495518865525,343.252459283222
738353.48284606158267706633,-6.0684021525722,-2.88033692434461,343.203222754601
738353.48284617392346262932,-6.08071128472752,-2.84340952787866,343.252459283222
738353.48284628626424819231,-6.08071128472752,-2.8064821314127,343.129367961669
738353.48284639860503375530,-6.08071128472752,-2.8680277921893,343.153986225979
738353.48284651094581931829,-6.08071128472752,-2.91726432081057,343.080131433047
738353.48284662328660488129,-6.1299478133488,-2.99111911374248,343.030894904426
738353.48284673562739044428,-6.22842087059135,-3.12651956745099,342.981658375805
738353.48284684796817600727,-6.17918434197007,-3.11421043529567,342.957040111494
738353.48284696030896157026,-6.25303913490198,-3.22499262469354,342.957040111494
738353.48284707264974713326,-6.3268939278339,-3.31115654978078,342.895494450718
738353.48284718499053269625,-6.35151219214454,-3.33577481409141,342.944730979339
738353.48284729733131825924,-6.3268939278339,-3.37270221055737,342.957040111494
738353.48284740967210382223,-6.31458479567858,-3.31115654978078,342.907803582873
738353.48284752201288938522,-6.28996653136794,-3.31115654978078,342.99396750796
738353.48284763447009027004,-6.2653482670573,-3.20037436038291,343.006276640116
738353.48284774681087583303,-6.22842087059135,-3.15113783176163,342.96934924365
738353.48284785915166139603,-6.20380260628071,-3.13882869960631,342.944730979339
738353.48284797149244695902,-6.22842087059135,-3.21268349253822,342.99396750796
738353.48284808383323252201,-6.27765739921262,-3.2619200211595,343.006276640116
738353.48284819617401808500,-6.38843958861049,-3.36039307840205,342.920112715028
738353.48284830851480364799,-6.3268939278339,-3.31115654978078,343.055513168737
738353.48284842085558921099,-6.33920305998922,-3.32346568193609,342.920112715028
738353.48284853319637477398,-6.35151219214454,-3.36039307840205,342.821639657786
738353.48284864553716033697,-6.33920305998922,-3.36039307840205,342.833948789941
738353.48284875787794589996,-6.33920305998922,-3.34808394624673,342.870876186407
738353.48284887021873146296,-6.3268939278339,-3.23730175684886,342.846257922096
738353.48284898255951702595,-6.21611173843603,-3.15113783176163,342.883185318562
738353.48284909490030258894,-6.25303913490198,-3.22499262469354,342.870876186407
738353.48284920724108815193,-6.43767611723177,-3.40962960702333,342.957040111494
738353.48284931958187371492,-6.40074872076581,-3.39732047486801,342.944730979339
738353.48284943203907459974,-6.37613045645517,-3.36039307840205,342.883185318562
738353.48284954437986016273,-6.36382132429985,-3.33577481409141,342.895494450718
738353.48284965672064572573,-6.36382132429985,-3.33577481409141,342.821639657786
738353.48284976906143128872,-6.37613045645517,-3.34808394624673,342.760093997009
738353.48284988140221685171,-6.37613045645517,-3.43424787133396,342.932421847184
738353.48284999374300241470,-6.38843958861049,-3.53272092857652,343.043204036582
738353.48285010608378797770,-6.25303913490198,-3.20037436038291,343.301695811843
738353.48285021842457354069,-6.10532954903816,-2.76955473494675,342.895494450718
738353.48285033076535910368,-5.76067384868923,-2.06793420209357,342.501602221747
738353.48285044310614466667,-6.08071128472752,-2.01869767347229,342.452365693126
738353.48285055544693022966,-6.27765739921262,-2.51106295968505,342.41543829666
738353.48285066778771579266,-6.35151219214454,-2.99111911374248,342.513911353903
738353.48285078012850135565,-6.31458479567858,-3.16344696391695,342.747784864854
738353.48285089246928691864,-6.31458479567858,-3.22499262469354,342.907803582873
738353.48285100481007248163,-6.31458479567858,-3.23730175684886,342.920112715028
738353.48285111715085804462,-6.3268939278339,-3.27422915331482,342.870876186407
738353.48285122949164360762,-6.2653482670573,-3.21268349253822,342.883185318562
738353.48285134194884449244,-6.22842087059135,-3.17575609607227,342.944730979339
738353.48285145428963005543,-6.35151219214454,-3.31115654978078,342.932421847184
738353.48285156663041561842,-6.40074872076581,-3.33577481409141,342.944730979339
738353.48285167897120118141,-6.35151219214454,-3.31115654978078,342.957040111494
738353.48285179131198674440,-6.35151219214454,-3.31115654978078,342.944730979339
738353.48285190365277230740,-6.33920305998922,-3.28653828547014,342.96934924365
738353.48285201599355787039,-6.3268939278339,-3.27422915331482,342.907803582873
738353.48285212833434343338,-6.3268939278339,-3.23730175684886,342.895494450718
738353.48285224067512899637,-6.30227566352326,-3.22499262469354,342.895494450718
738353.48285235301591455936,-6.30227566352326,-3.21268349253822,342.944730979339
738353.48285246535670012236,-6.27765739921262,-3.20037436038291,342.981658375805
738353.48285257769748568535,-6.20380260628071,-3.10190130314035,343.030894904426
738353.48285269003827124834,-6.3268939278339,-3.21268349253822,343.055513168737
738353.48285280237905681133,-6.33920305998922,-3.22499262469354,343.067822300892
738353.48285291471984237432,-6.28996653136794,-3.16344696391695,343.055513168737
738353.48285302706062793732,-6.27765739921262,-3.13882869960631,343.092440565203
738353.48285313951782882214,-6.25303913490198,-3.07728303882972,343.129367961669
738353.48285325185861438513,-6.24073000274667,-3.02804651020844,343.129367961669
738353.48285336419939994812,-6.22842087059135,-3.0034282458978,343.129367961669
738353.48285347654018551111,-6.21611173843603,-2.97880998158717,343.166295358135
738353.48285358888097107410,-6.17918434197007,-2.92957345296589,343.203222754601
738353.48285370122175663710,-6.17918434197007,-2.95419171727653,343.17860449029
738353.48285381356254220009,-6.16687520981475,-2.88033692434461,343.190913622445
738353.48285392590332776308,-6.16687520981475,-2.84340952787866,343.190913622445
738353.48285403824411332607,-6.17918434197007,-2.91726432081057,343.018585772271
738353.48285415058489888906,-6.17918434197007,-2.91726432081057,343.018585772271
738353.48285426292568445206,-6.22842087059135,-3.01573737805312,343.092440565203
738353.48285437526647001505,-6.3268939278339,-3.15113783176163,342.981658375805
738353.48285448760725557804,-6.27765739921262,-3.13882869960631,343.006276640116
738353.48285459994804114103,-6.31458479567858,-3.20037436038291,342.99396750796
738353.48285471228882670403,-6.37613045645517,-3.28653828547014,342.944730979339
738353.48285482462961226702,-6.36382132429985,-3.24961088900418,342.870876186407
738353.48285493708681315184,-6.36382132429985,-3.23730175684886,342.895494450718
738353.48285504942759871483,-6.36382132429985,-3.24961088900418,342.883185318562
738353.48285516176838427782,-6.31458479567858,-3.22499262469354,342.858567054252
738353.48285527410916984081,-6.35151219214454,-3.20037436038291,342.932421847184
738353.48285538644995540380,-6.37613045645517,-3.24961088900418,342.96934924365
738353.48285549879074096680,-6.40074872076581,-3.2619200211595,342.96934924365
738353.48285561113152652979,-6.38843958861049,-3.24961088900418,342.907803582873
738353.48285572347231209278,-6.37613045645517,-3.23730175684886,343.018585772271
738353.48285583581309765577,-6.37613045645517,-3.23730175684886,342.957040111494
738353.48285594815388321877,-6.37613045645517,-3.24961088900418,342.920112715028
738353.48285606049466878176,-6.36382132429985,-3.2619200211595,342.907803582873
738353.48285617283545434475,-6.35151219214454,-3.21268349253822,342.895494450718
738353.48285628517623990774,-6.35151219214454,-3.21268349253822,342.944730979339
738353.48285639751702547073,-6.38843958861049,-3.24961088900418,343.006276640116
738353.48285650985781103373,-6.38843958861049,-3.24961088900418,342.895494450718
738353.48285662219859659672,-6.38843958861049,-3.23730175684886,342.858567054252
738353.48285673465579748154,-6.38843958861049,-3.24961088900418,342.907803582873
738353.48285684699658304453,-6.38843958861049,-3.24961088900418,342.870876186407
738353.48285695933736860752,-6.38843958861049,-3.24961088900418,342.99396750796
738353.48285707167815417051,-6.38843958861049,-3.2619200211595,342.96934924365
738353.48285718401893973351,-6.37613045645517,-3.24961088900418,342.932421847184
738353.48285729635972529650,-6.37613045645517,-3.24961088900418,342.895494450718
738353.48285740870051085949,-6.38843958861049,-3.24961088900418,342.907803582873
738353.48285752104129642248,-6.37613045645517,-3.23730175684886,342.96934924365
738353.48285763338208198547,-6.37613045645517,-3.22499262469354,342.907803582873
738353.48285774572286754847,-6.38843958861049,-3.23730175684886,342.932421847184
738353.48285785806365311146,-6.38843958861049,-3.24961088900418,342.99396750796
738353.48285797040443867445,-6.36382132429985,-3.23730175684886,342.981658375805
738353.48285808274522423744,-6.37613045645517,-3.21268349253822,342.96934924365
738353.48285819508600980043,-6.37613045645517,-3.22499262469354,342.944730979339
738353.48285830742679536343,-6.36382132429985,-3.20037436038291,342.99396750796
738353.48285841976758092642,-6.37613045645517,-3.18806522822759,342.920112715028
738353.48285853222478181124,-6.38843958861049,-3.21268349253822,342.797021393475
738353.48285864456556737423,-6.36382132429985,-3.18806522822759,342.96934924365
738353.48285875690635293722,-6.35151219214454,-3.16344696391695,342.981658375805
738353.48285886924713850021,-6.36382132429985,-3.18806522822759,342.957040111494
738353.48285898158792406321,-6.35151219214454,-3.16344696391695,343.006276640116
738353.48285909392870962620,-6.35151219214454,-3.17575609607227,342.99396750796
738353.48285920626949518919,-6.36382132429985,-3.15113783176163,342.944730979339
738353.48285931861028075218,-6.36382132429985,-3.12651956745099,343.018585772271
738353.48285943095106631517,-6.37613045645517,-3.13882869960631,343.006276640116
738353.48285954329185187817,-6.37613045645517,-3.15113783176163,343.043204036582
738353.48285965563263744116,-6.40074872076581,-3.16344696391695,343.006276640116
738353.48285976797342300415,-6.38843958861049,-3.13882869960631,343.006276640116
738353.48285988031420856714,-6.40074872076581,-3.15113783176163,343.030894904426
738353.48285999265499413013,-6.44998524938709,-3.18806522822759,342.99396750796
738353.48286010499577969313,-6.46229438154241,-3.17575609607227,343.030894904426
738353.48286021733656525612,-6.48691264585304,-3.18806522822759,343.006276640116
738353.48286032967735081911,-6.48691264585304,-3.16344696391695,342.944730979339
738353.48286044213455170393,-6.51153091016368,-3.18806522822759,342.957040111494
738353.48286055447533726692,-6.51153091016368,-3.16344696391695,342.932421847184
738353.48286066681612282991,-6.523840042319,-3.17575609607227,342.944730979339
738353.48286077915690839291,-6.53614917447432,-3.18806522822759,342.957040111494
738353.48286089149769395590,-6.58538570309559,-3.22499262469354,343.018585772271
738353.48286100383847951889,-6.59769483525091,-3.21268349253822,342.981658375805
738353.48286111617926508188,-6.61000396740623,-3.22499262469354,342.96934924365
738353.48286122852005064487,-6.62231309956155,-3.23730175684886,343.006276640116
738353.48286134086083620787,-6.61000396740623,-3.21268349253822,343.043204036582
738353.48286145320162177086,-6.63462223171687,-3.21268349253822,342.981658375805
738353.48286156554240733385,-6.62231309956155,-3.17575609607227,342.957040111494
738353.48286167788319289684,-6.63462223171687,-3.21268349253822,342.96934924365
738353.48286179022397845984,-6.63462223171687,-3.18806522822759,342.981658375805
738353.48286190256476402283,-6.64693136387219,-3.18806522822759,343.030894904426
738353.48286201490554958582,-6.67154962818283,-3.20037436038291,343.006276640116
738353.48286212724633514881,-6.65924049602751,-3.18806522822759,343.030894904426
738353.48286223970353603363,-6.65924049602751,-3.17575609607227,343.067822300892
738353.48286235204432159662,-6.64693136387219,-3.15113783176163,343.067822300892
738353.48286246438510715961,-6.64693136387219,-3.16344696391695,343.067822300892
738353.48286257672589272261,-6.64693136387219,-3.12651956745099,343.055513168737
738353.48286268906667828560,-6.64693136387219,-3.12651956745099,343.067822300892
738353.48286280140746384859,-6.61000396740623,-3.0649739066744,343.018585772271
738353.48286291374824941158,-6.61000396740623,-3.04035564236376,342.96934924365
738353.48286302608903497458,-6.68385876033815,-3.12651956745099,343.129367961669
738353.48286313842982053757,-6.68385876033815,-3.0649739066744,343.080131433047
738353.48286325077060610056,-6.67154962818283,-3.0649739066744,343.129367961669
738353.48286336311139166355,-6.67154962818283,-3.02804651020844,343.153986225979
738353.48286347545217722654,-6.67154962818283,-3.02804651020844,343.166295358135
738353.48286358779296278954,-6.67154962818283,-3.0034282458978,343.129367961669
738353.48286370013374835253,-6.65924049602751,-2.99111911374248,343.166295358135
738353.48286381247453391552,-6.69616789249346,-3.01573737805312,343.153986225979
738353.48286392481531947851,-6.68385876033815,-2.97880998158717,343.092440565203
738353.48286403727252036333,-6.65924049602751,-2.92957345296589,343.153986225979
738353.48286414961330592632,-6.64693136387219,-2.92957345296589,343.17860449029
738353.48286426195409148932,-6.65924049602751,-2.90495518865525,343.043204036582
738353.48286437429487705231,-6.63462223171687,-2.83110039572334,343.141677093824
738353.48286448663566261530,-6.65924049602751,-2.83110039572334,343.153986225979
738353.48286459897644817829,-6.67154962818283,-2.8680277921893,343.104749697358
738353.48286471131723374128,-6.67154962818283,-2.84340952787866,343.080131433047
738353.48286482365801930428,-6.69616789249346,-2.83110039572334,343.141677093824
738353.48286493599880486727,-6.67154962818283,-2.83110039572334,343.190913622445
738353.48286504833959043026,-6.69616789249346,-2.83110039572334,343.080131433047
738353.48286516068037599325,-6.69616789249346,-2.81879126356802,343.17860449029
738353.48286527302116155624,-6.68385876033815,-2.79417299925738,343.190913622445
738353.48286538536194711924,-6.68385876033815,-2.79417299925738,343.17860449029
738353.48286549770273268223,-6.70847702464878,-2.81879126356802,343.080131433047
738353.48286561004351824522,-6.67154962818283,-2.78186386710206,343.240150151067
738353.48286572238430380821,-6.70847702464878,-2.79417299925738,343.277077547533
738353.48286583484150469303,-6.73309528895942,-2.92957345296589,343.227841018911
738353.48286594718229025602,-6.69616789249346,-2.8680277921893,343.227841018911
738353.48286605952307581902,-6.58538570309559,-2.57260862046164,343.498641926328
738353.48286617186386138201,-6.2653482670573,-1.92022461622974,343.117058829513
738353.48286628420464694500,-6.0684021525722,-1.32938627277444,342.883185318562
738353.48286639654543250799,-6.38843958861049,-1.39093193355103,342.99396750796
738353.48286650888621807098,-6.49922177800836,-1.84636982329783,342.821639657786
738353.48286662122700363398,-6.63462223171687,-2.40028077028718,342.895494450718
738353.48286673356778919697,-6.67154962818283,-2.58491775261696,343.080131433047
738353.48286684590857475996,-6.68385876033815,-2.64646341339356,343.227841018911
738353.48286695824936032295,-6.67154962818283,-2.64646341339356,343.240150151067
738353.48286707059014588594,-6.67154962818283,-2.64646341339356,343.215531886756
738353.48286718293093144894,-6.65924049602751,-2.64646341339356,343.227841018911
738353.48286729527171701193,-6.67154962818283,-2.65877254554888,343.117058829513
738353.48286740761250257492,-6.62231309956155,-2.62184514908292,343.277077547533
738353.48286751995328813791,-6.67154962818283,-2.62184514908292,343.277077547533
738353.48286763241048902273,-6.64693136387219,-2.59722688477228,343.289386679688
738353.48286774475127458572,-6.67154962818283,-2.62184514908292,343.301695811843
738353.48286785709206014872,-6.64693136387219,-2.59722688477228,343.227841018911
738353.48286796943284571171,-6.69616789249346,-2.62184514908292,343.277077547533
738353.48286808177363127470,-6.64693136387219,-2.58491775261696,343.264768415377
738353.48286819411441683769,-6.67154962818283,-2.58491775261696,343.326314076154
738353.48286830645520240068,-6.64693136387219,-2.53568122399569,343.375550604775
738353.48286841879598796368,-6.61000396740623,-2.48644469537441,343.38785973693
738353.48286853113677352667,-6.63462223171687,-2.51106295968505,343.437096265552
738353.48286864347755908966,-6.61000396740623,-2.47413556321909,343.412478001241
738353.48286875581834465265,-6.62231309956155,-2.47413556321909,343.424787133396
738353.48286886815913021564,-6.59769483525091,-2.42489903459782,343.437096265552
738353.48286898049991577864,-6.56076743878496,-2.37566250597654,343.449405397707
738353.48286909284070134163,-6.53614917447432,-2.31411684519995,343.510951058484
738353.48286920518148690462,-6.59769483525091,-2.3510442416659,343.523260190639
738353.48286931752227246761,-6.58538570309559,-2.32642597735527,343.523260190639
738353.48286942986305803061,-6.523840042319,-2.24026205226803,343.560187587105
738353.48286954232025891542,-6.54845830662964,-2.22795292011272,343.597114983571
738353.48286965466104447842,-6.523840042319,-2.16640725933612,343.621733247881
738353.48286976700183004141,-6.523840042319,-2.14178899502548,343.609424115726
738353.48286987934261560440,-6.523840042319,-2.10486159855953,343.646351512192
738353.48286999168340116739,-6.46229438154241,-2.03100680562761,343.646351512192
738353.48287010402418673038,-6.523840042319,-2.06793420209357,343.584805851416
738353.48287021636497229338,-6.56076743878496,-2.10486159855953,343.597114983571
738353.48287032870575785637,-6.56076743878496,-2.14178899502548,343.54787845495
738353.48287044104654341936,-6.58538570309559,-2.19102552364676,343.474023662018
738353.48287055338732898235,-6.62231309956155,-2.26488031657867,343.36324147262
738353.48287066572811454535,-6.67154962818283,-2.32642597735527,343.375550604775
738353.48287077806890010834,-6.68385876033815,-2.37566250597654,343.38785973693
738353.48287089040968567133,-6.7207861568041,-2.4125899024425,343.36324147262
738353.48287100275047123432,-6.75771355327006,-2.44951729890845,343.215531886756
738353.48287111509125679731,-6.77002268542538,-2.47413556321909,343.338623208309
738353.48287122743204236031,-6.7823318175807,-2.48644469537441,343.326314076154
738353.48287133988924324512,-6.79464094973601,-2.47413556321909,343.326314076154
738353.48287145223002880812,-6.80695008189133,-2.48644469537441,343.314004943999
738353.48287156457081437111,-6.80695008189133,-2.48644469537441,343.314004943999
738353.48287167691159993410,-6.80695008189133,-2.49875382752973,343.153986225979
738353.48287178925238549709,-6.81925921404665,-2.47413556321909,343.277077547533
738353.48287190159317106009,-6.85618661051261,-2.51106295968505,343.338623208309
738353.48287201393395662308,-6.83156834620197,-2.49875382752973,343.338623208309
738353.48287212627474218607,-6.81925921404665,-2.47413556321909,343.326314076154
738353.48287223861552774906,-6.86849574266793,-2.52337209184037,343.227841018911
738353.48287235095631331205,-6.86849574266793,-2.52337209184037,343.326314076154
738353.48287246329709887505,-6.86849574266793,-2.52337209184037,343.338623208309
738353.48287257563788443804,-6.89311400697857,-2.51106295968505,343.314004943999
738353.48287268797867000103,-6.90542313913388,-2.51106295968505,343.301695811843
738353.48287280031945556402,-6.90542313913388,-2.52337209184037,343.314004943999
738353.48287291266024112701,-6.88080487482325,-2.48644469537441,343.301695811843
738353.48287302500102669001,-6.90542313913388,-2.52337209184037,343.264768415377
738353.48287313745822757483,-6.89311400697857,-2.51106295968505,343.301695811843
738353.48287324979901313782,-6.9177322712892,-2.54799035615101,343.301695811843
738353.48287336213979870081,-6.89311400697857,-2.49875382752973,343.252459283222
738353.48287347448058426380,-6.9177322712892,-2.51106295968505,343.264768415377
738353.48287358682136982679,-6.9177322712892,-2.52337209184037,343.215531886756
738353.48287369916215538979,-6.93004140344452,-2.52337209184037,343.215531886756
738353.48287381150294095278,-6.93004140344452,-2.52337209184037,343.17860449029
738353.48287392384372651577,-6.93004140344452,-2.52337209184037,343.215531886756
738353.48287403618451207876,-6.9177322712892,-2.52337209184037,343.252459283222
738353.48287414852529764175,-6.94235053559984,-2.51106295968505,343.252459283222
738353.48287426086608320475,-6.96696879991048,-2.54799035615101,343.289386679688
738353.48287437320686876774,-6.96696879991048,-2.53568122399569,343.277077547533
738353.48287448554765433073,-6.94235053559984,-2.49875382752973,343.301695811843
738353.48287459788843989372,-6.96696879991048,-2.52337209184037,343.215531886756
738353.48287471022922545671,-6.9792779320658,-2.54799035615101,343.277077547533
738353.48287482257001101971,-6.9792779320658,-2.53568122399569,343.289386679688
738353.48287493502721190453,-7.00389619637644,-2.54799035615101,343.227841018911
738353.48287504736799746752,-6.96696879991048,-2.52337209184037,343.301695811843
738353.48287515970878303051,-6.99158706422112,-2.52337209184037,343.277077547533
738353.48287527204956859350,-6.99158706422112,-2.53568122399569,343.252459283222
738353.48287538439035415649,-6.9792779320658,-2.53568122399569,343.227841018911
738353.48287549673113971949,-6.9792779320658,-2.52337209184037,343.252459283222
738353.48287560907192528248,-7.00389619637644,-2.53568122399569,343.277077547533
738353.48287572141271084547,-6.99158706422112,-2.51106295968505,343.277077547533
738353.48287583375349640846,-7.01620532853175,-2.54799035615101,343.203222754601
738353.48287594609428197145,-6.9792779320658,-2.52337209184037,343.264768415377
738353.48287605843506753445,-7.05313272499771,-2.58491775261696,343.264768415377
738353.48287617077585309744,-7.04082359284239,-2.58491775261696,343.289386679688
738353.48287628311663866043,-7.02851446068707,-2.54799035615101,343.17860449029
738353.48287639545742422342,-7.01620532853175,-2.53568122399569,343.141677093824
738353.48287650779820978642,-7.02851446068707,-2.54799035615101,343.203222754601
738353.48287662013899534941,-7.01620532853175,-2.52337209184037,343.215531886756
738353.48287673259619623423,-7.00389619637644,-2.53568122399569,343.190913622445
738353.48287684493698179722,-6.99158706422112,-2.49875382752973,343.153986225979
738353.48287695727776736021,-7.01620532853175,-2.49875382752973,343.240150151067
738353.48287706961855292320,-6.9792779320658,-2.47413556321909,343.240150151067
738353.48287718195933848619,-7.02851446068707,-2.51106295968505,343.203222754601
738353.48287729430012404919,-7.07775098930835,-2.54799035615101,343.240150151067
738353.48287740664090961218,-7.09006012146367,-2.58491775261696,343.240150151067
738353.48287751898169517517,-7.09006012146367,-2.58491775261696,343.240150151067
738353.48287763132248073816,-7.07775098930835,-2.56029948830632,343.190913622445
738353.48287774366326630116,-7.09006012146367,-2.56029948830632,343.227841018911
738353.48287785600405186415,-7.09006012146367,-2.57260862046164,343.240150151067
738353.48287796834483742714,-7.10236925361899,-2.58491775261696,343.215531886756
738353.48287808068562299013,-7.09006012146367,-2.58491775261696,343.240150151067
738353.48287819302640855312,-7.10236925361899,-2.57260862046164,343.252459283222
738353.48287830536719411612,-7.11467838577431,-2.6095360169276,343.252459283222
738353.48287841770797967911,-7.15160578224026,-2.69569994201483,343.227841018911
738353.48287853004876524210,-7.1762240465509,-2.78186386710206,343.338623208309
738353.48287864250596612692,-7.05313272499771,-2.49875382752973,343.621733247881
738353.48287875484675168991,-6.85618661051261,-2.04331593778293,343.375550604775
738353.48287886718753725290,-6.48691264585304,-1.34169540492976,342.981658375805
738353.48287897952832281590,-6.68385876033815,-1.13244015828934,343.006276640116
738353.48287909186910837889,-6.93004140344452,-1.63711457665741,342.895494450718
738353.48287920420989394188,-7.04082359284239,-2.24026205226803,342.870876186407
738353.48287931655067950487,-7.16391491439558,-2.49875382752973,343.092440565203
738353.48287942889146506786,-7.11467838577431,-2.47413556321909,343.166295358135
738353.48287954123225063086,-7.11467838577431,-2.53568122399569,343.17860449029
738353.48287965357303619385,-7.11467838577431,-2.53568122399569,343.190913622445
738353.48287976591382175684,-7.11467838577431,-2.51106295968505,343.227841018911
738353.48287987825460731983,-7.10236925361899,-2.52337209184037,343.252459283222
738353.48287999059539288282,-7.12698751792962,-2.52337209184037,343.277077547533
738353.48288010293617844582,-7.10236925361899,-2.51106295968505,343.289386679688
738353.48288021527696400881,-7.10236925361899,-2.51106295968505,343.289386679688
738353.48288032761774957180,-7.10236925361899,-2.51106295968505,343.080131433047
738353.48288044007495045662,-7.11467838577431,-2.48644469537441,343.215531886756
738353.48288055241573601961,-7.12698751792962,-2.51106295968505,343.301695811843
738353.48288066475652158260,-7.11467838577431,-2.48644469537441,343.301695811843
738353.48288077709730714560,-7.10236925361899,-2.47413556321909,343.289386679688
738353.48288088943809270859,-7.09006012146367,-2.46182643106377,343.326314076154
738353.48288100177887827158,-7.10236925361899,-2.46182643106377,343.338623208309
738353.48288111411966383457,-7.10236925361899,-2.44951729890845,343.326314076154
738353.48288122646044939756,-7.06544185715303,-2.40028077028718,343.350932340465
738353.48288133880123496056,-7.05313272499771,-2.38797163813186,343.338623208309
738353.48288145114202052355,-7.05313272499771,-2.36335337382122,343.375550604775
738353.48288156348280608654,-7.05313272499771,-2.3510442416659,343.375550604775
738353.48288167582359164953,-7.05313272499771,-2.32642597735527,343.400168869086
738353.48288178816437721252,-7.02851446068707,-2.26488031657867,343.437096265552
738353.48288190050516277552,-6.99158706422112,-2.2156437879574,343.449405397707
738353.48288201284594833851,-6.99158706422112,-2.16640725933612,343.486332794173
738353.48288212518673390150,-6.9792779320658,-2.11717073071485,343.437096265552
738353.48288223764393478632,-6.99158706422112,-2.11717073071485,343.523260190639
738353.48288234998472034931,-6.93004140344452,-2.03100680562761,343.523260190639
738353.48288246232550591230,-6.95465966775516,-2.04331593778293,343.510951058484
738353.48288257466629147530,-6.96696879991048,-2.04331593778293,343.498641926328
738353.48288268700707703829,-6.96696879991048,-2.06793420209357,343.461714529862
738353.48288279934786260128,-7.00389619637644,-2.14178899502548,343.424787133396
738353.48288291168864816427,-7.02851446068707,-2.2156437879574,343.350932340465
738353.48288302402943372726,-7.05313272499771,-2.26488031657867,343.36324147262
738353.48288313637021929026,-7.09006012146367,-2.31411684519995,343.314004943999
738353.48288324871100485325,-7.10236925361899,-2.37566250597654,343.289386679688
738353.48288336105179041624,-7.12698751792962,-2.4125899024425,343.252459283222
738353.48288347339257597923,-7.16391491439558,-2.42489903459782,343.252459283222
738353.48288358573336154222,-7.15160578224026,-2.44951729890845,343.240150151067
738353.48288369807414710522,-7.18853317870622,-2.47413556321909,343.17860449029
738353.48288381041493266821,-7.18853317870622,-2.46182643106377,343.203222754601
738353.48288392275571823120,-7.15160578224026,-2.44951729890845,343.190913622445
738353.48288403521291911602,-7.20084231086154,-2.47413556321909,343.227841018911
738353.48288414755370467901,-7.20084231086154,-2.48644469537441,343.17860449029
738353.48288425989449024200,-7.18853317870622,-2.47413556321909,343.215531886756
738353.48288437223527580500,-7.18853317870622,-2.47413556321909,343.227841018911
738353.48288448457606136799,-7.18853317870622,-2.46182643106377,343.190913622445
738353.48288459691684693098,-7.18853317870622,-2.44951729890845,343.240150151067
738353.48288470925763249397,-7.20084231086154,-2.47413556321909,343.055513168737
738353.48288482159841805696,-7.18853317870622,-2.46182643106377,343.141677093824
738353.48288493393920361996,-7.18853317870622,-2.46182643106377,343.190913622445
738353.48288504627998918295,-7.21315144301686,-2.47413556321909,343.240150151067
738353.48288515862077474594,-7.16391491439558,-2.43720816675314,343.240150151067
738353.48288527096156030893,-7.16391491439558,-2.43720816675314,343.252459283222
738353.48288538330234587193,-7.18853317870622,-2.44951729890845,343.166295358135
738353.48288549564313143492,-7.18853317870622,-2.44951729890845,343.166295358135
738353.48288560798391699791,-7.18853317870622,-2.46182643106377,343.166295358135
738353.48288572032470256090,-7.1762240465509,-2.44951729890845,343.117058829513
738353.48288583278190344572,-7.20084231086154,-2.44951729890845,343.17860449029
738353.48288594512268900871,-7.1762240465509,-2.43720816675314,343.240150151067
738353.48288605746347457170,-7.15160578224026,-2.4125899024425,343.166295358135
738353.48288616980426013470,-7.20084231086154,-2.44951729890845,343.166295358135
738353.48288628214504569769,-7.15160578224026,-2.4125899024425,343.17860449029
738353.48288639448583126068,-7.21315144301686,-2.48644469537441,343.227841018911
738353.48288650682661682367,-7.20084231086154,-2.47413556321909,343.227841018911
738353.48288661916740238667,-7.18853317870622,-2.46182643106377,343.203222754601
738353.48288673150818794966,-7.18853317870622,-2.43720816675314,343.215531886756
738353.48288684384897351265,-7.18853317870622,-2.44951729890845,343.215531886756
738353.48288695618975907564,-7.18853317870622,-2.44951729890845,343.215531886756
738353.48288706853054463863,-7.1762240465509,-2.42489903459782,343.166295358135
738353.48288718087133020163,-7.18853317870622,-2.43720816675314,343.166295358135
738353.48288729321211576462,-7.1762240465509,-2.43720816675314,343.166295358135
738353.48288740555290132761,-7.18853317870622,-2.44951729890845,343.104749697358
738353.48288751789368689060,-7.1762240465509,-2.44951729890845,343.043204036582
738353.48288763023447245359,-7.18853317870622,-2.44951729890845,343.203222754601
738353.48288774269167333841,-7.18853317870622,-2.44951729890845,342.920112715028
738353.48288785503245890141,-7.18853317870622,-2.43720816675314,342.99396750796
738353.48288796737324446440,-7.1762240465509,-2.43720816675314,343.190913622445
738353.48288807971403002739,-7.18853317870622,-2.44951729890845,343.190913622445
738353.48288819205481559038,-7.18853317870622,-2.44951729890845,343.043204036582
738353.48288830439560115337,-7.1762240465509,-2.46182643106377,343.190913622445
738353.48288841673638671637,-7.1762240465509,-2.46182643106377,343.190913622445
738353.48288852907717227936,-7.16391491439558,-2.43720816675314,343.153986225979
738353.48288864141795784235,-7.13929665008494,-2.4125899024425,343.129367961669
738353.48288875375874340534,-7.15160578224026,-2.42489903459782,343.006276640116
738353.48288886609952896833,-7.13929665008494,-2.38797163813186,343.117058829513
738353.48288897844031453133,-7.12698751792962,-2.36335337382122,342.96934924365
738353.48288909078110009432,-7.13929665008494,-2.37566250597654,343.030894904426
738353.48288920312188565731,-7.15160578224026,-2.37566250597654,343.080131433047
738353.48288931546267122030,-7.1762240465509,-2.42489903459782,343.104749697358
738353.48288942780345678329,-7.1762240465509,-2.43720816675314,343.17860449029
738353.48288954026065766811,-7.1762240465509,-2.43720816675314,343.203222754601
738353.48288965260144323111,-7.1762240465509,-2.42489903459782,343.030894904426
738353.48288976494222879410,-7.1762240465509,-2.43720816675314,343.17860449029
738353.48288987728301435709,-7.1762240465509,-2.43720816675314,343.215531886756
738353.48288998962379992008,-7.18853317870622,-2.42489903459782,343.203222754601
738353.48289010196458548307,-7.18853317870622,-2.42489903459782,343.055513168737
738353.48289021430537104607,-7.18853317870622,-2.42489903459782,343.215531886756
738353.48289032664615660906,-7.18853317870622,-2.44951729890845,343.153986225979
738353.48289043898694217205,-7.23776970732749,-2.62184514908292,343.067822300892
738353.48289055132772773504,-7.18853317870622,-2.52337209184037,343.338623208309
738353.48289066366851329803,-7.04082359284239,-2.17871639149144,343.449405397707
738353.48289077600929886103,-6.70847702464878,-1.60018718019145,342.99396750796
738353.48289088835008442402,-6.46229438154241,-1.00934883673615,342.846257922096
738353.48289100069086998701,-6.77002268542538,-1.03396710104678,342.96934924365
738353.48289111303165555000,-6.9792779320658,-1.64942370881273,342.821639657786
738353.48289122537244111300,-7.13929665008494,-2.16640725933612,342.80933052563
738353.48289133782964199781,-7.12698751792962,-2.27718944873399,343.117058829513
738353.48289145017042756081,-7.12698751792962,-2.32642597735527,343.215531886756
738353.48289156251121312380,-7.13929665008494,-2.36335337382122,343.030894904426
738353.48289167485199868679,-7.13929665008494,-2.36335337382122,343.227841018911
738353.48289178719278424978,-7.13929665008494,-2.37566250597654,343.240150151067
738353.48289189953356981277,-7.12698751792962,-2.37566250597654,343.080131433047
738353.48289201187435537577,-7.15160578224026,-2.37566250597654,343.018585772271
738353.48289212421514093876,-7.13929665008494,-2.37566250597654,342.957040111494
738353.48289223655592650175,-7.13929665008494,-2.38797163813186,343.227841018911
738353.48289234889671206474,-7.12698751792962,-2.37566250597654,343.240150151067
738353.48289246123749762774,-7.12698751792962,-2.36335337382122,343.166295358135
738353.48289257357828319073,-7.12698751792962,-2.36335337382122,343.240150151067
738353.48289268591906875372,-7.11467838577431,-2.3510442416659,343.264768415377
738353.48289279825985431671,-7.11467838577431,-2.33873510951058,343.264768415377
738353.48289291060063987970,-7.10236925361899,-2.32642597735527,343.17860449029
738353.48289302294142544270,-7.10236925361899,-2.32642597735527,343.277077547533
738353.48289313539862632751,-7.10236925361899,-2.31411684519995,343.289386679688
738353.48289324773941189051,-7.09006012146367,-2.28949858088931,343.018585772271
738353.48289336008019745350,-7.07775098930835,-2.27718944873399,343.326314076154
738353.48289347242098301649,-7.06544185715303,-2.25257118442335,343.203222754601
738353.48289358476176857948,-7.06544185715303,-2.24026205226803,343.215531886756
738353.48289369710255414248,-7.04082359284239,-2.20333465580208,343.326314076154
738353.48289380944333970547,-7.01620532853175,-2.1540981271808,343.412478001241
738353.48289392178412526846,-7.00389619637644,-2.11717073071485,343.424787133396
738353.48289403412491083145,-6.9792779320658,-2.06793420209357,343.375550604775
738353.48289414646569639444,-6.95465966775516,-2.01869767347229,343.486332794173
738353.48289425880648195744,-6.94235053559984,-1.98177027700634,343.486332794173
738353.48289437114726752043,-6.9177322712892,-1.93253374838506,343.36324147262
738353.48289448348805308342,-6.9177322712892,-1.93253374838506,343.190913622445
738353.48289459582883864641,-6.90542313913388,-1.92022461622974,343.461714529862
738353.48289470816962420940,-6.93004140344452,-1.9571520126957,343.437096265552
738353.48289482051040977240,-6.95465966775516,-2.03100680562761,343.350932340465
738353.48289493296761065722,-6.99158706422112,-2.10486159855953,343.314004943999
738353.48289504530839622021,-7.04082359284239,-2.17871639149144,343.314004943999
738353.48289515764918178320,-7.06544185715303,-2.22795292011272,343.289386679688
738353.48289526998996734619,-7.09006012146367,-2.27718944873399,343.043204036582
738353.48289538233075290918,-7.10236925361899,-2.30180771304463,343.166295358135
738353.48289549467153847218,-7.11467838577431,-2.32642597735527,343.153986225979
738353.48289560701232403517,-7.12698751792962,-2.32642597735527,342.99396750796
738353.48289571935310959816,-7.13929665008494,-2.33873510951058,343.153986225979
738353.48289583169389516115,-7.12698751792962,-2.32642597735527,343.190913622445
738353.48289594403468072414,-7.12698751792962,-2.33873510951058,343.043204036582
738353.48289605637546628714,-7.11467838577431,-2.33873510951058,343.215531886756
738353.48289616871625185013,-7.11467838577431,-2.33873510951058,343.215531886756
738353.48289628105703741312,-7.11467838577431,-2.33873510951058,343.227841018911
738353.48289639339782297611,-7.11467838577431,-2.33873510951058,343.043204036582
738353.48289650573860853910,-7.12698751792962,-2.3510442416659,343.227841018911
738353.48289661807939410210,-7.11467838577431,-2.33873510951058,343.227841018911
738353.48289673053659498692,-7.12698751792962,-2.33873510951058,343.215531886756
738353.48289684287738054991,-7.11467838577431,-2.33873510951058,343.006276640116
738353.48289695521816611290,-7.10236925361899,-2.32642597735527,343.215531886756
738353.48289706755895167589,-7.12698751792962,-2.33873510951058,343.215531886756
738353.48289717989973723888,-7.11467838577431,-2.3510442416659,343.141677093824
738353.48289729224052280188,-7.11467838577431,-2.32642597735527,343.215531886756
738353.48289740458130836487,-7.10236925361899,-2.32642597735527,343.227841018911
738353.48289751692209392786,-7.10236925361899,-2.32642597735527,343.153986225979
738353.48289762926287949085,-7.10236925361899,-2.32642597735527,343.215531886756
738353.48289774160366505384,-7.10236925361899,-2.33873510951058,343.227841018911
738353.48289785394445061684,-7.11467838577431,-2.33873510951058,343.067822300892
738353.48289796628523617983,-7.10236925361899,-2.32642597735527,343.092440565203
738353.48289807862602174282,-7.10236925361899,-2.33873510951058,343.190913622445
738353.48289819096680730581,-7.11467838577431,-2.33873510951058,343.17860449029
738353.48289830330759286880,-7.10236925361899,-2.32642597735527,343.17860449029
738353.48289841564837843180,-7.11467838577431,-2.3510442416659,343.190913622445
738353.48289852798916399479,-7.11467838577431,-2.33873510951058,343.190913622445
738353.48289864044636487961,-7.11467838577431,-2.33873510951058,343.166295358135
738353.48289875278715044260,-7.12698751792962,-2.3510442416659,343.190913622445
738353.48289886512793600559,-7.11467838577431,-2.33873510951058,343.141677093824
738353.48289897746872156858,-7.11467838577431,-2.33873510951058,343.129367961669
738353.48289908980950713158,-7.12698751792962,-2.3510442416659,343.141677093824
738353.48289920215029269457,-7.12698751792962,-2.3510442416659,343.129367961669
738353.48289931449107825756,-7.12698751792962,-2.33873510951058,343.129367961669
738353.48289942683186382055,-7.11467838577431,-2.33873510951058,343.092440565203
738353.48289953917264938354,-7.12698751792962,-2.3510442416659,343.153986225979
738353.48289965151343494654,-7.12698751792962,-2.36335337382122,343.166295358135
738353.48289976385422050953,-7.12698751792962,-2.33873510951058,343.104749697358
738353.48289987619500607252,-7.12698751792962,-2.3510442416659,343.153986225979
738353.48289998853579163551,-7.13929665008494,-2.3510442416659,343.190913622445
738353.48290010087657719851,-7.13929665008494,-2.3510442416659,343.190913622445
738353.48290021321736276150,-7.12698751792962,-2.33873510951058,343.17860449029
738353.48290032555814832449,-7.12698751792962,-2.33873510951058,343.203222754601
738353.48290043801534920931,-7.12698751792962,-2.33873510951058,343.203222754601
738353.48290055035613477230,-7.12698751792962,-2.33873510951058,343.190913622445
738353.48290066269692033529,-7.13929665008494,-2.33873510951058,343.030894904426
738353.48290077503770589828,-7.12698751792962,-2.3510442416659,343.203222754601
738353.48290088737849146128,-7.13929665008494,-2.3510442416659,343.215531886756
738353.48290099971927702427,-7.12698751792962,-2.3510442416659,343.043204036582
738353.48290111206006258726,-7.10236925361899,-2.3510442416659,343.215531886756
738353.48290122440084815025,-7.12698751792962,-2.36335337382122,343.203222754601
738353.48290133674163371325,-7.11467838577431,-2.36335337382122,343.203222754601
738353.48290144908241927624,-7.10236925361899,-2.33873510951058,343.043204036582
738353.48290156142320483923,-7.09006012146367,-2.32642597735527,343.190913622445
738353.48290167376399040222,-7.09006012146367,-2.32642597735527,343.17860449029
738353.48290178610477596521,-7.07775098930835,-2.30180771304463,343.092440565203
738353.48290189844556152821,-7.07775098930835,-2.28949858088931,343.215531886756
738353.48290201078634709120,-7.09006012146367,-2.28949858088931,343.215531886756
738353.48290212312713265419,-7.11467838577431,-2.28949858088931,343.153986225979
738353.48290223558433353901,-7.12698751792962,-2.33873510951058,343.104749697358
738353.48290234792511910200,-7.13929665008494,-2.37566250597654,343.067822300892
738353.48290246026590466499,-7.13929665008494,-2.36335337382122,343.166295358135
738353.48290257260669022799,-7.13929665008494,-2.3510442416659,343.203222754601
738353.48290268494747579098,-7.13929665008494,-2.3510442416659,343.215531886756
738353.48290279728826135397,-7.15160578224026,-2.36335337382122,343.227841018911
738353.48290290962904691696,-7.15160578224026,-2.36335337382122,343.17860449029
738353.48290302196983247995,-7.13929665008494,-2.36335337382122,343.215531886756
738353.48290313431061804295,-7.12698751792962,-2.3510442416659,343.215531886756
738353.48290324665140360594,-7.16391491439558,-2.4125899024425,343.129367961669
738353.48290335899218916893,-7.21315144301686,-2.57260862046164,343.277077547533
738353.48290347133297473192,-7.09006012146367,-2.3510442416659,343.498641926328
738353.48290358367376029491,-7.01620532853175,-2.19102552364676,343.510951058484
738353.48290369601454585791,-6.74540442111474,-1.71096936958932,343.030894904426
738353.48290380835533142090,-6.40074872076581,-1.09551276182338,342.735475732699
738353.48290392069611698389,-6.62231309956155,-0.923184911648915,342.895494450718
738353.48290403315331786871,-6.90542313913388,-1.36631366924039,342.883185318562
738353.48290414549410343170,-7.06544185715303,-1.94484288054038,342.944730979339
738353.48290425783488899469,-7.07775098930835,-2.14178899502548,343.080131433047
738353.48290437017567455769,-7.07775098930835,-2.25257118442335,343.141677093824
738353.48290448251646012068,-7.10236925361899,-2.28949858088931,343.190913622445
738353.48290459485724568367,-7.10236925361899,-2.31411684519995,343.227841018911
738353.48290470719803124666,-7.10236925361899,-2.32642597735527,343.215531886756
738353.48290481953881680965,-7.10236925361899,-2.32642597735527,343.252459283222
738353.48290493187960237265,-7.11467838577431,-2.33873510951058,343.240150151067
738353.48290504422038793564,-7.11467838577431,-2.32642597735527,343.289386679688
738353.48290515656117349863,-7.11467838577431,-2.32642597735527,343.314004943999
738353.48290526890195906162,-7.10236925361899,-2.32642597735527,343.375550604775
738353.48290538124274462461,-7.10236925361899,-2.33873510951058,343.36324147262
738353.48290549358353018761,-7.10236925361899,-2.32642597735527,343.264768415377
738353.48290560592431575060,-7.09006012146367,-2.30180771304463,343.326314076154
738353.48290571826510131359,-7.09006012146367,-2.28949858088931,343.314004943999
738353.48290583072230219841,-7.09006012146367,-2.28949858088931,343.326314076154
738353.48290594306308776140,-7.07775098930835,-2.27718944873399,343.301695811843
738353.48290605540387332439,-7.06544185715303,-2.26488031657867,343.350932340465
738353.48290616774465888739,-7.06544185715303,-2.25257118442335,343.36324147262
738353.48290628008544445038,-7.05313272499771,-2.24026205226803,343.375550604775
738353.48290639242623001337,-7.04082359284239,-2.20333465580208,343.38785973693
738353.48290650476701557636,-7.04082359284239,-2.19102552364676,343.412478001241
738353.48290661710780113935,-7.01620532853175,-2.1540981271808,343.36324147262
738353.48290672944858670235,-7.00389619637644,-2.12947986287016,343.314004943999
738353.48290684178937226534,-6.96696879991048,-2.09255246640421,343.498641926328
738353.48290695413015782833,-6.96696879991048,-2.04331593778293,343.535569322794
738353.48290706647094339132,-6.94235053559984,-2.00638854131698,343.510951058484
738353.48290717881172895432,-6.93004140344452,-1.9571520126957,343.560187587105
738353.48290729115251451731,-6.9177322712892,-1.93253374838506,343.57249671926
738353.48290740349330008030,-6.90542313913388,-1.88329721976379,343.535569322794
738353.48290751583408564329,-6.88080487482325,-1.87098808760847,343.437096265552
738353.48290762817487120628,-6.89311400697857,-1.89560635191911,343.424787133396
738353.48290774063207209110,-6.9177322712892,-1.9571520126957,343.424787133396
738353.48290785297285765409,-6.96696879991048,-2.03100680562761,343.36324147262
738353.48290796531364321709,-6.99158706422112,-2.09255246640421,343.326314076154
738353.48290807765442878008,-7.01620532853175,-2.1540981271808,343.350932340465
738353.48290818999521434307,-7.02851446068707,-2.17871639149144,343.277077547533
738353.48290830233599990606,-7.04082359284239,-2.22795292011272,343.289386679688
738353.48290841467678546906,-7.05313272499771,-2.24026205226803,343.264768415377
738353.48290852701757103205,-7.06544185715303,-2.25257118442335,343.277077547533
738353.48290863935835659504,-7.07775098930835,-2.26488031657867,343.326314076154
738353.48290875169914215803,-7.06544185715303,-2.26488031657867,343.338623208309
738353.48290886403992772102,-7.06544185715303,-2.25257118442335,343.252459283222
738353.48290897638071328402,-7.07775098930835,-2.27718944873399,343.314004943999
738353.48290908872149884701,-7.06544185715303,-2.26488031657867,343.326314076154
738353.48290920106228441000,-7.06544185715303,-2.26488031657867,343.326314076154
738353.48290931340306997299,-7.06544185715303,-2.27718944873399,343.314004943999
738353.48290942574385553598,-7.07775098930835,-2.27718944873399,343.264768415377
738353.48290953820105642080,-7.06544185715303,-2.26488031657867,343.326314076154
738353.48290965054184198380,-7.06544185715303,-2.26488031657867,343.301695811843
738353.48290976288262754679,-7.06544185715303,-2.26488031657867,343.277077547533
738353.48290987522341310978,-7.07775098930835,-2.26488031657867,343.350932340465
738353.48290998756419867277,-7.07775098930835,-2.27718944873399,343.264768415377
738353.48291009990498423576,-7.06544185715303,-2.26488031657867,343.166295358135
738353.48291021224576979876,-7.07775098930835,-2.26488031657867,343.166295358135
738353.48291032458655536175,-7.07775098930835,-2.27718944873399,343.129367961669
738353.48291043692734092474,-7.06544185715303,-2.27718944873399,343.153986225979
738353.48291054926812648773,-7.07775098930835,-2.27718944873399,343.190913622445
738353.48291066160891205072,-7.07775098930835,-2.26488031657867,343.203222754601
738353.48291077394969761372,-7.07775098930835,-2.26488031657867,343.166295358135
738353.48291088629048317671,-7.07775098930835,-2.27718944873399,343.289386679688
738353.48291099863126873970,-7.07775098930835,-2.26488031657867,343.203222754601
738353.48291111097205430269,-7.07775098930835,-2.27718944873399,343.129367961669
738353.48291122331283986568,-7.07775098930835,-2.26488031657867,343.277077547533
738353.48291133577004075050,-7.07775098930835,-2.26488031657867,343.314004943999
738353.48291144811082631350,-7.09006012146367,-2.27718944873399,343.314004943999
738353.48291156045161187649,-7.07775098930835,-2.26488031657867,343.215531886756
738353.48291167279239743948,-7.06544185715303,-2.26488031657867,343.326314076154
738353.48291178513318300247,-7.06544185715303,-2.26488031657867,343.277077547533
738353.48291189747396856546,-7.05313272499771,-2.26488031657867,343.277077547533
738353.48291200981475412846,-7.05313272499771,-2.26488031657867,343.277077547533
738353.48291212215553969145,-7.05313272499771,-2.26488031657867,343.289386679688
738353.48291223449632525444,-7.06544185715303,-2.26488031657867,343.289386679688
738353.48291234683711081743,-7.06544185715303,-2.26488031657867,343.252459283222
738353.48291245917789638042,-7.06544185715303,-2.25257118442335,343.301695811843
738353.48291257151868194342,-7.05313272499771,-2.26488031657867,343.338623208309
738353.48291268385946750641,-7.05313272499771,-2.26488031657867,343.301695811843
738353.48291279620025306940,-7.05313272499771,-2.26488031657867,343.277077547533
738353.48291290854103863239,-7.05313272499771,-2.25257118442335,343.338623208309
738353.48291302088182419538,-7.05313272499771,-2.25257118442335,343.301695811843
738353.48291313333902508020,-7.04082359284239,-2.25257118442335,343.252459283222
738353.48291324567981064320,-7.04082359284239,-2.25257118442335,343.301695811843
738353.48291335802059620619,-7.04082359284239,-2.24026205226803,343.326314076154
738353.48291347036138176918,-7.04082359284239,-2.24026205226803,343.227841018911
738353.48291358270216733217,-7.04082359284239,-2.24026205226803,343.289386679688
738353.48291369504295289516,-7.04082359284239,-2.24026205226803,343.326314076154
738353.48291380738373845816,-7.02851446068707,-2.25257118442335,343.289386679688
738353.48291391972452402115,-7.01620532853175,-2.24026205226803,343.190913622445
738353.48291403206530958414,-7.01620532853175,-2.24026205226803,343.277077547533
738353.48291414440609514713,-7.01620532853175,-2.22795292011272,343.314004943999
738353.48291425674688071012,-7.01620532853175,-2.22795292011272,343.215531886756
738353.48291436908766627312,-7.00389619637644,-2.22795292011272,343.240150151067
738353.48291448142845183611,-7.00389619637644,-2.22795292011272,343.314004943999
738353.48291459376923739910,-6.99158706422112,-2.22795292011272,343.326314076154
738353.48291470611002296209,-6.99158706422112,-2.22795292011272,343.252459283222
738353.48291481845080852509,-6.9792779320658,-2.2156437879574,343.227841018911
738353.48291493090800940990,-6.9792779320658,-2.2156437879574,343.252459283222
738353.48291504324879497290,-6.96696879991048,-2.2156437879574,343.240150151067
738353.48291515558958053589,-6.96696879991048,-2.22795292011272,343.203222754601
738353.48291526793036609888,-6.95465966775516,-2.19102552364676,343.252459283222
738353.48291538027115166187,-6.95465966775516,-2.17871639149144,343.153986225979
738353.48291549261193722486,-6.94235053559984,-2.17871639149144,343.055513168737
738353.48291560495272278786,-6.94235053559984,-2.14178899502548,343.141677093824
738353.48291571729350835085,-6.93004140344452,-2.12947986287016,343.252459283222
738353.48291582963429391384,-6.95465966775516,-2.14178899502548,343.264768415377
738353.48291594197507947683,-6.96696879991048,-2.17871639149144,343.240150151067
738353.48291605431586503983,-6.9792779320658,-2.22795292011272,343.215531886756
738353.48291616665665060282,-6.9792779320658,-2.20333465580208,343.227841018911
738353.48291627899743616581,-6.96696879991048,-2.19102552364676,343.240150151067
738353.48291639133822172880,-6.9792779320658,-2.20333465580208,343.166295358135
738353.48291650367900729179,-6.96696879991048,-2.19102552364676,343.240150151067
738353.48291661601979285479,-6.96696879991048,-2.19102552364676,343.166295358135
738353.48291672836057841778,-6.96696879991048,-2.19102552364676,343.141677093824
738353.48291684081777930260,-6.9792779320658,-2.19102552364676,343.153986225979
738353.48291695315856486559,-6.96696879991048,-2.17871639149144,343.153986225979
738353.48291706549935042858,-6.99158706422112,-2.31411684519995,343.190913622445
738353.48291717784013599157,-6.9792779320658,-2.30180771304463,343.38785973693
738353.48291729018092155457,-6.9177322712892,-2.16640725933612,343.535569322794
738353.48291740252170711756,-6.77002268542538,-1.80944242683187,343.412478001241
738353.48291751486249268055,-6.38843958861049,-1.14474929044465,342.957040111494
738353.48291762720327824354,-6.37613045645517,-0.738547929319132,342.96934924365
738353.48291773954406380653,-6.67154962818283,-0.960112308114872,342.981658375805
738353.48291785188484936953,-6.83156834620197,-1.57556891588082,342.821639657786
738353.48291796422563493252,-6.9177322712892,-1.93253374838506,342.981658375805
738353.48291807656642049551,-6.89311400697857,-2.03100680562761,343.227841018911
738353.48291818890720605850,-6.9177322712892,-2.06793420209357,343.277077547533
738353.48291830124799162149,-6.9177322712892,-2.10486159855953,343.215531886756
738353.48291841358877718449,-6.9177322712892,-2.11717073071485,343.277077547533
738353.48291852592956274748,-6.9177322712892,-2.12947986287016,343.277077547533
738353.48291863838676363230,-6.9177322712892,-2.11717073071485,343.141677093824
738353.48291875072754919529,-6.9177322712892,-2.11717073071485,343.203222754601
738353.48291886306833475828,-6.90542313913388,-2.10486159855953,343.240150151067
738353.48291897540912032127,-6.90542313913388,-2.09255246640421,343.314004943999
738353.48291908774990588427,-6.90542313913388,-2.10486159855953,343.252459283222
738353.48291920009069144726,-6.90542313913388,-2.09255246640421,343.264768415377
738353.48291931243147701025,-6.90542313913388,-2.08024333424889,343.350932340465
738353.48291942477226257324,-6.89311400697857,-2.08024333424889,343.203222754601
738353.48291953711304813623,-6.90542313913388,-2.05562506993825,343.215531886756
738353.48291964945383369923,-6.89311400697857,-2.05562506993825,343.314004943999
738353.48291976179461926222,-6.89311400697857,-2.04331593778293,343.289386679688
738353.48291987413540482521,-6.89311400697857,-2.03100680562761,343.252459283222
738353.48291998647619038820,-6.88080487482325,-2.00638854131698,343.437096265552
738353.48292009881697595119,-6.88080487482325,-1.98177027700634,343.350932340465
738353.48292021115776151419,-6.88080487482325,-1.96946114485102,343.461714529862
738353.48292032349854707718,-6.86849574266793,-1.93253374838506,343.375550604775
738353.48292043595574796200,-6.84387747835729,-1.90791548407442,343.461714529862
738353.48292054829653352499,-6.83156834620197,-1.85867895545315,343.510951058484
738353.48292066063731908798,-6.81925921404665,-1.83406069114251,343.535569322794
738353.48292077297810465097,-6.80695008189133,-1.78482416252124,343.609424115726
738353.48292088531889021397,-6.79464094973601,-1.72327850174464,343.621733247881
738353.48292099765967577696,-6.77002268542538,-1.68635110527868,343.57249671926
738353.48292111000046133995,-6.75771355327006,-1.64942370881273,343.609424115726
738353.48292122234124690294,-6.77002268542538,-1.63711457665741,343.658660644347
738353.48292133468203246593,-6.77002268542538,-1.63711457665741,343.621733247881
738353.48292144702281802893,-6.7823318175807,-1.68635110527868,343.54787845495
738353.48292155936360359192,-6.81925921404665,-1.74789676605528,343.54787845495
738353.48292167170438915491,-6.85618661051261,-1.82175155898719,343.535569322794
738353.48292178404517471790,-6.89311400697857,-1.88329721976379,343.461714529862
738353.48292189638596028090,-6.90542313913388,-1.92022461622974,343.350932340465
738353.48292200872674584389,-6.94235053559984,-1.94484288054038,343.338623208309
738353.48292212106753140688,-6.96696879991048,-1.99407940916166,343.326314076154
738353.48292223352473229170,-6.99158706422112,-2.01869767347229,343.314004943999
738353.48292234586551785469,-6.99158706422112,-2.03100680562761,343.400168869086
738353.48292245820630341768,-7.00389619637644,-2.03100680562761,343.424787133396
738353.48292257054708898067,-7.00389619637644,-2.03100680562761,343.437096265552
738353.48292268288787454367,-7.02851446068707,-2.04331593778293,343.424787133396
738353.48292279522866010666,-7.02851446068707,-2.05562506993825,343.424787133396
738353.48292290756944566965,-7.04082359284239,-2.05562506993825,343.437096265552
738353.48292301991023123264,-7.02851446068707,-2.04331593778293,343.437096265552
738353.48292313225101679564,-7.04082359284239,-2.04331593778293,343.449405397707
738353.48292324459180235863,-7.04082359284239,-2.05562506993825,343.498641926328
738353.48292335693258792162,-7.05313272499771,-2.05562506993825,343.350932340465
738353.48292346927337348461,-7.04082359284239,-2.04331593778293,343.38785973693
738353.48292358161415904760,-7.06544185715303,-2.04331593778293,343.474023662018
738353.48292369395494461060,-7.06544185715303,-2.05562506993825,343.510951058484
738353.48292380629573017359,-7.06544185715303,-2.04331593778293,343.474023662018
738353.48292391863651573658,-7.06544185715303,-2.05562506993825,343.412478001241
738353.48292403109371662140,-7.07775098930835,-2.05562506993825,343.375550604775
738353.48292414343450218439,-7.07775098930835,-2.05562506993825,343.400168869086
738353.48292425577528774738,-7.07775098930835,-2.06793420209357,343.240150151067
738353.48292436811607331038,-7.07775098930835,-2.06793420209357,343.474023662018
738353.48292448045685887337,-7.09006012146367,-2.05562506993825,343.412478001241
738353.48292459279764443636,-7.09006012146367,-2.06793420209357,343.400168869086
738353.48292470513842999935,-7.10236925361899,-2.06793420209357,343.437096265552
738353.48292481747921556234,-7.11467838577431,-2.08024333424889,343.38785973693
738353.48292492982000112534,-7.11467838577431,-2.06793420209357,343.36324147262
738353.48292504216078668833,-7.11467838577431,-2.06793420209357,343.400168869086
738353.48292515450157225132,-7.11467838577431,-2.08024333424889,343.474023662018
738353.48292526684235781431,-7.12698751792962,-2.08024333424889,343.375550604775
738353.48292537918314337730,-7.12698751792962,-2.06793420209357,343.36324147262
738353.48292549152392894030,-7.12698751792962,-2.08024333424889,343.474023662018
738353.48292560386471450329,-7.12698751792962,-2.08024333424889,343.498641926328
738353.48292571620550006628,-7.12698751792962,-2.08024333424889,343.461714529862
738353.48292582854628562927,-7.13929665008494,-2.08024333424889,343.461714529862
738353.48292594100348651409,-7.13929665008494,-2.09255246640421,343.486332794173
738353.48292605334427207708,-7.13929665008494,-2.09255246640421,343.498641926328
738353.48292616568505764008,-7.13929665008494,-2.08024333424889,343.437096265552
738353.48292627802584320307,-7.15160578224026,-2.09255246640421,343.510951058484
738353.48292639036662876606,-7.15160578224026,-2.09255246640421,343.424787133396
738353.48292650270741432905,-7.16391491439558,-2.10486159855953,343.412478001241
738353.48292661504819989204,-7.13929665008494,-2.09255246640421,343.523260190639
738353.48292672738898545504,-7.13929665008494,-2.10486159855953,343.498641926328
738353.48292683972977101803,-7.13929665008494,-2.09255246640421,343.474023662018
738353.48292695207055658102,-7.15160578224026,-2.10486159855953,343.474023662018
738353.48292706441134214401,-7.15160578224026,-2.10486159855953,343.498641926328
738353.48292717675212770700,-7.15160578224026,-2.11717073071485,343.523260190639
738353.48292728909291327000,-7.13929665008494,-2.10486159855953,343.437096265552
738353.48292740143369883299,-7.15160578224026,-2.10486159855953,343.498641926328
738353.48292751377448439598,-7.15160578224026,-2.10486159855953,343.474023662018
738353.48292762611526995897,-7.15160578224026,-2.11717073071485,343.326314076154
738353.48292773857247084379,-7.15160578224026,-2.11717073071485,343.474023662018
738353.48292785091325640678,-7.15160578224026,-2.11717073071485,343.523260190639
738353.48292796325404196978,-7.15160578224026,-2.11717073071485,343.474023662018
738353.48292807559482753277,-7.15160578224026,-2.11717073071485,343.474023662018
738353.48292818793561309576,-7.15160578224026,-2.12947986287016,343.510951058484
738353.48292830027639865875,-7.15160578224026,-2.12947986287016,343.412478001241
738353.48292841261718422174,-7.13929665008494,-2.12947986287016,343.375550604775
738353.48292852495796978474,-7.15160578224026,-2.12947986287016,343.17860449029
738353.48292863729875534773,-7.15160578224026,-2.12947986287016,343.227841018911
738353.48292874963954091072,-7.13929665008494,-2.12947986287016,343.36324147262
738353.48292886198032647371,-7.13929665008494,-2.14178899502548,343.350932340465
738353.48292897432111203671,-7.13929665008494,-2.14178899502548,343.38785973693
738353.48292908666189759970,-7.12698751792962,-2.14178899502548,343.36324147262
738353.48292919900268316269,-7.12698751792962,-2.12947986287016,343.424787133396
738353.48292931134346872568,-7.11467838577431,-2.1540981271808,343.474023662018
738353.48292942368425428867,-7.11467838577431,-2.14178899502548,343.486332794173
738353.48292953614145517349,-7.11467838577431,-2.1540981271808,343.498641926328
738353.48292964848224073648,-7.09006012146367,-2.12947986287016,343.474023662018
738353.48292976082302629948,-7.09006012146367,-2.11717073071485,343.461714529862
738353.48292987316381186247,-7.07775098930835,-2.09255246640421,343.424787133396
738353.48292998550459742546,-7.06544185715303,-2.08024333424889,343.412478001241
738353.48293009784538298845,-7.07775098930835,-2.09255246640421,343.461714529862
738353.48293021018616855145,-7.09006012146367,-2.11717073071485,343.498641926328
738353.48293032252695411444,-7.11467838577431,-2.16640725933612,343.424787133396
738353.48293043486773967743,-7.11467838577431,-2.17871639149144,343.424787133396
738353.48293054720852524042,-7.11467838577431,-2.17871639149144,343.461714529862
738353.48293065954931080341,-7.11467838577431,-2.17871639149144,343.412478001241
738353.48293077189009636641,-7.10236925361899,-2.16640725933612,343.424787133396
738353.48293088423088192940,-7.10236925361899,-2.17871639149144,343.412478001241
738353.48293099657166749239,-7.10236925361899,-2.16640725933612,343.461714529862
738353.48293110891245305538,-7.09006012146367,-2.16640725933612,343.474023662018
738353.48293122125323861837,-7.09006012146367,-2.17871639149144,343.535569322794
738353.48293133371043950319,-7.09006012146367,-2.20333465580208,343.498641926328
738353.48293144605122506618,-7.12698751792962,-2.3510442416659,343.412478001241
738353.48293155839201062918,-7.09006012146367,-2.30180771304463,343.683278908658
738353.48293167073279619217,-6.95465966775516,-1.96946114485102,343.794061098056
738353.48293178307358175516,-6.65924049602751,-1.40324106570635,343.289386679688
738353.48293189541436731815,-6.41305785292113,-0.837020986561683,343.141677093824
738353.48293200775515288115,-6.70847702464878,-0.849330118717002,343.215531886756
738353.48293212009593844414,-6.90542313913388,-1.40324106570635,343.055513168737
738353.48293223243672400713,-7.01620532853175,-1.92022461622974,343.227841018911
738353.48293234477750957012,-7.00389619637644,-2.04331593778293,343.38785973693
738353.48293245711829513311,-7.00389619637644,-2.10486159855953,343.523260190639
738353.48293256945908069611,-7.00389619637644,-2.14178899502548,343.523260190639
738353.48293268179986625910,-7.00389619637644,-2.1540981271808,343.510951058484
738353.48293279414065182209,-6.99158706422112,-2.1540981271808,343.486332794173
738353.48293290648143738508,-7.00389619637644,-2.17871639149144,343.314004943999
738353.48293301882222294807,-6.9792779320658,-2.16640725933612,343.449405397707
738353.48293313127942383289,-6.96696879991048,-2.16640725933612,343.54787845495
738353.48293324362020939589,-6.96696879991048,-2.17871639149144,343.54787845495
738353.48293335596099495888,-6.95465966775516,-2.17871639149144,343.498641926328
738353.48293346830178052187,-6.95465966775516,-2.16640725933612,343.424787133396
738353.48293358064256608486,-6.94235053559984,-2.16640725933612,343.510951058484
738353.48293369298335164785,-6.93004140344452,-2.16640725933612,343.535569322794
738353.48293380532413721085,-6.93004140344452,-2.1540981271808,343.57249671926
738353.48293391766492277384,-6.93004140344452,-2.1540981271808,343.498641926328
738353.48293403000570833683,-6.93004140344452,-2.1540981271808,343.597114983571
738353.48293414234649389982,-6.90542313913388,-2.12947986287016,343.57249671926
738353.48293425468727946281,-6.9177322712892,-2.14178899502548,343.486332794173
738353.48293436702806502581,-6.90542313913388,-2.14178899502548,343.560187587105
738353.48293447936885058880,-6.88080487482325,-2.10486159855953,343.584805851416
738353.48293459170963615179,-6.84387747835729,-2.05562506993825,343.498641926328
738353.48293470405042171478,-6.80695008189133,-2.00638854131698,343.535569322794
738353.48293481639120727777,-6.81925921404665,-2.00638854131698,343.57249671926
738353.48293492873199284077,-6.80695008189133,-1.98177027700634,343.54787845495
738353.48293504118919372559,-6.77002268542538,-1.92022461622974,343.560187587105
738353.48293515352997928858,-6.74540442111474,-1.88329721976379,343.683278908658
738353.48293526587076485157,-6.7207861568041,-1.84636982329783,343.732515437279
738353.48293537821155041456,-6.70847702464878,-1.82175155898719,343.744824569435
738353.48293549055233597755,-6.69616789249346,-1.78482416252124,343.670969776503
738353.48293560289312154055,-6.67154962818283,-1.77251503036592,343.732515437279
738353.48293571523390710354,-6.65924049602751,-1.78482416252124,343.744824569435
738353.48293582757469266653,-6.68385876033815,-1.84636982329783,343.732515437279
738353.48293593991547822952,-6.69616789249346,-1.90791548407442,343.621733247881
738353.48293605225626379251,-6.7207861568041,-1.96946114485102,343.646351512192
738353.48293616459704935551,-6.74540442111474,-2.04331593778293,343.609424115726
738353.48293627693783491850,-6.77002268542538,-2.09255246640421,343.461714529862
738353.48293638927862048149,-6.79464094973601,-2.1540981271808,343.523260190639
738353.48293650161940604448,-6.80695008189133,-2.19102552364676,343.412478001241
738353.48293661396019160748,-6.7823318175807,-2.17871639149144,343.437096265552
738353.48293672630097717047,-6.79464094973601,-2.20333465580208,343.437096265552
738353.48293683875817805529,-6.81925921404665,-2.2156437879574,343.412478001241
738353.48293695109896361828,-6.83156834620197,-2.20333465580208,343.338623208309
738353.48293706343974918127,-6.79464094973601,-2.2156437879574,343.424787133396
738353.48293717578053474426,-6.79464094973601,-2.25257118442335,343.437096265552
738353.48293728812132030725,-6.81925921404665,-2.26488031657867,343.227841018911
738353.48293740046210587025,-6.77002268542538,-2.2156437879574,343.326314076154
738353.48293751280289143324,-6.7207861568041,-2.16640725933612,343.424787133396
738353.48293762514367699623,-6.7823318175807,-2.22795292011272,343.412478001241
738353.48293773748446255922,-6.79464094973601,-2.25257118442335,343.36324147262
738353.48293784982524812222,-6.7823318175807,-2.25257118442335,343.400168869086
738353.48293796216603368521,-6.77002268542538,-2.24026205226803,343.38785973693
738353.48293807450681924820,-6.77002268542538,-2.24026205226803,343.400168869086
738353.48293818684760481119,-6.77002268542538,-2.31411684519995,343.338623208309
738353.48293829918839037418,-6.75771355327006,-2.26488031657867,343.400168869086
738353.48293841152917593718,-6.70847702464878,-2.20333465580208,343.400168869086
738353.48293852386996150017,-6.7207861568041,-2.24026205226803,343.375550604775
738353.48293863632716238499,-6.73309528895942,-2.26488031657867,343.375550604775
738353.48293874866794794798,-6.73309528895942,-2.25257118442335,343.375550604775
738353.48293886100873351097,-6.7207861568041,-2.26488031657867,343.375550604775
738353.48293897334951907396,-6.67154962818283,-2.20333465580208,343.350932340465
738353.48293908569030463696,-6.7207861568041,-2.26488031657867,343.375550604775
738353.48293919803109019995,-6.73309528895942,-2.3510442416659,343.350932340465
738353.48293931037187576294,-6.7207861568041,-2.31411684519995,343.277077547533
738353.48293942271266132593,-6.70847702464878,-2.26488031657867,343.350932340465
738353.48293953505344688892,-6.70847702464878,-2.30180771304463,343.326314076154
738353.48293964739423245192,-6.74540442111474,-2.3510442416659,343.227841018911
738353.48293975973501801491,-6.70847702464878,-2.30180771304463,343.240150151067
738353.48293987207580357790,-6.69616789249346,-2.28949858088931,343.277077547533
738353.48293998441658914089,-6.77002268542538,-2.36335337382122,343.314004943999
738353.48294009675737470388,-6.74540442111474,-2.37566250597654,343.289386679688
738353.48294020909816026688,-6.70847702464878,-2.33873510951058,343.289386679688
738353.48294032143894582987,-6.73309528895942,-2.3510442416659,343.227841018911
738353.48294043389614671469,-6.74540442111474,-2.37566250597654,343.240150151067
738353.48294054623693227768,-6.73309528895942,-2.3510442416659,343.203222754601
738353.48294065857771784067,-6.75771355327006,-2.38797163813186,343.227841018911
738353.48294077091850340366,-6.75771355327006,-2.38797163813186,343.203222754601
738353.48294088325928896666,-6.74540442111474,-2.42489903459782,343.203222754601
738353.48294099560007452965,-6.75771355327006,-2.4125899024425,343.215531886756
738353.48294110794086009264,-6.73309528895942,-2.4125899024425,343.289386679688
738353.48294122028164565563,-6.75771355327006,-2.42489903459782,343.252459283222
738353.48294133262243121862,-6.73309528895942,-2.40028077028718,343.289386679688
738353.48294144496321678162,-6.74540442111474,-2.42489903459782,343.301695811843
738353.48294155730400234461,-6.75771355327006,-2.44951729890845,343.141677093824
738353.48294166964478790760,-6.75771355327006,-2.43720816675314,343.043204036582
738353.48294178198557347059,-6.81925921404665,-2.53568122399569,343.203222754601
738353.48294189432635903358,-6.79464094973601,-2.51106295968505,343.326314076154
738353.48294200666714459658,-6.79464094973601,-2.49875382752973,343.350932340465
738353.48294211900793015957,-6.79464094973601,-2.49875382752973,343.301695811843
738353.48294223146513104439,-6.79464094973601,-2.51106295968505,343.338623208309
738353.48294234380591660738,-6.80695008189133,-2.53568122399569,343.326314076154
738353.48294245614670217037,-6.79464094973601,-2.51106295968505,343.350932340465
738353.48294256848748773336,-6.81925921404665,-2.54799035615101,343.326314076154
738353.48294268082827329636,-6.79464094973601,-2.53568122399569,343.350932340465
738353.48294279316905885935,-6.77002268542538,-2.51106295968505,343.338623208309
738353.48294290550984442234,-6.80695008189133,-2.54799035615101,343.314004943999
738353.48294301785062998533,-6.79464094973601,-2.54799035615101,343.326314076154
738353.48294313019141554832,-6.81925921404665,-2.56029948830632,343.36324147262
738353.48294324253220111132,-6.84387747835729,-2.59722688477228,343.301695811843
738353.48294335487298667431,-6.80695008189133,-2.56029948830632,343.277077547533
738353.48294346721377223730,-6.80695008189133,-2.58491775261696,343.338623208309
738353.48294357955455780029,-6.81925921404665,-2.58491775261696,343.338623208309
738353.48294369189534336329,-6.81925921404665,-2.6095360169276,343.252459283222
738353.48294380423612892628,-6.80695008189133,-2.6095360169276,343.338623208309
738353.48294391657691448927,-6.79464094973601,-2.58491775261696,343.277077547533
738353.48294402903411537409,-6.80695008189133,-2.6095360169276,343.190913622445
738353.48294414137490093708,-6.7823318175807,-2.57260862046164,343.240150151067
738353.48294425371568650007,-6.79464094973601,-2.57260862046164,343.264768415377
738353.48294436605647206306,-6.80695008189133,-2.58491775261696,343.252459283222
738353.48294447839725762606,-6.81925921404665,-2.59722688477228,343.227841018911
738353.48294459073804318905,-6.85618661051261,-2.67108167770419,343.264768415377
738353.48294470307882875204,-6.88080487482325,-2.69569994201483,343.240150151067
738353.48294481541961431503,-6.85618661051261,-2.67108167770419,343.240150151067
738353.48294492776039987803,-6.83156834620197,-2.65877254554888,343.264768415377
738353.48294504010118544102,-6.85618661051261,-2.68339080985951,343.264768415377
738353.48294515244197100401,-6.85618661051261,-2.69569994201483,343.264768415377
738353.48294526478275656700,-6.85618661051261,-2.69569994201483,343.264768415377
738353.48294537712354212999,-6.84387747835729,-2.68339080985951,343.264768415377
738353.48294548946432769299,-6.83156834620197,-2.68339080985951,343.240150151067
738353.48294560180511325598,-6.83156834620197,-2.69569994201483,343.203222754601
738353.48294571414589881897,-6.85618661051261,-2.8064821314127,343.277077547533
738353.48294582648668438196,-6.84387747835729,-2.84340952787866,343.36324147262
738353.48294593894388526678,-6.70847702464878,-2.52337209184037,343.54787845495
738353.48294605128467082977,-6.48691264585304,-2.01869767347229,343.080131433047
738353.48294616362545639277,-6.17918434197007,-1.36631366924039,342.747784864854
738353.48294627596624195576,-6.44998524938709,-1.32938627277444,342.895494450718
738353.48294638830702751875,-6.65924049602751,-1.79713329467655,342.78471226132
738353.48294650064781308174,-6.75771355327006,-2.33873510951058,342.870876186407
738353.48294661298859864473,-6.77002268542538,-2.51106295968505,343.067822300892
738353.48294672532938420773,-6.74540442111474,-2.54799035615101,343.203222754601
738353.48294683767016977072,-6.73309528895942,-2.57260862046164,343.215531886756
738353.48294695001095533371,-6.75771355327006,-2.59722688477228,343.227841018911
738353.48294706235174089670,-6.7207861568041,-2.58491775261696,343.277077547533
738353.48294717469252645969,-6.68385876033815,-2.56029948830632,343.314004943999
738353.48294728703331202269,-6.73309528895942,-2.6095360169276,343.350932340465
738353.48294739937409758568,-6.7207861568041,-2.6095360169276,343.326314076154
738353.48294751171488314867,-6.7207861568041,-2.6095360169276,343.227841018911
738353.48294762405566871166,-6.73309528895942,-2.6095360169276,343.314004943999
738353.48294773651286959648,-6.69616789249346,-2.57260862046164,343.338623208309
738353.48294784885365515947,-6.67154962818283,-2.56029948830632,343.301695811843
738353.48294796119444072247,-6.67154962818283,-2.57260862046164,343.277077547533
738353.48294807353522628546,-6.67154962818283,-2.54799035615101,343.277077547533
738353.48294818587601184845,-6.65924049602751,-2.53568122399569,343.227841018911
738353.48294829821679741144,-6.62231309956155,-2.49875382752973,343.264768415377
738353.48294841055758297443,-6.64693136387219,-2.52337209184037,343.314004943999
738353.48294852289836853743,-6.57307657094027,-2.43720816675314,343.338623208309
738353.48294863523915410042,-6.67154962818283,-2.52337209184037,343.301695811843
738353.48294874757993966341,-6.61000396740623,-2.47413556321909,343.350932340465
738353.48294885992072522640,-6.57307657094027,-2.40028077028718,343.375550604775
738353.48294897226151078939,-6.57307657094027,-2.38797163813186,343.338623208309
738353.48294908460229635239,-6.54845830662964,-2.3510442416659,343.412478001241
738353.48294919694308191538,-6.53614917447432,-2.30180771304463,343.424787133396
738353.48294930928386747837,-6.523840042319,-2.27718944873399,343.461714529862
738353.48294942162465304136,-6.49922177800836,-2.22795292011272,343.449405397707
738353.48294953408185392618,-6.48691264585304,-2.19102552364676,343.498641926328
738353.48294964642263948917,-6.42536698507645,-2.09255246640421,343.498641926328
738353.48294975876342505217,-6.42536698507645,-2.08024333424889,343.449405397707
738353.48294987110421061516,-6.42536698507645,-2.09255246640421,343.449405397707
738353.48294998344499617815,-6.41305785292113,-2.06793420209357,343.437096265552
738353.48295009578578174114,-6.40074872076581,-2.06793420209357,343.424787133396
738353.48295020812656730413,-6.46229438154241,-2.17871639149144,343.350932340465
738353.48295032046735286713,-6.48691264585304,-2.25257118442335,343.227841018911
738353.48295043280813843012,-6.523840042319,-2.31411684519995,343.203222754601
738353.48295054514892399311,-6.53614917447432,-2.3510442416659,343.153986225979
738353.48295065748970955610,-6.54845830662964,-2.40028077028718,343.227841018911
738353.48295076983049511909,-6.56076743878496,-2.4125899024425,343.227841018911
738353.48295088217128068209,-6.58538570309559,-2.46182643106377,343.227841018911
738353.48295099451206624508,-6.54845830662964,-2.42489903459782,343.227841018911
738353.48295110685285180807,-6.57307657094027,-2.44951729890845,343.166295358135
738353.48295121919363737106,-6.57307657094027,-2.44951729890845,343.203222754601
738353.48295133165083825588,-6.56076743878496,-2.43720816675314,343.203222754601
738353.48295144399162381887,-6.57307657094027,-2.43720816675314,343.203222754601
738353.48295155633240938187,-6.56076743878496,-2.43720816675314,343.141677093824
738353.48295166867319494486,-6.56076743878496,-2.44951729890845,343.117058829513
738353.48295178101398050785,-6.56076743878496,-2.42489903459782,343.129367961669
738353.48295189335476607084,-6.56076743878496,-2.43720816675314,343.104749697358
738353.48295200569555163383,-6.523840042319,-2.40028077028718,343.129367961669
738353.48295211803633719683,-6.54845830662964,-2.43720816675314,343.190913622445
738353.48295223037712275982,-6.54845830662964,-2.44951729890845,343.080131433047
738353.48295234271790832281,-6.56076743878496,-2.43720816675314,343.166295358135
738353.48295245505869388580,-6.54845830662964,-2.43720816675314,343.190913622445
738353.48295256739947944880,-6.54845830662964,-2.43720816675314,343.129367961669
738353.48295267974026501179,-6.53614917447432,-2.42489903459782,343.055513168737
738353.48295279208105057478,-6.53614917447432,-2.42489903459782,343.17860449029
738353.48295290442183613777,-6.54845830662964,-2.43720816675314,343.17860449029
738353.48295301676262170076,-6.53614917447432,-2.42489903459782,343.17860449029
738353.48295312921982258558,-6.54845830662964,-2.43720816675314,343.166295358135
738353.48295324156060814857,-6.53614917447432,-2.42489903459782,343.17860449029
738353.48295335390139371157,-6.54845830662964,-2.44951729890845,343.17860449029
738353.48295346624217927456,-6.51153091016368,-2.4125899024425,343.153986225979
738353.48295357858296483755,-6.523840042319,-2.42489903459782,343.17860449029
738353.48295369092375040054,-6.56076743878496,-2.44951729890845,343.141677093824
738353.48295380326453596354,-6.523840042319,-2.42489903459782,343.141677093824
738353.48295391560532152653,-6.53614917447432,-2.43720816675314,343.141677093824
738353.48295402794610708952,-6.54845830662964,-2.44951729890845,343.153986225979
738353.48295414028689265251,-6.54845830662964,-2.44951729890845,343.141677093824
738353.48295425262767821550,-6.53614917447432,-2.43720816675314,343.092440565203
738353.48295436496846377850,-6.54845830662964,-2.44951729890845,343.117058829513
738353.48295447730924934149,-6.54845830662964,-2.43720816675314,343.153986225979
738353.48295458965003490448,-6.54845830662964,-2.43720816675314,343.141677093824
738353.48295470199082046747,-6.54845830662964,-2.44951729890845,343.080131433047
738353.48295481433160603046,-6.53614917447432,-2.43720816675314,343.018585772271
738353.48295492667239159346,-6.56076743878496,-2.44951729890845,343.030894904426
738353.48295503912959247828,-6.54845830662964,-2.44951729890845,343.141677093824
738353.48295515147037804127,-6.53614917447432,-2.43720816675314,343.104749697358
738353.48295526381116360426,-6.53614917447432,-2.42489903459782,343.153986225979
738353.48295537615194916725,-6.56076743878496,-2.43720816675314,343.141677093824
738353.48295548849273473024,-6.54845830662964,-2.44951729890845,343.067822300892
738353.48295560083352029324,-6.54845830662964,-2.44951729890845,343.055513168737
738353.48295571317430585623,-6.54845830662964,-2.46182643106377,343.129367961669
738353.48295582551509141922,-6.54845830662964,-2.43720816675314,343.141677093824
738353.48295593785587698221,-6.54845830662964,-2.44951729890845,343.067822300892
738353.48295605019666254520,-6.53614917447432,-2.42489903459782,343.129367961669
738353.48295616253744810820,-6.53614917447432,-2.43720816675314,343.129367961669
738353.48295627487823367119,-6.53614917447432,-2.42489903459782,343.141677093824
738353.48295638721901923418,-6.53614917447432,-2.42489903459782,343.067822300892
738353.48295649955980479717,-6.53614917447432,-2.43720816675314,343.141677093824
738353.48295661190059036016,-6.54845830662964,-2.43720816675314,343.129367961669
738353.48295672424137592316,-6.523840042319,-2.43720816675314,343.092440565203
738353.48295683669857680798,-6.53614917447432,-2.43720816675314,343.141677093824
738353.48295694903936237097,-6.53614917447432,-2.48644469537441,343.141677093824
738353.48295706138014793396,-6.53614917447432,-2.46182643106377,343.117058829513
738353.48295717372093349695,-6.51153091016368,-2.40028077028718,343.006276640116
738353.48295728606171905994,-6.49922177800836,-2.38797163813186,343.080131433047
738353.48295739840250462294,-6.51153091016368,-2.37566250597654,343.080131433047
738353.48295751074329018593,-6.51153091016368,-2.36335337382122,343.067822300892
738353.48295762308407574892,-6.47460351369772,-2.33873510951058,342.96934924365
738353.48295773542486131191,-6.46229438154241,-2.32642597735527,342.96934924365
738353.48295784776564687490,-6.47460351369772,-2.32642597735527,343.018585772271
738353.48295796010643243790,-6.46229438154241,-2.33873510951058,343.055513168737
738353.48295807244721800089,-6.46229438154241,-2.31411684519995,343.129367961669
738353.48295818478800356388,-6.48691264585304,-2.33873510951058,343.166295358135
738353.48295829712878912687,-6.523840042319,-2.42489903459782,343.117058829513
738353.48295840946957468987,-6.53614917447432,-2.46182643106377,343.092440565203
738353.48295852181036025286,-6.523840042319,-2.38797163813186,343.141677093824
738353.48295863426756113768,-6.523840042319,-2.3510442416659,343.141677093824
738353.48295874660834670067,-6.53614917447432,-2.36335337382122,343.067822300892
738353.48295885894913226366,-6.53614917447432,-2.37566250597654,343.117058829513
738353.48295897128991782665,-6.51153091016368,-2.36335337382122,343.141677093824
738353.48295908363070338964,-6.51153091016368,-2.33873510951058,343.141677093824
738353.48295919597148895264,-6.523840042319,-2.37566250597654,343.055513168737
738353.48295930831227451563,-6.523840042319,-2.32642597735527,343.043204036582
738353.48295942065306007862,-6.53614917447432,-2.46182643106377,343.153986225979
738353.48295953299384564161,-6.56076743878496,-2.52337209184037,343.227841018911
738353.48295964533463120461,-6.44998524938709,-2.2156437879574,343.523260190639
738353.48295975767541676760,-6.24073000274667,-1.78482416252124,343.166295358135
738353.48295987001620233059,-5.92069256670838,-1.02165796889147,342.858567054252
738353.48295998235698789358,-6.19149347412539,-0.960112308114872,343.018585772271
738353.48296009469777345657,-6.36382132429985,-1.44016846217231,342.772403129165
738353.48296020703855901957,-6.48691264585304,-1.9571520126957,342.78471226132
738353.48296031937934458256,-6.523840042319,-2.17871639149144,342.981658375805
738353.48296043183654546738,-6.49922177800836,-2.1540981271808,343.166295358135
738353.48296054417733103037,-6.49922177800836,-2.1540981271808,343.190913622445
738353.48296065651811659336,-6.51153091016368,-2.17871639149144,343.190913622445
738353.48296076885890215635,-6.49922177800836,-2.16640725933612,343.190913622445
738353.48296088119968771935,-6.49922177800836,-2.16640725933612,343.092440565203
738353.48296099354047328234,-6.49922177800836,-2.17871639149144,343.190913622445
738353.48296110588125884533,-6.48691264585304,-2.11717073071485,343.117058829513
738353.48296121822204440832,-6.48691264585304,-2.10486159855953,343.153986225979
738353.48296133056282997131,-6.48691264585304,-2.11717073071485,343.153986225979
738353.48296144290361553431,-6.48691264585304,-2.08024333424889,343.141677093824
738353.48296155524440109730,-6.46229438154241,-2.01869767347229,343.141677093824
738353.48296166758518666029,-6.46229438154241,-2.01869767347229,343.104749697358
738353.48296177992597222328,-6.44998524938709,-2.01869767347229,343.104749697358
738353.48296189226675778627,-6.46229438154241,-2.03100680562761,343.117058829513
738353.48296200460754334927,-6.44998524938709,-1.99407940916166,343.215531886756
738353.48296211694832891226,-6.44998524938709,-1.99407940916166,343.190913622445
738353.48296222940552979708,-6.44998524938709,-1.98177027700634,343.227841018911
738353.48296234174631536007,-6.43767611723177,-1.93253374838506,343.264768415377
738353.48296245408710092306,-6.43767611723177,-1.92022461622974,343.240150151067
738353.48296256642788648605,-6.42536698507645,-1.87098808760847,343.289386679688
738353.48296267876867204905,-6.40074872076581,-1.84636982329783,343.314004943999
738353.48296279110945761204,-6.38843958861049,-1.82175155898719,343.314004943999
738353.48296290345024317503,-6.36382132429985,-1.79713329467655,343.36324147262
738353.48296301579102873802,-6.35151219214454,-1.74789676605528,343.375550604775
738353.48296312813181430101,-6.33920305998922,-1.698660237434,343.400168869086
738353.48296324047259986401,-6.31458479567858,-1.64942370881273,343.314004943999
738353.48296335281338542700,-6.3268939278339,-1.64942370881273,343.350932340465
738353.48296346515417098999,-6.30227566352326,-1.5632597837255,343.474023662018
738353.48296357749495655298,-6.31458479567858,-1.63711457665741,343.375550604775
738353.48296368983574211597,-6.31458479567858,-1.58787804803613,343.252459283222
738353.48296380217652767897,-6.3268939278339,-1.66173284096805,343.227841018911
738353.48296391451731324196,-6.36382132429985,-1.7602058982106,343.350932340465
738353.48296402685809880495,-6.38843958861049,-1.78482416252124,343.289386679688
738353.48296413931529968977,-6.42536698507645,-1.88329721976379,343.203222754601
738353.48296425165608525276,-6.43767611723177,-1.94484288054038,343.190913622445
738353.48296436399687081575,-6.46229438154241,-2.00638854131698,343.17860449029
738353.48296447633765637875,-6.47460351369772,-2.04331593778293,343.17860449029
738353.48296458867844194174,-6.49922177800836,-2.00638854131698,343.018585772271
738353.48296470101922750473,-6.48691264585304,-2.06793420209357,343.141677093824
738353.48296481336001306772,-6.49922177800836,-2.05562506993825,343.166295358135
738353.48296492570079863071,-6.51153091016368,-2.09255246640421,343.117058829513
738353.48296503804158419371,-6.523840042319,-2.10486159855953,343.129367961669
738353.48296515038236975670,-6.523840042319,-2.12947986287016,343.166295358135
738353.48296526272315531969,-6.51153091016368,-2.1540981271808,343.166295358135
738353.48296537506394088268,-6.51153091016368,-2.11717073071485,343.080131433047
738353.48296548740472644567,-6.48691264585304,-2.11717073071485,343.141677093824
738353.48296559974551200867,-6.49922177800836,-2.09255246640421,343.153986225979
738353.48296571208629757166,-6.49922177800836,-2.10486159855953,343.129367961669
738353.48296582442708313465,-6.51153091016368,-2.12947986287016,343.067822300892
738353.48296593688428401947,-6.51153091016368,-2.1540981271808,343.117058829513
738353.48296604922506958246,-6.49922177800836,-2.09255246640421,343.141677093824
738353.48296616156585514545,-6.51153091016368,-2.09255246640421,343.129367961669
738353.48296627390664070845,-6.49922177800836,-2.11717073071485,343.080131433047
738353.48296638624742627144,-6.49922177800836,-2.14178899502548,343.141677093824
738353.48296649858821183443,-6.49922177800836,-2.10486159855953,343.141677093824
738353.48296661092899739742,-6.51153091016368,-2.25257118442335,343.104749697358
738353.48296672326978296041,-6.523840042319,-2.17871639149144,343.018585772271
738353.48296683561056852341,-6.48691264585304,-2.11717073071485,343.067822300892
738353.48296694795135408640,-6.51153091016368,-2.16640725933612,343.092440565203
738353.48296706029213964939,-6.49922177800836,-2.09255246640421,343.104749697358
738353.48296717263292521238,-6.523840042319,-2.11717073071485,343.067822300892
738353.48296728497371077538,-6.51153091016368,-2.14178899502548,343.067822300892
738353.48296739731449633837,-6.53614917447432,-2.16640725933612,342.99396750796
738353.48296750965528190136,-6.48691264585304,-2.19102552364676,343.043204036582
738353.48296762199606746435,-6.51153091016368,-2.1540981271808,343.043204036582
738353.48296773445326834917,-6.523840042319,-2.19102552364676,343.080131433047
738353.48296784679405391216,-6.53614917447432,-2.20333465580208,343.030894904426
738353.48296795913483947515,-6.523840042319,-2.2156437879574,343.067822300892
738353.48296807147562503815,-6.523840042319,-2.20333465580208,342.957040111494
738353.48296818381641060114,-6.54845830662964,-2.16640725933612,343.055513168737
738353.48296829615719616413,-6.523840042319,-2.17871639149144,343.055513168737
738353.48296840849798172712,-6.53614917447432,-2.24026205226803,343.104749697358
738353.48296852083876729012,-6.56076743878496,-2.2156437879574,343.092440565203
738353.48296863317955285311,-6.58538570309559,-2.2156437879574,343.018585772271
738353.48296874552033841610,-6.523840042319,-2.28949858088931,343.092440565203
738353.48296885786112397909,-6.56076743878496,-2.22795292011272,343.092440565203
738353.48296897020190954208,-6.58538570309559,-2.22795292011272,343.080131433047
738353.48296908254269510508,-6.53614917447432,-2.22795292011272,343.080131433047
738353.48296919488348066807,-6.54845830662964,-2.26488031657867,343.104749697358
738353.48296930722426623106,-6.53614917447432,-2.30180771304463,343.092440565203
738353.48296941956505179405,-6.53614917447432,-2.25257118442335,343.043204036582
738353.48296953202225267887,-6.57307657094027,-2.25257118442335,343.067822300892
738353.48296964436303824186,-6.53614917447432,-2.27718944873399,343.080131433047
738353.48296975670382380486,-6.523840042319,-2.30180771304463,343.080131433047
738353.48296986904460936785,-6.51153091016368,-2.27718944873399,343.080131433047
738353.48296998138539493084,-6.59769483525091,-2.24026205226803,343.018585772271
738353.48297009372618049383,-6.49922177800836,-2.27718944873399,342.957040111494
738353.48297020606696605682,-6.51153091016368,-2.28949858088931,343.030894904426
738353.48297031840775161982,-6.48691264585304,-2.26488031657867,343.055513168737
738353.48297043074853718281,-6.51153091016368,-2.26488031657867,343.055513168737
738353.48297054308932274580,-6.53614917447432,-2.27718944873399,343.030894904426
738353.48297065543010830879,-6.56076743878496,-2.33873510951058,343.043204036582
738353.48297076777089387178,-6.57307657094027,-2.37566250597654,343.030894904426
738353.48297088011167943478,-6.58538570309559,-2.37566250597654,343.055513168737
738353.48297099245246499777,-6.58538570309559,-2.33873510951058,342.957040111494
738353.48297110479325056076,-6.59769483525091,-2.3510442416659,342.96934924365
738353.48297121713403612375,-6.57307657094027,-2.36335337382122,342.981658375805
738353.48297132959123700857,-6.57307657094027,-2.38797163813186,342.944730979339
738353.48297144193202257156,-6.56076743878496,-2.38797163813186,343.018585772271
738353.48297155427280813456,-6.63462223171687,-2.4125899024425,343.080131433047
738353.48297166661359369755,-6.58538570309559,-2.47413556321909,343.043204036582
738353.48297177895437926054,-6.67154962818283,-2.6095360169276,342.96934924365
738353.48297189129516482353,-6.62231309956155,-2.52337209184037,343.215531886756
738353.48297200363595038652,-6.46229438154241,-2.14178899502548,343.424787133396
738353.48297211597673594952,-6.16687520981475,-1.62480544450209,343.252459283222
738353.48297222831752151251,-5.99454735964029,-1.3047680084638,342.710857468388
738353.48297234065830707550,-6.11763868119348,-0.960112308114872,342.637002675456
738353.48297245299909263849,-6.42536698507645,-1.35400453708508,342.476983957437
738353.48297256533987820148,-6.47460351369772,-2.01869767347229,342.587766146835
738353.48297267768066376448,-6.58538570309559,-2.31411684519995,342.883185318562
738353.48297279002144932747,-6.56076743878496,-2.40028077028718,343.055513168737
738353.48297290236223489046,-6.54845830662964,-2.3510442416659,343.055513168737
738353.48297301470302045345,-6.57307657094027,-2.38797163813186,342.981658375805
738353.48297312704380601645,-6.56076743878496,-2.44951729890845,343.055513168737
738353.48297323950100690126,-6.56076743878496,-2.47413556321909,343.092440565203
738353.48297335184179246426,-6.58538570309559,-2.43720816675314,343.129367961669
738353.48297346418257802725,-6.62231309956155,-2.70800907417015,342.96934924365
738353.48297357652336359024,-6.63462223171687,-2.72031820632547,342.895494450718
738353.48297368886414915323,-6.63462223171687,-2.69569994201483,342.981658375805
738353.48297380120493471622,-6.62231309956155,-2.69569994201483,343.006276640116
738353.48297391354572027922,-6.62231309956155,-2.69569994201483,343.006276640116
738353.48297402588650584221,-6.63462223171687,-2.72031820632547,342.920112715028
738353.48297413822729140520,-6.62231309956155,-2.72031820632547,342.99396750796
738353.48297425056807696819,-6.61000396740623,-2.74493647063611,343.006276640116
738353.48297436290886253119,-6.61000396740623,-2.72031820632547,343.006276640116
738353.48297447524964809418,-6.59769483525091,-2.72031820632547,342.944730979339
738353.48297458759043365717,-6.59769483525091,-2.73262733848079,342.99396750796
738353.48297469993121922016,-6.57307657094027,-2.65877254554888,342.96934924365
738353.48297481227200478315,-6.57307657094027,-2.65877254554888,342.735475732699
738353.48297492461279034615,-6.58538570309559,-2.65877254554888,342.883185318562
738353.48297503706999123096,-6.57307657094027,-2.64646341339356,342.99396750796
738353.48297514941077679396,-6.59769483525091,-2.64646341339356,342.981658375805
738353.48297526175156235695,-6.62231309956155,-2.73262733848079,342.944730979339
738353.48297537409234791994,-6.65924049602751,-2.75724560279143,342.981658375805
738353.48297548643313348293,-6.65924049602751,-2.73262733848079,342.981658375805
738353.48297559877391904593,-6.65924049602751,-2.74493647063611,342.96934924365
738353.48297571111470460892,-6.65924049602751,-2.74493647063611,342.895494450718
738353.48297582345549017191,-6.63462223171687,-2.70800907417015,342.99396750796
738353.48297593579627573490,-6.63462223171687,-2.74493647063611,343.006276640116
738353.48297604813706129789,-6.63462223171687,-2.70800907417015,342.944730979339
738353.48297616047784686089,-6.64693136387219,-2.75724560279143,342.957040111494
738353.48297627281863242388,-6.64693136387219,-2.74493647063611,343.006276640116
738353.48297638515941798687,-6.65924049602751,-2.85571866003398,343.018585772271
738353.48297649750020354986,-6.65924049602751,-2.94188258512121,343.080131433047
738353.48297660984098911285,-6.54845830662964,-2.63415428123824,343.301695811843
738353.48297672218177467585,-6.35151219214454,-2.22795292011272,343.055513168737
738353.48297683463897556067,-6.00685649179561,-1.53864151941486,342.747784864854
738353.48297694697976112366,-6.14225694550411,-1.26784061199784,342.772403129165
738353.48297705932054668665,-6.44998524938709,-1.68635110527868,342.723166600543
738353.48297717166133224964,-6.57307657094027,-2.37566250597654,342.686239204077
738353.48297728400211781263,-6.62231309956155,-2.52337209184037,342.833948789941
738353.48297739634290337563,-6.58538570309559,-2.63415428123824,342.932421847184
738353.48297750868368893862,-6.61000396740623,-2.64646341339356,342.944730979339
738353.48297762102447450161,-6.59769483525091,-2.69569994201483,342.957040111494
738353.48297773336526006460,-6.61000396740623,-2.69569994201483,342.957040111494
738353.48297784570604562759,-6.62231309956155,-2.73262733848079,342.96934924365
738353.48297795804683119059,-6.59769483525091,-2.73262733848079,343.043204036582
738353.48297807038761675358,-6.61000396740623,-2.73262733848079,343.055513168737
738353.48297818272840231657,-6.59769483525091,-2.72031820632547,343.006276640116
738353.48297829506918787956,-6.58538570309559,-2.73262733848079,343.030894904426
738353.48297840740997344255,-6.59769483525091,-2.73262733848079,343.055513168737
738353.48297851975075900555,-6.58538570309559,-2.67108167770419,343.067822300892
738353.48297863220795989037,-6.58538570309559,-2.70800907417015,342.96934924365
738353.48297874454874545336,-6.58538570309559,-2.70800907417015,342.96934924365
738353.48297885688953101635,-6.56076743878496,-2.69569994201483,343.055513168737
738353.48297896923031657934,-6.57307657094027,-2.69569994201483,343.080131433047
738353.48297908157110214233,-6.54845830662964,-2.65877254554888,343.092440565203
738353.48297919391188770533,-6.56076743878496,-2.67108167770419,342.932421847184
738353.48297930625267326832,-6.53614917447432,-2.62184514908292,342.99396750796
738353.48297941859345883131,-6.54845830662964,-2.6095360169276,343.141677093824
738353.48297953093424439430,-6.523840042319,-2.59722688477228,343.166295358135
738353.48297964327502995729,-6.523840042319,-2.54799035615101,343.129367961669
738353.48297975561581552029,-6.523840042319,-2.51106295968505,343.227841018911
738353.48297986795660108328,-6.47460351369772,-2.46182643106377,343.240150151067
738353.48297998029738664627,-6.44998524938709,-2.4125899024425,343.252459283222
738353.48298009263817220926,-6.42536698507645,-2.4125899024425,343.240150151067
738353.48298020497895777225,-6.41305785292113,-2.37566250597654,343.240150151067
738353.48298031731974333525,-6.38843958861049,-2.27718944873399,343.277077547533
738353.48298042977694422007,-6.38843958861049,-2.25257118442335,343.289386679688
738353.48298054211772978306,-6.37613045645517,-2.24026205226803,343.289386679688
738353.48298065445851534605,-6.38843958861049,-2.30180771304463,343.252459283222
738353.48298076679930090904,-6.42536698507645,-2.31411684519995,343.240150151067
738353.48298087914008647203,-6.46229438154241,-2.42489903459782,343.203222754601
738353.48298099148087203503,-6.47460351369772,-2.48644469537441,343.104749697358
738353.48298110382165759802,-6.51153091016368,-2.54799035615101,343.117058829513
738353.48298121616244316101,-6.53614917447432,-2.6095360169276,343.092440565203
738353.48298132850322872400,-6.56076743878496,-2.65877254554888,343.018585772271
738353.48298144084401428699,-6.57307657094027,-2.68339080985951,343.030894904426
738353.48298155318479984999,-6.57307657094027,-2.69569994201483,343.043204036582
738353.48298166552558541298,-6.57307657094027,-2.74493647063611,342.96934924365
738353.48298177786637097597,-6.57307657094027,-2.67108167770419,342.981658375805
738353.48298189020715653896,-6.58538570309559,-2.69569994201483,343.018585772271
738353.48298200254794210196,-6.58538570309559,-2.69569994201483,343.030894904426
738353.48298211488872766495,-6.58538570309559,-2.69569994201483,342.981658375805
738353.48298222722951322794,-6.58538570309559,-2.70800907417015,343.030894904426
738353.48298233968671411276,-6.56076743878496,-2.67108167770419,343.030894904426
738353.48298245202749967575,-6.54845830662964,-2.69569994201483,343.030894904426
738353.48298256436828523874,-6.59769483525091,-2.70800907417015,342.957040111494
738353.48298267670907080173,-6.59769483525091,-2.70800907417015,343.030894904426
738353.48298278904985636473,-6.58538570309559,-2.73262733848079,343.030894904426
738353.48298290139064192772,-6.58538570309559,-2.74493647063611,342.981658375805
738353.48298301373142749071,-6.61000396740623,-2.73262733848079,342.944730979339
738353.48298312607221305370,-6.58538570309559,-2.70800907417015,342.99396750796
738353.48298323841299861670,-6.59769483525091,-2.75724560279143,342.944730979339
738353.48298335075378417969,-6.57307657094027,-2.72031820632547,342.907803582873
738353.48298346309456974268,-6.58538570309559,-2.72031820632547,342.920112715028
738353.48298357543535530567,-6.59769483525091,-2.76955473494675,342.833948789941
738353.48298368777614086866,-6.59769483525091,-2.74493647063611,342.846257922096
738353.48298380011692643166,-6.59769483525091,-2.74493647063611,342.932421847184
738353.48298391245771199465,-6.58538570309559,-2.73262733848079,342.99396750796
738353.48298402479849755764,-6.62231309956155,-2.74493647063611,342.99396750796
738353.48298413725569844246,-6.61000396740623,-2.73262733848079,342.99396750796
738353.48298424959648400545,-6.63462223171687,-2.72031820632547,343.006276640116
738353.48298436193726956844,-6.59769483525091,-2.72031820632547,343.018585772271
738353.48298447427805513144,-6.63462223171687,-2.76955473494675,343.006276640116
738353.48298458661884069443,-6.61000396740623,-2.72031820632547,342.944730979339
738353.48298469895962625742,-6.58538570309559,-2.69569994201483,342.99396750796
738353.48298481130041182041,-6.57307657094027,-2.73262733848079,343.006276640116
738353.48298492364119738340,-6.59769483525091,-2.72031820632547,343.006276640116
738353.48298503598198294640,-6.62231309956155,-2.70800907417015,342.920112715028
738353.48298514832276850939,-6.59769483525091,-2.74493647063611,342.981658375805
738353.48298526066355407238,-6.64693136387219,-2.73262733848079,343.006276640116
738353.48298537300433963537,-6.61000396740623,-2.72031820632547,343.018585772271
738353.48298548534512519836,-6.64693136387219,-2.74493647063611,342.981658375805
738353.48298559768591076136,-6.59769483525091,-2.76955473494675,343.006276640116
738353.48298571002669632435,-6.58538570309559,-2.70800907417015,343.018585772271
738353.48298582236748188734,-6.58538570309559,-2.72031820632547,342.96934924365
738353.48298593482468277216,-6.59769483525091,-2.74493647063611,342.920112715028
738353.48298604716546833515,-6.54845830662964,-2.69569994201483,343.006276640116
738353.48298615950625389814,-6.57307657094027,-2.72031820632547,342.981658375805
738353.48298627184703946114,-6.56076743878496,-2.69569994201483,342.981658375805
738353.48298638418782502413,-6.54845830662964,-2.65877254554888,342.932421847184
738353.48298649652861058712,-6.56076743878496,-2.67108167770419,342.99396750796
738353.48298660886939615011,-6.58538570309559,-2.72031820632547,342.99396750796
738353.48298672121018171310,-6.61000396740623,-2.73262733848079,342.981658375805
738353.48298683355096727610,-6.62231309956155,-2.75724560279143,342.78471226132
738353.48298694589175283909,-6.61000396740623,-2.78186386710206,342.772403129165
738353.48298705823253840208,-6.63462223171687,-2.78186386710206,342.99396750796
738353.48298717057332396507,-6.62231309956155,-2.74493647063611,342.99396750796
738353.48298728291410952806,-6.64693136387219,-2.75724560279143,343.006276640116
738353.48298739525489509106,-6.59769483525091,-2.79417299925738,342.99396750796
738353.48298750759568065405,-6.62231309956155,-2.76955473494675,342.944730979339
738353.48298761993646621704,-6.65924049602751,-2.76955473494675,342.932421847184
738353.48298773239366710186,-6.59769483525091,-2.79417299925738,342.944730979339
738353.48298784473445266485,-6.62231309956155,-2.89264605649993,342.920112715028
738353.48298795707523822784,-6.63462223171687,-2.92957345296589,342.932421847184
738353.48298806941602379084,-6.54845830662964,-2.64646341339356,343.203222754601
738353.48298818175680935383,-6.30227566352326,-2.05562506993825,343.043204036582
738353.48298829409759491682,-6.03147475610625,-1.35400453708508,342.78471226132
738353.48298840643838047981,-6.2653482670573,-1.37862280139571,342.870876186407
738353.48298851877916604280,-6.46229438154241,-1.9571520126957,342.637002675456
738353.48298863111995160580,-6.62231309956155,-2.54799035615101,342.60007527899
738353.48298874346073716879,-6.63462223171687,-2.69569994201483,342.870876186407
738353.48298885580152273178,-6.59769483525091,-2.70800907417015,343.030894904426
738353.48298896814230829477,-6.59769483525091,-2.70800907417015,342.895494450718
738353.48298908048309385777,-6.61000396740623,-2.75724560279143,343.030894904426
738353.48298919282387942076,-6.58538570309559,-2.72031820632547,343.055513168737
738353.48298930516466498375,-6.59769483525091,-2.75724560279143,343.067822300892
738353.48298941750545054674,-6.62231309956155,-2.75724560279143,342.846257922096
738353.48298952996265143156,-6.61000396740623,-2.76955473494675,343.055513168737
738353.48298964230343699455,-6.58538570309559,-2.73262733848079,343.104749697358
738353.48298975464422255754,-6.58538570309559,-2.78186386710206,343.104749697358
738353.48298986698500812054,-6.58538570309559,-2.73262733848079,343.055513168737
738353.48298997932579368353,-6.58538570309559,-2.73262733848079,343.117058829513
738353.48299009166657924652,-6.61000396740623,-2.74493647063611,343.117058829513
738353.48299020400736480951,-6.61000396740623,-2.74493647063611,342.80933052563
738353.48299031634815037251,-6.56076743878496,-2.65877254554888,343.117058829513
738353.48299042868893593550,-6.54845830662964,-2.70800907417015,343.153986225979
738353.48299054102972149849,-6.57307657094027,-2.64646341339356,343.117058829513
738353.48299065337050706148,-6.57307657094027,-2.65877254554888,343.166295358135
738353.48299076571129262447,-6.56076743878496,-2.6095360169276,343.190913622445
738353.48299087805207818747,-6.53614917447432,-2.58491775261696,343.17860449029
738353.48299099039286375046,-6.523840042319,-2.56029948830632,343.215531886756
738353.48299110273364931345,-6.49922177800836,-2.51106295968505,343.264768415377
738353.48299121507443487644,-6.49922177800836,-2.48644469537441,343.289386679688
738353.48299132753163576126,-6.48691264585304,-2.43720816675314,343.326314076154
738353.48299143987242132425,-6.44998524938709,-2.37566250597654,343.36324147262
738353.48299155221320688725,-6.46229438154241,-2.38797163813186,343.375550604775
738353.48299166455399245024,-6.43767611723177,-2.27718944873399,343.326314076154
738353.48299177689477801323,-6.44998524938709,-2.26488031657867,343.375550604775
738353.48299188923556357622,-6.43767611723177,-2.24026205226803,343.400168869086
738353.48299200157634913921,-6.43767611723177,-2.25257118442335,343.375550604775
738353.48299211391713470221,-6.44998524938709,-2.30180771304463,343.264768415377
738353.48299222625792026520,-6.49922177800836,-2.36335337382122,343.314004943999
738353.48299233859870582819,-6.54845830662964,-2.47413556321909,343.153986225979
738353.48299245093949139118,-6.59769483525091,-2.57260862046164,343.043204036582
738353.48299256328027695417,-6.62231309956155,-2.62184514908292,343.190913622445
738353.48299267562106251717,-6.64693136387219,-2.67108167770419,343.166295358135
738353.48299278796184808016,-6.65924049602751,-2.69569994201483,343.141677093824
738353.48299290030263364315,-6.67154962818283,-2.74493647063611,343.129367961669
738353.48299301264341920614,-6.68385876033815,-2.76955473494675,343.129367961669
738353.48299312498420476913,-6.69616789249346,-2.75724560279143,343.141677093824
738353.48299323744140565395,-6.69616789249346,-2.81879126356802,343.030894904426
738353.48299334978219121695,-6.7207861568041,-2.76955473494675,343.117058829513
738353.48299346212297677994,-6.73309528895942,-2.75724560279143,343.117058829513
738353.48299357446376234293,-6.73309528895942,-2.75724560279143,343.043204036582
738353.48299368680454790592,-6.70847702464878,-2.73262733848079,343.080131433047
738353.48299379914533346891,-6.73309528895942,-2.74493647063611,343.117058829513
738353.48299391148611903191,-6.70847702464878,-2.74493647063611,343.104749697358
738353.48299402382690459490,-6.75771355327006,-2.76955473494675,343.117058829513
738353.48299413616769015789,-6.69616789249346,-2.73262733848079,343.104749697358
738353.48299424850847572088,-6.7207861568041,-2.76955473494675,343.141677093824
738353.48299436084926128387,-6.7207861568041,-2.75724560279143,343.067822300892
738353.48299447319004684687,-6.74540442111474,-2.78186386710206,343.030894904426
738353.48299458553083240986,-6.74540442111474,-2.73262733848079,343.067822300892
738353.48299469787161797285,-6.73309528895942,-2.75724560279143,343.080131433047
738353.48299481021240353584,-6.74540442111474,-2.76955473494675,343.018585772271
738353.48299492255318909883,-6.74540442111474,-2.75724560279143,343.129367961669
738353.48299503501038998365,-6.75771355327006,-2.75724560279143,343.141677093824
738353.48299514735117554665,-6.75771355327006,-2.75724560279143,342.932421847184
738353.48299525969196110964,-6.77002268542538,-2.78186386710206,343.080131433047
738353.48299537203274667263,-6.77002268542538,-2.76955473494675,343.153986225979
738353.48299548437353223562,-6.77002268542538,-2.72031820632547,343.141677093824
738353.48299559671431779861,-6.75771355327006,-2.75724560279143,343.030894904426
738353.48299570905510336161,-6.79464094973601,-2.74493647063611,343.153986225979
738353.48299582139588892460,-6.7823318175807,-2.75724560279143,343.129367961669
738353.48299593373667448759,-6.81925921404665,-2.78186386710206,342.858567054252
738353.48299604607746005058,-6.7823318175807,-2.75724560279143,342.858567054252
738353.48299615841824561357,-6.79464094973601,-2.74493647063611,343.030894904426
738353.48299627075903117657,-6.79464094973601,-2.78186386710206,343.141677093824
738353.48299638309981673956,-6.80695008189133,-2.79417299925738,343.153986225979
738353.48299649544060230255,-6.79464094973601,-2.73262733848079,343.104749697358
738353.48299660778138786554,-6.80695008189133,-2.75724560279143,342.920112715028
738353.48299672012217342854,-6.81925921404665,-2.76955473494675,343.092440565203
738353.48299683257937431335,-6.80695008189133,-2.78186386710206,343.006276640116
738353.48299694492015987635,-6.84387747835729,-2.78186386710206,343.018585772271
738353.48299705726094543934,-6.83156834620197,-2.75724560279143,343.203222754601
738353.48299716960173100233,-6.84387747835729,-2.76955473494675,343.166295358135
738353.48299728194251656532,-6.84387747835729,-2.8064821314127,343.117058829513
738353.48299739428330212831,-6.83156834620197,-2.75724560279143,343.153986225979
738353.48299750662408769131,-6.83156834620197,-2.79417299925738,343.17860449029
738353.48299761896487325430,-6.84387747835729,-2.74493647063611,343.141677093824
738353.48299773130565881729,-6.84387747835729,-2.75724560279143,343.092440565203
738353.48299784364644438028,-6.84387747835729,-2.76955473494675,343.166295358135
738353.48299795598722994328,-6.86849574266793,-2.76955473494675,343.153986225979
738353.48299806832801550627,-6.84387747835729,-2.74493647063611,343.055513168737
738353.48299818066880106926,-6.83156834620197,-2.75724560279143,343.153986225979
738353.48299829300958663225,-6.83156834620197,-2.74493647063611,343.17860449029
738353.48299840535037219524,-6.84387747835729,-2.75724560279143,343.129367961669
738353.48299851769115775824,-6.83156834620197,-2.70800907417015,343.166295358135
738353.48299863014835864305,-6.85618661051261,-2.68339080985951,343.203222754601
738353.48299874248914420605,-6.90542313913388,-2.75724560279143,343.129367961669
738353.48299885482992976904,-6.89311400697857,-2.75724560279143,343.166295358135
738353.48299896717071533203,-6.89311400697857,-2.8064821314127,343.166295358135
738353.48299907951150089502,-6.9177322712892,-2.79417299925738,343.153986225979
738353.48299919185228645802,-6.93004140344452,-2.79417299925738,343.080131433047
738353.48299930419307202101,-6.90542313913388,-2.75724560279143,343.17860449029
738353.48299941653385758400,-6.94235053559984,-2.76955473494675,343.203222754601
738353.48299952887464314699,-6.95465966775516,-2.84340952787866,343.166295358135
738353.48299964121542870998,-6.9177322712892,-2.76955473494675,343.190913622445
738353.48299975355621427298,-6.90542313913388,-2.8064821314127,343.203222754601
738353.48299986589699983597,-6.96696879991048,-2.94188258512121,343.190913622445
738353.48299997823778539896,-6.96696879991048,-2.96650084943185,343.326314076154
738353.48300009057857096195,-6.84387747835729,-2.6095360169276,343.597114983571
738353.48300020291935652494,-6.57307657094027,-2.10486159855953,343.264768415377
738353.48300031526014208794,-6.2653482670573,-1.44016846217231,342.907803582873
738353.48300042771734297276,-6.53614917447432,-1.40324106570635,343.006276640116
738353.48300054005812853575,-6.74540442111474,-1.98177027700634,342.821639657786
738353.48300065239891409874,-6.9177322712892,-2.59722688477228,342.772403129165
738353.48300076473969966173,-6.95465966775516,-2.68339080985951,342.957040111494
738353.48300087708048522472,-6.93004140344452,-2.72031820632547,343.141677093824
738353.48300098942127078772,-6.90542313913388,-2.72031820632547,343.215531886756
738353.48300110176205635071,-6.90542313913388,-2.73262733848079,343.092440565203
738353.48300121410284191370,-6.90542313913388,-2.76955473494675,343.104749697358
738353.48300132644362747669,-6.9177322712892,-2.74493647063611,343.240150151067
738353.48300143878441303968,-6.9177322712892,-2.73262733848079,343.252459283222
738353.48300155112519860268,-6.93004140344452,-2.76955473494675,343.252459283222
738353.48300166346598416567,-6.9177322712892,-2.72031820632547,343.252459283222
738353.48300177580676972866,-6.90542313913388,-2.72031820632547,343.240150151067
738353.48300188814755529165,-6.89311400697857,-2.74493647063611,343.141677093824
738353.48300200048834085464,-6.89311400697857,-2.74493647063611,343.289386679688
738353.48300211282912641764,-6.90542313913388,-2.75724560279143,343.289386679688
738353.48300222516991198063,-6.85618661051261,-2.68339080985951,343.277077547533
738353.48300233762711286545,-6.89311400697857,-2.70800907417015,343.190913622445
738353.48300244996789842844,-6.89311400697857,-2.70800907417015,343.252459283222
738353.48300256230868399143,-6.89311400697857,-2.73262733848079,343.326314076154
738353.48300267464946955442,-6.86849574266793,-2.64646341339356,343.314004943999
738353.48300278699025511742,-6.88080487482325,-2.68339080985951,343.227841018911
738353.48300289933104068041,-6.86849574266793,-2.65877254554888,343.314004943999
738353.48300301167182624340,-6.84387747835729,-2.6095360169276,343.350932340465
738353.48300312401261180639,-6.83156834620197,-2.56029948830632,343.38785973693
738353.48300323635339736938,-6.80695008189133,-2.53568122399569,343.412478001241
738353.48300334869418293238,-6.80695008189133,-2.49875382752973,343.412478001241
738353.48300346103496849537,-6.7823318175807,-2.42489903459782,343.461714529862
738353.48300357337575405836,-6.75771355327006,-2.38797163813186,343.486332794173
738353.48300368571653962135,-6.73309528895942,-2.33873510951058,343.486332794173
738353.48300379805732518435,-6.69616789249346,-2.30180771304463,343.510951058484
738353.48300391039811074734,-6.68385876033815,-2.26488031657867,343.510951058484
738353.48300402273889631033,-6.68385876033815,-2.24026205226803,343.400168869086
738353.48300413519609719515,-6.70847702464878,-2.27718944873399,343.326314076154
738353.48300424753688275814,-6.73309528895942,-2.36335337382122,343.36324147262
738353.48300435987766832113,-6.7823318175807,-2.46182643106377,343.326314076154
738353.48300447221845388412,-6.81925921404665,-2.54799035615101,343.203222754601
738353.48300458455923944712,-6.85618661051261,-2.62184514908292,343.240150151067
738353.48300469690002501011,-6.88080487482325,-2.68339080985951,343.301695811843
738353.48300480924081057310,-6.90542313913388,-2.74493647063611,343.277077547533
738353.48300492158159613609,-6.90542313913388,-2.73262733848079,343.190913622445
738353.48300503392238169909,-6.9177322712892,-2.75724560279143,343.203222754601
738353.48300514626316726208,-6.93004140344452,-2.74493647063611,343.252459283222
738353.48300525860395282507,-6.93004140344452,-2.74493647063611,343.252459283222
738353.48300537094473838806,-6.93004140344452,-2.78186386710206,343.240150151067
738353.48300548328552395105,-6.93004140344452,-2.74493647063611,343.141677093824
