time_dn,ecg_projection_ll_ra_mV,ecg_projection_la_ra_mV,ecg_projection_vx_rl_mV
738353.50982696842402219772,-5.04674418368074,-1.28014974415316,344.027934609007
738353.50982705887872725725,-5.04674418368074,-1.28014974415316,344.015625476852
738353.50982714933343231678,-5.04674418368074,-1.29245887630848,343.991007212541
738353.50982723978813737631,-5.04674418368074,-1.28014974415316,344.040243741162
738353.50982733024284243584,-5.04674418368074,-1.28014974415316,344.064862005473
738353.50982742058113217354,-5.04674418368074,-1.29245887630848,343.94177068392
738353.50982751103583723307,-5.08367158014669,-1.46478672648295,344.077171137628
738353.50982760149054229259,-5.0221259193701,-1.34169540492976,344.200262459181
738353.50982769194524735212,-4.87441633350627,-0.984730572425509,344.249498987803
738353.50982778239995241165,-4.57899716177862,-0.406201361125523,343.695588040813
738353.50982787273824214935,-4.39436017944884,0.0984730572425509,343.461714529862
738353.50982796319294720888,-4.71439761548713,0,343.621733247881
738353.50982805364765226841,-4.88672546566159,-0.590838343455306,343.535569322794
738353.50982814410235732794,-4.99750765505946,-1.02165796889147,343.732515437279
738353.50982823455706238747,-4.98519852290414,-1.13244015828934,344.040243741162
738353.50982832489535212517,-4.98519852290414,-1.19398581906593,344.077171137628
738353.50982841535005718470,-4.99750765505946,-1.21860408337657,344.015625476852
738353.50982850580476224422,-5.00981678721478,-1.24322234768721,344.052552873318
738353.50982859625946730375,-5.00981678721478,-1.24322234768721,344.114098534094
738353.50982868671417236328,-5.00981678721478,-1.24322234768721,344.089480269784
738353.50982877705246210098,-4.99750765505946,-1.25553147984252,344.077171137628
738353.50982886750716716051,-5.00981678721478,-1.25553147984252,344.138716798405
738353.50982895796187222004,-5.00981678721478,-1.25553147984252,344.12640766625
738353.50982904841657727957,-5.00981678721478,-1.25553147984252,344.114098534094
738353.50982913887128233910,-5.00981678721478,-1.25553147984252,344.052552873318
738353.50982922920957207680,-4.99750765505946,-1.24322234768721,344.114098534094
738353.50982931966427713633,-4.99750765505946,-1.24322234768721,344.15102593056
738353.50982941011898219585,-4.99750765505946,-1.23091321553189,344.089480269784
738353.50982950057368725538,-4.99750765505946,-1.23091321553189,344.12640766625
738353.50982959102839231491,-4.98519852290414,-1.20629495122125,344.138716798405
738353.50982968136668205261,-4.97288939074882,-1.20629495122125,344.114098534094
738353.50982977182138711214,-4.97288939074882,-1.19398581906593,344.138716798405
738353.50982986227609217167,-4.97288939074882,-1.18167668691061,344.224880723492
738353.50982995273079723120,-4.9605802585935,-1.15705842259997,344.212571591337
738353.50983004318550229073,-4.94827112643818,-1.14474929044465,344.187953327026
738353.50983013352379202843,-4.93596199428287,-1.12013102613402,344.224880723492
738353.50983022397849708796,-4.92365286212755,-1.08320362966806,344.249498987803
738353.50983031443320214748,-4.89903459781691,-1.0462762332021,344.200262459181
738353.50983040488790720701,-4.88672546566159,-1.00934883673615,344.200262459181
738353.50983049534261226654,-4.88672546566159,-0.984730572425509,344.224880723492
738353.50983058568090200424,-4.86210720135095,-0.947803175959553,344.15102593056
738353.50983067613560706377,-4.84979806919563,-0.898566647338277,344.298735516424
738353.50983076659031212330,-4.83748893704032,-0.849330118717002,344.298735516424
738353.50983085704501718283,-4.81287067272968,-0.824711854406364,344.311044648579
738353.50983094749972224236,-4.80056154057436,-0.775475325785089,344.347972045045
738353.50983103783801198006,-4.80056154057436,-0.775475325785089,344.261808119958
738353.50983112829271703959,-4.81287067272968,-0.800093590095726,344.274117252113
738353.50983121874742209911,-4.825179804885,-0.861639250872321,344.224880723492
738353.50983130920212715864,-4.86210720135095,-0.947803175959553,344.101789401939
738353.50983139965683221817,-4.89903459781691,-1.02165796889147,344.040243741162
738353.50983148999512195587,-4.92365286212755,-1.08320362966806,344.077171137628
738353.50983158044982701540,-4.9605802585935,-1.13244015828934,344.077171137628
738353.50983167090453207493,-4.97288939074882,-1.16936755475529,344.064862005473
738353.50983176135923713446,-4.98519852290414,-1.20629495122125,344.052552873318
738353.50983185181394219398,-4.99750765505946,-1.21860408337657,344.064862005473
738353.50983194215223193169,-4.99750765505946,-1.23091321553189,343.978698080386
738353.50983203260693699121,-5.00981678721478,-1.23091321553189,344.015625476852
738353.50983212306164205074,-4.99750765505946,-1.23091321553189,344.040243741162
738353.50983221351634711027,-5.00981678721478,-1.24322234768721,344.052552873318
738353.50983230385463684797,-5.00981678721478,-1.24322234768721,344.015625476852
738353.50983239430934190750,-5.03443505152542,-1.26784061199784,344.003316344696
738353.50983248476404696703,-4.97288939074882,-1.20629495122125,344.089480269784
738353.50983257521875202656,-5.0221259193701,-1.25553147984252,344.101789401939
738353.50983266567345708609,-4.99750765505946,-1.23091321553189,343.991007212541
738353.50983275601174682379,-5.00981678721478,-1.24322234768721,344.052552873318
738353.50983284646645188332,-5.00981678721478,-1.25553147984252,344.064862005473
738353.50983293692115694284,-5.00981678721478,-1.24322234768721,344.052552873318
738353.50983302737586200237,-4.99750765505946,-1.24322234768721,344.064862005473
738353.50983311783056706190,-4.99750765505946,-1.24322234768721,344.089480269784
738353.50983320816885679960,-4.98519852290414,-1.24322234768721,344.064862005473
738353.50983329862356185913,-5.00981678721478,-1.25553147984252,343.991007212541
738353.50983338907826691866,-4.99750765505946,-1.23091321553189,344.040243741162
738353.50983347953297197819,-4.99750765505946,-1.24322234768721,344.064862005473
738353.50983356998767703772,-4.99750765505946,-1.25553147984252,343.96638894823
738353.50983366032596677542,-4.99750765505946,-1.24322234768721,344.101789401939
738353.50983375078067183495,-5.0221259193701,-1.26784061199784,344.027934609007
738353.50983384123537689447,-5.04674418368074,-1.28014974415316,343.929461551764
738353.50983393169008195400,-4.99750765505946,-1.24322234768721,343.954079816075
738353.50983402214478701353,-4.99750765505946,-1.25553147984252,343.94177068392
738353.50983411248307675123,-5.03443505152542,-1.29245887630848,343.954079816075
738353.50983420293778181076,-5.03443505152542,-1.29245887630848,343.929461551764
738353.50983429339248687029,-5.00981678721478,-1.28014974415316,344.027934609007
738353.50983438384719192982,-4.99750765505946,-1.24322234768721,344.027934609007
738353.50983447430189698935,-4.99750765505946,-1.25553147984252,343.94177068392
738353.50983456464018672705,-5.03443505152542,-1.28014974415316,343.978698080386
738353.50983465509489178658,-5.03443505152542,-1.29245887630848,343.929461551764
738353.50983474554959684610,-5.04674418368074,-1.29245887630848,344.015625476852
738353.50983483600430190563,-5.03443505152542,-1.3047680084638,343.880225023143
738353.50983492645900696516,-5.05905331583605,-1.32938627277444,343.855606758833
738353.50983501679729670286,-5.0221259193701,-1.29245887630848,343.978698080386
738353.50983510725200176239,-5.00981678721478,-1.28014974415316,344.015625476852
738353.50983519770670682192,-5.04674418368074,-1.32938627277444,344.040243741162
738353.50983528816141188145,-5.04674418368074,-1.31707714061912,343.978698080386
738353.50983537861611694098,-5.04674418368074,-1.31707714061912,343.978698080386
738353.50983546895440667868,-5.03443505152542,-1.31707714061912,343.991007212541
738353.50983555940911173820,-5.0221259193701,-1.3047680084638,344.003316344696
738353.50983564986381679773,-5.03443505152542,-1.32938627277444,343.991007212541
738353.50983574031852185726,-5.05905331583605,-1.35400453708508,343.96638894823
738353.50983583077322691679,-5.04674418368074,-1.32938627277444,344.003316344696
738353.50983592111151665449,-4.99750765505946,-1.28014974415316,343.96638894823
738353.50983601156622171402,-5.0221259193701,-1.3047680084638,344.015625476852
738353.50983610202092677355,-5.07136244799137,-1.36631366924039,343.991007212541
738353.50983619247563183308,-5.04674418368074,-1.34169540492976,344.003316344696
738353.50983628293033689260,-5.04674418368074,-1.32938627277444,343.96638894823
738353.50983637326862663031,-5.04674418368074,-1.34169540492976,344.040243741162
738353.50983646372333168983,-5.05905331583605,-1.35400453708508,344.040243741162
738353.50983655417803674936,-5.05905331583605,-1.34169540492976,344.015625476852
738353.50983664463274180889,-5.04674418368074,-1.34169540492976,344.027934609007
738353.50983673508744686842,-5.04674418368074,-1.34169540492976,344.027934609007
738353.50983682542573660612,-5.05905331583605,-1.34169540492976,344.027934609007
738353.50983691588044166565,-5.04674418368074,-1.32938627277444,343.929461551764
738353.50983700633514672518,-5.0221259193701,-1.3047680084638,343.904843287454
738353.50983709678985178471,-5.04674418368074,-1.32938627277444,343.94177068392
738353.50983718724455684423,-5.04674418368074,-1.34169540492976,343.94177068392
738353.50983727758284658194,-5.04674418368074,-1.34169540492976,343.94177068392
738353.50983736803755164146,-5.04674418368074,-1.32938627277444,344.027934609007
738353.50983745849225670099,-5.04674418368074,-1.32938627277444,344.040243741162
738353.50983754894696176052,-5.04674418368074,-1.32938627277444,344.077171137628
738353.50983763940166682005,-5.04674418368074,-1.31707714061912,343.991007212541
738353.50983772973995655775,-5.04674418368074,-1.32938627277444,344.027934609007
738353.50983782019466161728,-5.04674418368074,-1.31707714061912,344.052552873318
738353.50983791064936667681,-5.03443505152542,-1.31707714061912,344.077171137628
738353.50983800110407173634,-5.03443505152542,-1.32938627277444,343.978698080386
738353.50983809155877679586,-5.0221259193701,-1.32938627277444,344.064862005473
738353.50983818189706653357,-5.00981678721478,-1.32938627277444,344.064862005473
738353.50983827235177159309,-5.0221259193701,-1.32938627277444,344.003316344696
738353.50983836280647665262,-4.99750765505946,-1.29245887630848,343.929461551764
738353.50983845326118171215,-4.99750765505946,-1.29245887630848,343.880225023143
738353.50983854371588677168,-4.98519852290414,-1.28014974415316,343.991007212541
738353.50983863405417650938,-4.98519852290414,-1.25553147984252,343.96638894823
738353.50983872450888156891,-4.98519852290414,-1.25553147984252,343.917152419609
738353.50983881496358662844,-5.00981678721478,-1.26784061199784,343.94177068392
738353.50983890541829168797,-5.00981678721478,-1.3047680084638,343.917152419609
738353.50983899587299674749,-5.03443505152542,-1.34169540492976,343.94177068392
738353.50983908621128648520,-5.03443505152542,-1.32938627277444,343.904843287454
738353.50983917666599154472,-5.03443505152542,-1.31707714061912,343.904843287454
738353.50983926712069660425,-5.03443505152542,-1.31707714061912,344.015625476852
738353.50983935757540166378,-5.03443505152542,-1.31707714061912,344.015625476852
738353.50983944803010672331,-5.03443505152542,-1.34169540492976,344.064862005473
738353.50983953836839646101,-5.03443505152542,-1.32938627277444,343.917152419609
738353.50983962882310152054,-5.0221259193701,-1.31707714061912,343.867915890988
738353.50983971927780658007,-5.00981678721478,-1.3047680084638,344.003316344696
738353.50983980973251163960,-5.05905331583605,-1.45247759432763,344.027934609007
738353.50983990018721669912,-5.04674418368074,-1.46478672648295,344.15102593056
738353.50983999052550643682,-4.93596199428287,-1.15705842259997,344.33566291289
738353.50984008098021149635,-4.67747021902117,-0.6523840042319,343.96638894823
738353.50984017143491655588,-4.3697419151382,-0.0369273964659566,343.597114983571
738353.50984026188962161541,-4.59130629393394,0.0738547929319132,343.621733247881
738353.50984035234432667494,-4.825179804885,-0.406201361125523,343.57249671926
738353.50984044268261641264,-4.94827112643818,-0.972421440270191,343.670969776503
738353.50984053313732147217,-4.9605802585935,-1.14474929044465,343.904843287454
738353.50984062359202653170,-4.94827112643818,-1.19398581906593,343.929461551764
738353.50984071404673159122,-4.9605802585935,-1.21860408337657,344.003316344696
738353.50984080450143665075,-4.97288939074882,-1.25553147984252,344.027934609007
738353.50984089483972638845,-4.9605802585935,-1.26784061199784,344.089480269784
738353.50984098529443144798,-4.9605802585935,-1.26784061199784,344.114098534094
738353.50984107574913650751,-4.97288939074882,-1.26784061199784,344.089480269784
738353.50984116620384156704,-4.97288939074882,-1.26784061199784,344.052552873318
738353.50984125665854662657,-4.9605802585935,-1.26784061199784,344.114098534094
738353.50984134699683636427,-4.97288939074882,-1.25553147984252,344.064862005473
738353.50984143745154142380,-4.9605802585935,-1.25553147984252,343.991007212541
738353.50984152790624648333,-4.94827112643818,-1.24322234768721,344.003316344696
738353.50984161836095154285,-4.94827112643818,-1.24322234768721,344.003316344696
738353.50984170881565660238,-4.94827112643818,-1.23091321553189,344.003316344696
738353.50984179915394634008,-4.94827112643818,-1.23091321553189,344.027934609007
738353.50984188960865139961,-4.94827112643818,-1.21860408337657,344.040243741162
738353.50984198006335645914,-4.93596199428287,-1.21860408337657,343.978698080386
738353.50984207051806151867,-4.92365286212755,-1.19398581906593,344.138716798405
738353.50984216097276657820,-4.91134372997223,-1.18167668691061,344.15102593056
738353.50984225131105631590,-4.92365286212755,-1.15705842259997,344.027934609007
738353.50984234176576137543,-4.89903459781691,-1.14474929044465,344.175644194871
738353.50984243222046643496,-4.89903459781691,-1.12013102613402,344.138716798405
738353.50984252267517149448,-4.86210720135095,-1.07089449751274,344.163335062716
738353.50984261312987655401,-4.86210720135095,-1.0462762332021,344.187953327026
738353.50984270346816629171,-4.86210720135095,-1.02165796889147,344.212571591337
738353.50984279392287135124,-4.83748893704032,-0.972421440270191,344.274117252113
738353.50984288437757641077,-4.81287067272968,-0.923184911648915,344.286426384269
738353.50984297483228147030,-4.80056154057436,-0.886257515182958,344.33566291289
738353.50984306517057120800,-4.77594327626372,-0.837020986561683,344.347972045045
738353.50984315562527626753,-4.77594327626372,-0.800093590095726,344.311044648579
738353.50984324607998132706,-4.7636341441084,-0.787784457940408,344.323353780735
738353.50984333653468638659,-4.7636341441084,-0.775475325785089,344.298735516424
738353.50984342698939144611,-4.75132501195308,-0.775475325785089,344.33566291289
738353.50984351732768118382,-4.78825240841904,-0.837020986561683,344.212571591337
738353.50984360778238624334,-4.81287067272968,-0.910875779493596,344.187953327026
738353.50984369823709130287,-4.83748893704032,-0.972421440270191,344.163335062716
738353.50984378869179636240,-4.87441633350627,-1.0462762332021,344.15102593056
738353.50984387914650142193,-4.89903459781691,-1.09551276182338,344.15102593056
738353.50984396948479115963,-4.92365286212755,-1.15705842259997,344.12640766625
738353.50984405993949621916,-4.94827112643818,-1.18167668691061,344.114098534094
738353.50984415039420127869,-4.9605802585935,-1.19398581906593,344.12640766625
738353.50984424084890633821,-4.9605802585935,-1.20629495122125,344.089480269784
738353.50984433130361139774,-4.97288939074882,-1.21860408337657,344.101789401939
738353.50984442164190113544,-4.9605802585935,-1.21860408337657,344.052552873318
738353.50984451209660619497,-4.97288939074882,-1.23091321553189,344.052552873318
738353.50984460255131125450,-4.97288939074882,-1.23091321553189,344.064862005473
738353.50984469300601631403,-4.97288939074882,-1.23091321553189,344.052552873318
738353.50984478346072137356,-4.97288939074882,-1.23091321553189,344.003316344696
738353.50984487379901111126,-4.97288939074882,-1.23091321553189,344.064862005473
738353.50984496425371617079,-4.9605802585935,-1.23091321553189,344.052552873318
738353.50984505470842123032,-4.97288939074882,-1.21860408337657,344.040243741162
738353.50984514516312628984,-4.97288939074882,-1.23091321553189,344.064862005473
738353.50984523561783134937,-4.97288939074882,-1.23091321553189,344.077171137628
738353.50984532595612108707,-4.97288939074882,-1.23091321553189,344.114098534094
738353.50984541641082614660,-4.98519852290414,-1.24322234768721,344.077171137628
738353.50984550686553120613,-4.98519852290414,-1.24322234768721,343.929461551764
738353.50984559732023626566,-4.98519852290414,-1.24322234768721,344.064862005473
738353.50984568777494132519,-4.98519852290414,-1.24322234768721,344.101789401939
738353.50984577811323106289,-4.97288939074882,-1.23091321553189,344.089480269784
738353.50984586856793612242,-4.98519852290414,-1.25553147984252,344.114098534094
738353.50984595902264118195,-4.99750765505946,-1.25553147984252,344.12640766625
738353.50984604947734624147,-4.97288939074882,-1.23091321553189,344.101789401939
738353.50984613993205130100,-4.99750765505946,-1.25553147984252,344.064862005473
738353.50984623027034103870,-5.00981678721478,-1.26784061199784,344.089480269784
738353.50984632072504609823,-5.00981678721478,-1.26784061199784,344.101789401939
738353.50984641117975115776,-4.99750765505946,-1.25553147984252,344.052552873318
738353.50984650163445621729,-5.00981678721478,-1.25553147984252,344.077171137628
738353.50984659208916127682,-4.99750765505946,-1.25553147984252,343.991007212541
738353.50984668242745101452,-5.03443505152542,-1.28014974415316,343.978698080386
738353.50984677288215607405,-5.0221259193701,-1.28014974415316,343.96638894823
738353.50984686333686113358,-4.99750765505946,-1.25553147984252,343.978698080386
738353.50984695379156619310,-4.98519852290414,-1.24322234768721,343.929461551764
738353.50984704424627125263,-5.03443505152542,-1.28014974415316,343.929461551764
738353.50984713458456099033,-4.99750765505946,-1.25553147984252,343.978698080386
738353.50984722503926604986,-5.03443505152542,-1.28014974415316,344.003316344696
738353.50984731549397110939,-5.03443505152542,-1.3047680084638,344.040243741162
738353.50984740594867616892,-5.00981678721478,-1.26784061199784,344.064862005473
738353.50984749640338122845,-5.04674418368074,-1.29245887630848,344.064862005473
738353.50984758674167096615,-5.03443505152542,-1.29245887630848,344.101789401939
738353.50984767719637602568,-5.03443505152542,-1.28014974415316,343.991007212541
738353.50984776765108108521,-5.00981678721478,-1.26784061199784,344.015625476852
738353.50984785810578614473,-5.05905331583605,-1.31707714061912,344.040243741162
738353.50984794856049120426,-5.0221259193701,-1.29245887630848,344.064862005473
738353.50984803889878094196,-5.0221259193701,-1.26784061199784,344.052552873318
738353.50984812935348600149,-5.03443505152542,-1.29245887630848,344.003316344696
738353.50984821980819106102,-5.05905331583605,-1.3047680084638,344.027934609007
738353.50984831026289612055,-5.05905331583605,-1.31707714061912,344.040243741162
738353.50984840071760118008,-5.00981678721478,-1.26784061199784,344.015625476852
738353.50984849105589091778,-5.04674418368074,-1.29245887630848,344.015625476852
738353.50984858151059597731,-5.04674418368074,-1.3047680084638,344.077171137628
738353.50984867196530103683,-5.08367158014669,-1.32938627277444,344.077171137628
738353.50984876242000609636,-5.05905331583605,-1.3047680084638,344.027934609007
738353.50984885287471115589,-5.03443505152542,-1.29245887630848,344.052552873318
738353.50984894321300089359,-5.04674418368074,-1.3047680084638,344.003316344696
738353.50984903366770595312,-5.07136244799137,-1.31707714061912,343.929461551764
738353.50984912412241101265,-5.05905331583605,-1.31707714061912,344.114098534094
738353.50984921457711607218,-5.07136244799137,-1.32938627277444,343.978698080386
738353.50984930503182113171,-5.07136244799137,-1.32938627277444,344.052552873318
738353.50984939537011086941,-5.04674418368074,-1.3047680084638,344.027934609007
738353.50984948582481592894,-5.04674418368074,-1.29245887630848,344.101789401939
738353.50984957627952098846,-5.09598071230201,-1.35400453708508,344.101789401939
738353.50984966673422604799,-5.08367158014669,-1.32938627277444,344.064862005473
738353.50984975718893110752,-5.08367158014669,-1.32938627277444,344.089480269784
738353.50984984752722084522,-5.07136244799137,-1.3047680084638,344.089480269784
738353.50984993798192590475,-5.09598071230201,-1.34169540492976,344.064862005473
738353.50985002843663096428,-5.09598071230201,-1.34169540492976,344.003316344696
738353.50985011889133602381,-5.04674418368074,-1.31707714061912,343.978698080386
738353.50985020934604108334,-5.03443505152542,-1.3047680084638,343.991007212541
738353.50985029968433082104,-5.08367158014669,-1.34169540492976,343.96638894823
738353.50985039013903588057,-5.05905331583605,-1.31707714061912,343.96638894823
738353.50985048059374094009,-5.05905331583605,-1.31707714061912,344.015625476852
738353.50985057104844599962,-5.03443505152542,-1.28014974415316,344.015625476852
738353.50985066150315105915,-5.04674418368074,-1.26784061199784,344.052552873318
738353.50985075184144079685,-5.05905331583605,-1.26784061199784,344.101789401939
738353.50985084229614585638,-5.10828984445733,-1.29245887630848,344.077171137628
738353.50985093275085091591,-5.12059897661265,-1.35400453708508,343.991007212541
738353.50985102320555597544,-5.10828984445733,-1.34169540492976,344.040243741162
738353.50985111366026103497,-5.14521724092329,-1.36631366924039,343.991007212541
738353.50985120399855077267,-5.13290810876797,-1.35400453708508,344.077171137628
738353.50985129445325583220,-5.13290810876797,-1.35400453708508,344.101789401939
738353.50985138490796089172,-5.15752637307861,-1.36631366924039,344.114098534094
738353.50985147536266595125,-5.13290810876797,-1.35400453708508,344.114098534094
738353.50985156581737101078,-5.14521724092329,-1.37862280139571,344.052552873318
738353.50985165615566074848,-5.16983550523392,-1.40324106570635,344.064862005473
738353.50985174661036580801,-5.13290810876797,-1.42785933001699,344.027934609007
738353.50985183706507086754,-5.23138116601052,-1.58787804803613,344.114098534094
738353.50985192751977592707,-5.12059897661265,-1.32938627277444,344.323353780735
738353.50985201797448098660,-4.92365286212755,-0.87394838302764,344.175644194871
738353.50985210831277072430,-4.55437889746798,-0.196946114485102,343.707897172969
738353.50985219876747578382,-4.72670674764244,0,343.732515437279
738353.50985228922218084335,-4.93596199428287,-0.344655700348928,343.609424115726
738353.50985237967688590288,-4.98519852290414,-0.677002268542538,343.57249671926
738353.50985247013159096241,-5.20676290169988,-1.23091321553189,343.806370230211
738353.50985256046988070011,-5.15752637307861,-1.29245887630848,343.781751965901
738353.50985265092458575964,-5.15752637307861,-1.34169540492976,344.052552873318
738353.50985274137929081917,-5.19445376954456,-1.40324106570635,344.089480269784
738353.50985283183399587870,-5.2190720338552,-1.42785933001699,344.114098534094
738353.50985292228870093822,-5.19445376954456,-1.41555019786167,344.101789401939
738353.50985301262699067593,-5.23138116601052,-1.46478672648295,344.027934609007
738353.50985310308169573545,-5.23138116601052,-1.46478672648295,344.052552873318
738353.50985319353640079498,-5.23138116601052,-1.47709585863826,343.991007212541
738353.50985328399110585451,-5.20676290169988,-1.46478672648295,344.163335062716
738353.50985337432939559221,-5.23138116601052,-1.48940499079358,344.175644194871
738353.50985346478410065174,-5.20676290169988,-1.45247759432763,344.138716798405
738353.50985355523880571127,-5.25599943032116,-1.51402325510422,344.114098534094
738353.50985364569351077080,-5.24369029816584,-1.48940499079358,344.163335062716
738353.50985373614821583033,-5.23138116601052,-1.48940499079358,344.12640766625
738353.50985382648650556803,-5.19445376954456,-1.44016846217231,344.077171137628
738353.50985391694121062756,-5.24369029816584,-1.48940499079358,344.138716798405
738353.50985400739591568708,-5.2190720338552,-1.46478672648295,344.138716798405
738353.50985409785062074661,-5.2190720338552,-1.46478672648295,344.077171137628
738353.50985418830532580614,-5.2190720338552,-1.45247759432763,344.15102593056
738353.50985427864361554384,-5.2190720338552,-1.46478672648295,344.175644194871
738353.50985436909832060337,-5.14521724092329,-1.36631366924039,344.212571591337
738353.50985445955302566290,-5.23138116601052,-1.44016846217231,344.138716798405
738353.50985455000773072243,-5.18214463738924,-1.37862280139571,344.175644194871
738353.50985464046243578196,-5.15752637307861,-1.34169540492976,344.187953327026
738353.50985473080072551966,-5.14521724092329,-1.28014974415316,344.175644194871
738353.50985482125543057919,-5.14521724092329,-1.25553147984252,344.237189855647
738353.50985491171013563871,-5.15752637307861,-1.25553147984252,344.261808119958
738353.50985500216484069824,-5.08367158014669,-1.15705842259997,344.33566291289
738353.50985509261954575777,-5.13290810876797,-1.18167668691061,344.33566291289
738353.50985518295783549547,-5.09598071230201,-1.12013102613402,344.347972045045
738353.50985527341254055500,-5.08367158014669,-1.09551276182338,344.33566291289
738353.50985536386724561453,-5.09598071230201,-1.12013102613402,344.274117252113
738353.50985545432195067406,-5.12059897661265,-1.16936755475529,344.261808119958
738353.50985554477665573359,-5.13290810876797,-1.23091321553189,344.224880723492
738353.50985563511494547129,-5.16983550523392,-1.31707714061912,344.114098534094
738353.50985572556965053082,-5.19445376954456,-1.37862280139571,344.163335062716
738353.50985581602435559034,-5.23138116601052,-1.45247759432763,344.138716798405
738353.50985590647906064987,-5.26830856247648,-1.51402325510422,344.052552873318
738353.50985599693376570940,-5.26830856247648,-1.53864151941486,344.027934609007
738353.50985608727205544710,-5.23138116601052,-1.51402325510422,343.892534155299
738353.50985617772676050663,-5.28061769463179,-1.5632597837255,344.052552873318
738353.50985626818146556616,-5.28061769463179,-1.57556891588082,343.96638894823
738353.50985635863617062569,-5.28061769463179,-1.57556891588082,344.040243741162
738353.50985644909087568521,-5.29292682678711,-1.58787804803613,343.991007212541
738353.50985653942916542292,-5.28061769463179,-1.58787804803613,344.015625476852
738353.50985662988387048244,-5.29292682678711,-1.58787804803613,344.040243741162
738353.50985672033857554197,-5.29292682678711,-1.60018718019145,344.114098534094
738353.50985681079328060150,-5.29292682678711,-1.60018718019145,344.12640766625
738353.50985690124798566103,-5.29292682678711,-1.60018718019145,344.003316344696
738353.50985699158627539873,-5.29292682678711,-1.60018718019145,344.077171137628
738353.50985708204098045826,-5.29292682678711,-1.60018718019145,344.114098534094
738353.50985717249568551779,-5.28061769463179,-1.60018718019145,344.015625476852
738353.50985726295039057732,-5.29292682678711,-1.60018718019145,344.040243741162
738353.50985735340509563684,-5.29292682678711,-1.60018718019145,344.052552873318
738353.50985744374338537455,-5.29292682678711,-1.60018718019145,344.027934609007
738353.50985753419809043407,-5.29292682678711,-1.61249631234677,344.040243741162
738353.50985762465279549360,-5.29292682678711,-1.61249631234677,343.991007212541
738353.50985771510750055313,-5.29292682678711,-1.61249631234677,344.052552873318
738353.50985780556220561266,-5.30523595894243,-1.62480544450209,344.052552873318
738353.50985789590049535036,-5.31754509109775,-1.62480544450209,344.052552873318
738353.50985798635520040989,-5.31754509109775,-1.63711457665741,344.003316344696
738353.50985807680990546942,-5.32985422325307,-1.64942370881273,344.052552873318
738353.50985816726461052895,-5.35447248756371,-1.66173284096805,344.052552873318
738353.50985825771931558847,-5.36678161971903,-1.67404197312337,343.978698080386
738353.50985834805760532618,-5.37909075187434,-1.698660237434,344.052552873318
738353.50985843851231038570,-5.40370901618498,-1.71096936958932,344.040243741162
738353.50985852896701544523,-5.4160181483403,-1.73558763389996,344.015625476852
738353.50985861942172050476,-5.42832728049562,-1.74789676605528,344.027934609007
738353.50985870987642556429,-5.45294554480626,-1.77251503036592,344.040243741162
738353.50985880021471530199,-5.46525467696158,-1.79713329467655,344.027934609007
738353.50985889066942036152,-5.48987294127221,-1.80944242683187,343.978698080386
738353.50985898112412542105,-5.48987294127221,-1.82175155898719,344.027934609007
738353.50985907157883048058,-5.50218207342753,-1.83406069114251,344.015625476852
738353.50985916203353554010,-5.50218207342753,-1.83406069114251,344.003316344696
738353.50985925237182527781,-5.51449120558285,-1.83406069114251,344.015625476852
738353.50985934282653033733,-5.51449120558285,-1.83406069114251,344.027934609007
738353.50985943328123539686,-5.48987294127221,-1.82175155898719,344.003316344696
738353.50985952373594045639,-5.51449120558285,-1.84636982329783,343.769442833745
738353.50985961419064551592,-5.50218207342753,-1.83406069114251,343.929461551764
738353.50985970452893525362,-5.50218207342753,-1.83406069114251,344.003316344696
738353.50985979498364031315,-5.51449120558285,-1.83406069114251,344.015625476852
738353.50985988543834537268,-5.51449120558285,-1.83406069114251,343.991007212541
738353.50985997589305043221,-5.51449120558285,-1.84636982329783,344.015625476852
738353.50986006634775549173,-5.50218207342753,-1.83406069114251,343.991007212541
738353.50986015668604522943,-5.51449120558285,-1.84636982329783,343.96638894823
738353.50986024714075028896,-5.50218207342753,-1.84636982329783,344.015625476852
738353.50986033759545534849,-5.51449120558285,-1.84636982329783,344.015625476852
738353.50986042805016040802,-5.50218207342753,-1.83406069114251,343.929461551764
738353.50986051850486546755,-5.50218207342753,-1.83406069114251,344.015625476852
738353.50986060884315520525,-5.51449120558285,-1.83406069114251,344.003316344696
738353.50986069929786026478,-5.50218207342753,-1.83406069114251,343.978698080386
738353.50986078975256532431,-5.50218207342753,-1.84636982329783,344.003316344696
738353.50986088020727038383,-5.50218207342753,-1.83406069114251,344.003316344696
738353.50986097066197544336,-5.50218207342753,-1.83406069114251,343.929461551764
738353.50986106100026518106,-5.50218207342753,-1.82175155898719,343.917152419609
738353.50986115145497024059,-5.48987294127221,-1.82175155898719,343.991007212541
738353.50986124190967530012,-5.48987294127221,-1.82175155898719,343.978698080386
738353.50986133236438035965,-5.48987294127221,-1.80944242683187,343.94177068392
738353.50986142281908541918,-5.48987294127221,-1.82175155898719,343.991007212541
738353.50986151315737515688,-5.4775638091169,-1.82175155898719,343.978698080386
738353.50986160361208021641,-5.46525467696158,-1.80944242683187,343.96638894823
738353.50986169406678527594,-5.45294554480626,-1.80944242683187,343.929461551764
738353.50986178452149033546,-5.46525467696158,-1.79713329467655,343.991007212541
738353.50986187497619539499,-5.42832728049562,-1.74789676605528,344.003316344696
738353.50986196531448513269,-5.44063641265094,-1.78482416252124,343.929461551764
738353.50986205576919019222,-5.42832728049562,-1.7602058982106,343.94177068392
738353.50986214622389525175,-5.44063641265094,-1.74789676605528,343.978698080386
738353.50986223667860031128,-5.42832728049562,-1.73558763389996,343.978698080386
738353.50986232713330537081,-5.45294554480626,-1.7602058982106,343.94177068392
738353.50986241747159510851,-5.48987294127221,-1.83406069114251,343.978698080386
738353.50986250792630016804,-5.48987294127221,-1.83406069114251,343.978698080386
738353.50986259838100522757,-5.50218207342753,-1.84636982329783,343.954079816075
738353.50986268883571028709,-5.51449120558285,-1.84636982329783,343.991007212541
738353.50986277929041534662,-5.45294554480626,-1.78482416252124,344.003316344696
738353.50986286962870508432,-5.45294554480626,-1.79713329467655,344.003316344696
738353.50986296008341014385,-5.48987294127221,-1.82175155898719,343.978698080386
738353.50986305053811520338,-5.53910946989349,-1.88329721976379,343.794061098056
738353.50986314099282026291,-5.46525467696158,-1.82175155898719,343.904843287454
738353.50986323144752532244,-5.4775638091169,-1.85867895545315,343.96638894823
738353.50986332178581506014,-5.53910946989349,-2.05562506993825,344.003316344696
738353.50986341224052011967,-5.53910946989349,-2.04331593778293,344.114098534094
738353.50986350269522517920,-5.4160181483403,-1.71096936958932,344.347972045045
738353.50986359314993023872,-5.16983550523392,-1.18167668691061,343.978698080386
738353.50986368360463529825,-4.86210720135095,-0.516983550523392,343.584805851416
738353.50986377394292503595,-5.13290810876797,-0.54160181483403,343.597114983571
738353.50986386439763009548,-5.34216335540839,-1.0462762332021,343.424787133396
738353.50986395485233515501,-5.46525467696158,-1.57556891588082,343.54787845495
738353.50986404530704021454,-5.44063641265094,-1.698660237434,343.806370230211
738353.50986413564532995224,-5.40370901618498,-1.72327850174464,343.929461551764
738353.50986422610003501177,-5.46525467696158,-1.79713329467655,343.978698080386
738353.50986431655474007130,-5.40370901618498,-1.7602058982106,344.027934609007
738353.50986440700944513083,-5.40370901618498,-1.77251503036592,344.003316344696
738353.50986449746415019035,-5.45294554480626,-1.82175155898719,344.027934609007
738353.50986458780243992805,-5.46525467696158,-1.84636982329783,344.003316344696
738353.50986467825714498758,-5.44063641265094,-1.82175155898719,344.015625476852
738353.50986476871185004711,-5.44063641265094,-1.83406069114251,343.917152419609
738353.50986485916655510664,-5.45294554480626,-1.84636982329783,344.027934609007
738353.50986494962126016617,-5.44063641265094,-1.83406069114251,344.040243741162
738353.50986503995954990387,-5.45294554480626,-1.82175155898719,343.991007212541
738353.50986513041425496340,-5.44063641265094,-1.82175155898719,343.96638894823
738353.50986522086896002293,-5.40370901618498,-1.78482416252124,344.040243741162
738353.50986531132366508245,-5.42832728049562,-1.80944242683187,344.052552873318
738353.50986540177837014198,-5.35447248756371,-1.73558763389996,343.978698080386
738353.50986549211665987968,-5.40370901618498,-1.78482416252124,344.064862005473
738353.50986558257136493921,-5.42832728049562,-1.80944242683187,344.077171137628
738353.50986567302606999874,-5.40370901618498,-1.78482416252124,344.064862005473
738353.50986576348077505827,-5.40370901618498,-1.77251503036592,344.089480269784
738353.50986585393548011780,-5.37909075187434,-1.73558763389996,344.114098534094
738353.50986594427376985550,-5.36678161971903,-1.71096936958932,344.138716798405
738353.50986603472847491503,-5.35447248756371,-1.68635110527868,344.175644194871
738353.50986612518317997456,-5.36678161971903,-1.67404197312337,344.187953327026
738353.50986621563788503408,-5.32985422325307,-1.62480544450209,344.163335062716
738353.50986630609259009361,-5.29292682678711,-1.55095065157018,344.12640766625
738353.50986639643087983131,-5.32985422325307,-1.57556891588082,344.249498987803
738353.50986648688558489084,-5.30523595894243,-1.52633238725954,344.261808119958
738353.50986657734028995037,-5.28061769463179,-1.46478672648295,344.089480269784
738353.50986666779499500990,-5.25599943032116,-1.42785933001699,344.200262459181
738353.50986675824970006943,-5.25599943032116,-1.41555019786167,344.286426384269
738353.50986684858798980713,-5.24369029816584,-1.39093193355103,344.249498987803
738353.50986693904269486666,-5.25599943032116,-1.44016846217231,344.200262459181
738353.50986702949739992619,-5.25599943032116,-1.46478672648295,344.237189855647
738353.50986711995210498571,-5.28061769463179,-1.53864151941486,344.187953327026
738353.50986721040681004524,-5.30523595894243,-1.62480544450209,344.101789401939
738353.50986730074509978294,-5.36678161971903,-1.74789676605528,344.114098534094
738353.50986739119980484247,-5.39139988402966,-1.83406069114251,344.077171137628
738353.50986748165450990200,-5.42832728049562,-1.92022461622974,344.027934609007
738353.50986757210921496153,-5.40370901618498,-1.87098808760847,344.052552873318
738353.50986766256392002106,-5.40370901618498,-1.85867895545315,344.040243741162
738353.50986775290220975876,-5.4160181483403,-1.87098808760847,344.015625476852
738353.50986784335691481829,-5.42832728049562,-1.92022461622974,344.040243741162
738353.50986793381161987782,-5.34216335540839,-1.89560635191911,344.040243741162
738353.50986802426632493734,-5.4160181483403,-1.9571520126957,343.978698080386
738353.50986811472102999687,-5.37909075187434,-1.88329721976379,343.954079816075
738353.50986820505931973457,-5.4160181483403,-1.94484288054038,344.027934609007
738353.50986829551402479410,-5.40370901618498,-1.92022461622974,344.027934609007
738353.50986838596872985363,-5.39139988402966,-1.90791548407442,343.94177068392
738353.50986847642343491316,-5.39139988402966,-1.90791548407442,344.015625476852
738353.50986856687813997269,-5.39139988402966,-1.92022461622974,344.015625476852
738353.50986865721642971039,-5.40370901618498,-1.90791548407442,344.027934609007
738353.50986874767113476992,-5.37909075187434,-1.89560635191911,343.954079816075
738353.50986883812583982944,-5.36678161971903,-1.89560635191911,344.003316344696
738353.50986892858054488897,-5.39139988402966,-1.93253374838506,344.040243741162
738353.50986901903524994850,-5.37909075187434,-1.90791548407442,344.027934609007
738353.50986910937353968620,-5.37909075187434,-1.87098808760847,343.94177068392
738353.50986919982824474573,-5.40370901618498,-1.88329721976379,344.003316344696
738353.50986929028294980526,-5.40370901618498,-1.88329721976379,343.96638894823
738353.50986938073765486479,-5.40370901618498,-1.87098808760847,343.954079816075
738353.50986947119235992432,-5.40370901618498,-1.87098808760847,343.954079816075
738353.50986956153064966202,-5.40370901618498,-1.87098808760847,343.94177068392
738353.50986965198535472155,-5.37909075187434,-1.82175155898719,343.954079816075
738353.50986974244005978107,-5.39139988402966,-1.80944242683187,343.96638894823
738353.50986983289476484060,-5.37909075187434,-1.83406069114251,343.991007212541
738353.50986992334946990013,-5.40370901618498,-1.79713329467655,343.991007212541
738353.50987001368775963783,-5.40370901618498,-1.74789676605528,344.003316344696
738353.50987010414246469736,-5.39139988402966,-1.73558763389996,343.855606758833
738353.50987019459716975689,-5.37909075187434,-1.72327850174464,343.917152419609
738353.50987028505187481642,-5.40370901618498,-1.71096936958932,344.015625476852
738353.50987037550657987595,-5.40370901618498,-1.64942370881273,344.003316344696
738353.50987046584486961365,-5.40370901618498,-1.62480544450209,344.015625476852
738353.50987055629957467318,-5.39139988402966,-1.57556891588082,344.003316344696
738353.50987064675427973270,-5.39139988402966,-1.55095065157018,343.978698080386
738353.50987073720898479223,-5.4160181483403,-1.52633238725954,344.015625476852
738353.50987082766368985176,-5.37909075187434,-1.45247759432763,344.015625476852
738353.50987091800197958946,-5.37909075187434,-1.41555019786167,344.027934609007
738353.50987100845668464899,-5.40370901618498,-1.41555019786167,343.978698080386
738353.50987109891138970852,-5.39139988402966,-1.37862280139571,344.003316344696
738353.50987118936609476805,-5.39139988402966,-1.35400453708508,344.003316344696
738353.50987127982079982758,-5.39139988402966,-1.3047680084638,343.96638894823
738353.50987137015908956528,-5.39139988402966,-1.34169540492976,344.015625476852
738353.50987146061379462481,-5.39139988402966,-1.28014974415316,343.991007212541
738353.50987155106849968433,-5.39139988402966,-1.29245887630848,343.978698080386
738353.50987164152320474386,-5.39139988402966,-1.28014974415316,343.96638894823
738353.50987173197790980339,-5.36678161971903,-1.29245887630848,344.003316344696
738353.50987182231619954109,-5.37909075187434,-1.31707714061912,343.991007212541
738353.50987191277090460062,-5.36678161971903,-1.3047680084638,343.904843287454
738353.50987200322560966015,-5.37909075187434,-1.32938627277444,344.003316344696
738353.50987209368031471968,-5.37909075187434,-1.35400453708508,344.003316344696
738353.50987218413501977921,-5.35447248756371,-1.34169540492976,343.954079816075
738353.50987227447330951691,-5.34216335540839,-1.34169540492976,344.003316344696
738353.50987236492801457644,-5.32985422325307,-1.34169540492976,344.015625476852
738353.50987245538271963596,-5.34216335540839,-1.34169540492976,343.991007212541
738353.50987254583742469549,-5.34216335540839,-1.35400453708508,343.991007212541
738353.50987263629212975502,-5.29292682678711,-1.31707714061912,344.015625476852
738353.50987272663041949272,-5.29292682678711,-1.35400453708508,343.94177068392
738353.50987281708512455225,-5.28061769463179,-1.42785933001699,343.991007212541
738353.50987290753982961178,-5.30523595894243,-1.32938627277444,343.929461551764
738353.50987299799453467131,-5.29292682678711,-1.37862280139571,343.929461551764
738353.50987308844923973083,-5.30523595894243,-1.40324106570635,343.94177068392
738353.50987317878752946854,-5.32985422325307,-1.47709585863826,343.929461551764
738353.50987326924223452806,-5.35447248756371,-1.55095065157018,343.867915890988
738353.50987335969693958759,-5.34216335540839,-1.53864151941486,343.917152419609
738353.50987345015164464712,-5.32985422325307,-1.53864151941486,343.917152419609
738353.50987354060634970665,-5.34216335540839,-1.57556891588082,343.904843287454
738353.50987363094463944435,-5.32985422325307,-1.52633238725954,343.75713370159
738353.50987372139934450388,-5.31754509109775,-1.53864151941486,343.855606758833
738353.50987381185404956341,-5.31754509109775,-1.5632597837255,343.94177068392
738353.50987390230875462294,-5.32985422325307,-1.5632597837255,343.954079816075
738353.50987399276345968246,-5.31754509109775,-1.5632597837255,343.954079816075
738353.50987408310174942017,-5.34216335540839,-1.74789676605528,343.94177068392
738353.50987417355645447969,-5.31754509109775,-1.71096936958932,344.114098534094
738353.50987426401115953922,-5.20676290169988,-1.35400453708508,344.274117252113
738353.50987435446586459875,-5.12059897661265,-1.15705842259997,344.249498987803
738353.50987444492056965828,-4.75132501195308,-0.443128757591479,343.720206305124
738353.50987453525885939598,-4.825179804885,-0.0984730572425509,343.769442833745
738353.50987462571356445551,-5.12059897661265,-0.615456607765943,343.57249671926
738353.50987471616826951504,-5.2190720338552,-1.28014974415316,343.449405397707
738353.50987480662297457457,-5.31754509109775,-1.5017141229489,343.695588040813
738353.50987489696126431227,-5.28061769463179,-1.52633238725954,343.929461551764
738353.50987498741596937180,-5.26830856247648,-1.5632597837255,343.991007212541
738353.50987507787067443132,-5.25599943032116,-1.58787804803613,343.991007212541
738353.50987516832537949085,-5.24369029816584,-1.57556891588082,344.003316344696
738353.50987525878008455038,-5.26830856247648,-1.5632597837255,344.015625476852
738353.50987534911837428808,-5.26830856247648,-1.5632597837255,344.027934609007
738353.50987543957307934761,-5.25599943032116,-1.63711457665741,344.027934609007
738353.50987553002778440714,-5.25599943032116,-1.5632597837255,344.040243741162
738353.50987562048248946667,-5.25599943032116,-1.53864151941486,344.052552873318
738353.50987571093719452620,-5.26830856247648,-1.64942370881273,344.040243741162
738353.50987580127548426390,-5.24369029816584,-1.58787804803613,344.077171137628
738353.50987589173018932343,-5.25599943032116,-1.58787804803613,344.077171137628
738353.50987598218489438295,-5.24369029816584,-1.53864151941486,344.064862005473
738353.50987607263959944248,-5.23138116601052,-1.51402325510422,344.064862005473
738353.50987616309430450201,-5.23138116601052,-1.55095065157018,344.052552873318
738353.50987625343259423971,-5.23138116601052,-1.52633238725954,344.101789401939
738353.50987634388729929924,-5.20676290169988,-1.47709585863826,344.089480269784
738353.50987643434200435877,-5.2190720338552,-1.5017141229489,344.064862005473
738353.50987652479670941830,-5.20676290169988,-1.44016846217231,344.114098534094
738353.50987661525141447783,-5.20676290169988,-1.44016846217231,344.12640766625
738353.50987670558970421553,-5.18214463738924,-1.44016846217231,344.138716798405
738353.50987679604440927505,-5.16983550523392,-1.41555019786167,344.175644194871
738353.50987688649911433458,-5.16983550523392,-1.34169540492976,344.052552873318
738353.50987697695381939411,-5.14521724092329,-1.29245887630848,344.12640766625
738353.50987706740852445364,-5.12059897661265,-1.25553147984252,344.138716798405
738353.50987715774681419134,-5.12059897661265,-1.16936755475529,344.027934609007
738353.50987724820151925087,-5.09598071230201,-1.18167668691061,344.114098534094
738353.50987733865622431040,-5.09598071230201,-1.15705842259997,344.212571591337
738353.50987742911092936993,-5.08367158014669,-1.12013102613402,344.212571591337
738353.50987751956563442945,-5.05905331583605,-1.05858536535742,344.249498987803
738353.50987760990392416716,-5.05905331583605,-1.1078218939787,344.274117252113
738353.50987770035862922668,-5.05905331583605,-1.20629495122125,344.224880723492
738353.50987779081333428621,-5.05905331583605,-1.12013102613402,344.175644194871
738353.50987788126803934574,-5.09598071230201,-1.25553147984252,344.15102593056
738353.50987797172274440527,-5.10828984445733,-1.3047680084638,344.114098534094
738353.50987806206103414297,-5.13290810876797,-1.34169540492976,344.064862005473
738353.50987815251573920250,-5.14521724092329,-1.37862280139571,344.003316344696
738353.50987824297044426203,-5.15752637307861,-1.45247759432763,344.003316344696
738353.50987833342514932156,-5.19445376954456,-1.51402325510422,344.003316344696
738353.50987842387985438108,-5.2190720338552,-1.55095065157018,344.064862005473
738353.50987851421814411879,-5.24369029816584,-1.60018718019145,344.089480269784
738353.50987860467284917831,-5.2190720338552,-1.58787804803613,343.954079816075
738353.50987869512755423784,-5.2190720338552,-1.60018718019145,344.027934609007
738353.50987878558225929737,-5.2190720338552,-1.55095065157018,344.027934609007
738353.50987887603696435690,-5.20676290169988,-1.5632597837255,344.052552873318
738353.50987896637525409460,-5.2190720338552,-1.57556891588082,343.929461551764
738353.50987905682995915413,-5.19445376954456,-1.52633238725954,344.040243741162
738353.50987914728466421366,-5.2190720338552,-1.55095065157018,344.052552873318
738353.50987923773936927319,-5.19445376954456,-1.5632597837255,343.954079816075
738353.50987932819407433271,-5.19445376954456,-1.55095065157018,344.052552873318
738353.50987941853236407042,-5.23138116601052,-1.58787804803613,344.089480269784
738353.50987950898706912994,-5.23138116601052,-1.60018718019145,344.027934609007
738353.50987959944177418947,-5.2190720338552,-1.60018718019145,343.978698080386
738353.50987968989647924900,-5.20676290169988,-1.57556891588082,344.027934609007
738353.50987978035118430853,-5.20676290169988,-1.60018718019145,344.052552873318
738353.50987987068947404623,-5.2190720338552,-1.60018718019145,344.027934609007
738353.50987996114417910576,-5.20676290169988,-1.58787804803613,344.015625476852
738353.50988005159888416529,-5.23138116601052,-1.61249631234677,343.954079816075
738353.50988014205358922482,-5.2190720338552,-1.5632597837255,343.94177068392
738353.50988023250829428434,-5.23138116601052,-1.64942370881273,343.892534155299
738353.50988032284658402205,-5.20676290169988,-1.53864151941486,343.917152419609
738353.50988041330128908157,-5.2190720338552,-1.5632597837255,343.929461551764
738353.50988050375599414110,-5.24369029816584,-1.61249631234677,343.991007212541
738353.50988059421069920063,-5.24369029816584,-1.63711457665741,343.978698080386
738353.50988068466540426016,-5.25599943032116,-1.62480544450209,343.904843287454
738353.50988077500369399786,-5.24369029816584,-1.64942370881273,343.880225023143
738353.50988086545839905739,-5.24369029816584,-1.60018718019145,343.917152419609
738353.50988095591310411692,-5.23138116601052,-1.62480544450209,344.027934609007
738353.50988104636780917645,-5.24369029816584,-1.62480544450209,344.027934609007
738353.50988113682251423597,-5.24369029816584,-1.58787804803613,344.052552873318
738353.50988122716080397367,-5.24369029816584,-1.61249631234677,344.003316344696
738353.50988131761550903320,-5.24369029816584,-1.60018718019145,343.978698080386
738353.50988140807021409273,-5.24369029816584,-1.60018718019145,344.027934609007
738353.50988149852491915226,-5.28061769463179,-1.64942370881273,344.027934609007
738353.50988158897962421179,-5.26830856247648,-1.63711457665741,343.94177068392
738353.50988167931791394949,-5.23138116601052,-1.61249631234677,344.027934609007
738353.50988176977261900902,-5.24369029816584,-1.63711457665741,344.040243741162
738353.50988186022732406855,-5.24369029816584,-1.67404197312337,343.917152419609
738353.50988195068202912807,-5.26830856247648,-1.68635110527868,343.880225023143
738353.50988204113673418760,-5.25599943032116,-1.61249631234677,343.954079816075
738353.50988213147502392530,-5.25599943032116,-1.58787804803613,343.96638894823
738353.50988222192972898483,-5.24369029816584,-1.61249631234677,344.027934609007
738353.50988231238443404436,-5.26830856247648,-1.62480544450209,343.917152419609
738353.50988240283913910389,-5.25599943032116,-1.64942370881273,344.003316344696
738353.50988249329384416342,-5.26830856247648,-1.63711457665741,344.003316344696
738353.50988258363213390112,-5.25599943032116,-1.62480544450209,343.904843287454
738353.50988267408683896065,-5.28061769463179,-1.698660237434,343.978698080386
738353.50988276454154402018,-5.25599943032116,-1.68635110527868,344.040243741162
738353.50988285499624907970,-5.29292682678711,-1.64942370881273,343.96638894823
738353.50988294545095413923,-5.25599943032116,-1.62480544450209,343.96638894823
738353.50988303578924387693,-5.26830856247648,-1.63711457665741,344.003316344696
738353.50988312624394893646,-5.24369029816584,-1.63711457665741,343.917152419609
738353.50988321669865399599,-5.25599943032116,-1.64942370881273,343.880225023143
738353.50988330715335905552,-5.23138116601052,-1.61249631234677,343.904843287454
738353.50988339760806411505,-5.24369029816584,-1.60018718019145,343.892534155299
738353.50988348794635385275,-5.20676290169988,-1.58787804803613,343.978698080386
738353.50988357840105891228,-5.25599943032116,-1.66173284096805,343.991007212541
738353.50988366885576397181,-5.24369029816584,-1.57556891588082,344.003316344696
738353.50988375931046903133,-5.29292682678711,-1.61249631234677,343.96638894823
738353.50988384976517409086,-5.26830856247648,-1.62480544450209,343.978698080386
738353.50988394010346382856,-5.28061769463179,-1.66173284096805,344.027934609007
738353.50988403055816888809,-5.31754509109775,-1.71096936958932,343.94177068392
738353.50988412101287394762,-5.30523595894243,-1.68635110527868,344.003316344696
738353.50988421146757900715,-5.31754509109775,-1.66173284096805,343.892534155299
738353.50988430192228406668,-5.31754509109775,-1.68635110527868,343.855606758833
738353.50988439226057380438,-5.32985422325307,-1.71096936958932,343.978698080386
738353.50988448271527886391,-5.28061769463179,-1.64942370881273,344.027934609007
738353.50988457316998392344,-5.31754509109775,-1.78482416252124,343.991007212541
738353.50988466362468898296,-5.30523595894243,-1.83406069114251,343.904843287454
738353.50988475407939404249,-5.34216335540839,-1.87098808760847,343.94177068392
738353.50988484441768378019,-5.2190720338552,-1.58787804803613,344.200262459181
738353.50988493487238883972,-5.07136244799137,-1.23091321553189,344.003316344696
738353.50988502532709389925,-4.73901587979776,-0.529292682678711,343.634042380037
738353.50988511578179895878,-4.7636341441084,-0.172327850174464,343.535569322794
738353.50988520623650401831,-5.09598071230201,-0.467747021902117,343.646351512192
738353.50988529657479375601,-5.16983550523392,-0.787784457940408,343.57249671926
738353.50988538702949881554,-5.28061769463179,-1.40324106570635,343.683278908658
738353.50988547748420387506,-5.26830856247648,-1.5017141229489,343.818679362367
738353.50988556793890893459,-5.24369029816584,-1.60018718019145,343.991007212541
738353.50988565827719867229,-5.25599943032116,-1.60018718019145,343.978698080386
738353.50988574873190373182,-5.24369029816584,-1.63711457665741,343.94177068392
738353.50988583918660879135,-5.2190720338552,-1.60018718019145,344.003316344696
738353.50988592964131385088,-5.25599943032116,-1.63711457665741,344.003316344696
738353.50988602009601891041,-5.25599943032116,-1.62480544450209,343.991007212541
738353.50988611043430864811,-5.24369029816584,-1.63711457665741,343.991007212541
738353.50988620088901370764,-5.25599943032116,-1.68635110527868,344.027934609007
738353.50988629134371876717,-5.24369029816584,-1.64942370881273,344.015625476852
738353.50988638179842382669,-5.23138116601052,-1.63711457665741,343.954079816075
738353.50988647225312888622,-5.24369029816584,-1.60018718019145,344.040243741162
738353.50988656259141862392,-5.23138116601052,-1.60018718019145,344.015625476852
738353.50988665304612368345,-5.19445376954456,-1.63711457665741,344.003316344696
738353.50988674350082874298,-5.23138116601052,-1.61249631234677,344.015625476852
738353.50988683395553380251,-5.20676290169988,-1.55095065157018,344.027934609007
738353.50988692441023886204,-5.20676290169988,-1.5632597837255,343.978698080386
738353.50988701474852859974,-5.20676290169988,-1.55095065157018,344.015625476852
738353.50988710520323365927,-5.18214463738924,-1.52633238725954,344.052552873318
738353.50988719565793871880,-5.15752637307861,-1.52633238725954,344.077171137628
738353.50988728611264377832,-5.15752637307861,-1.53864151941486,344.12640766625
738353.50988737656734883785,-5.15752637307861,-1.46478672648295,344.101789401939
738353.50988746690563857555,-5.13290810876797,-1.44016846217231,344.114098534094
738353.50988755736034363508,-5.12059897661265,-1.41555019786167,344.12640766625
738353.50988764781504869461,-5.08367158014669,-1.39093193355103,344.274117252113
738353.50988773826975375414,-5.08367158014669,-1.32938627277444,344.187953327026
738353.50988782872445881367,-5.08367158014669,-1.25553147984252,344.077171137628
738353.50988791906274855137,-5.08367158014669,-1.21860408337657,344.298735516424
738353.50988800951745361090,-5.04674418368074,-1.16936755475529,344.33566291289
738353.50988809997215867043,-5.04674418368074,-1.15705842259997,344.372590309356
738353.50988819042686372995,-5.00981678721478,-1.12013102613402,344.274117252113
738353.50988828088156878948,-5.00981678721478,-1.14474929044465,344.298735516424
738353.50988837121985852718,-5.03443505152542,-1.20629495122125,344.249498987803
738353.50988846167456358671,-5.05905331583605,-1.31707714061912,344.101789401939
738353.50988855212926864624,-5.08367158014669,-1.35400453708508,344.163335062716
738353.50988864258397370577,-5.09598071230201,-1.36631366924039,344.101789401939
738353.50988873303867876530,-5.14521724092329,-1.42785933001699,344.027934609007
738353.50988882337696850300,-5.15752637307861,-1.48940499079358,344.052552873318
738353.50988891383167356253,-5.15752637307861,-1.51402325510422,344.040243741162
738353.50988900428637862206,-5.18214463738924,-1.58787804803613,344.015625476852
738353.50988909474108368158,-5.19445376954456,-1.57556891588082,343.978698080386
738353.50988918519578874111,-5.19445376954456,-1.53864151941486,344.003316344696
738353.50988927553407847881,-5.19445376954456,-1.58787804803613,344.027934609007
738353.50988936598878353834,-5.20676290169988,-1.63711457665741,343.978698080386
738353.50988945644348859787,-5.18214463738924,-1.58787804803613,344.003316344696
738353.50988954689819365740,-5.18214463738924,-1.57556891588082,343.880225023143
738353.50988963735289871693,-5.18214463738924,-1.58787804803613,343.94177068392
738353.50988972769118845463,-5.18214463738924,-1.52633238725954,343.929461551764
738353.50988981814589351416,-5.16983550523392,-1.55095065157018,343.917152419609
738353.50988990860059857368,-5.16983550523392,-1.55095065157018,343.929461551764
738353.50988999905530363321,-5.16983550523392,-1.5632597837255,343.991007212541
738353.50989008951000869274,-5.18214463738924,-1.57556891588082,343.904843287454
738353.50989017984829843044,-5.16983550523392,-1.58787804803613,343.904843287454
738353.50989027030300348997,-5.16983550523392,-1.61249631234677,343.929461551764
738353.50989036075770854950,-5.16983550523392,-1.55095065157018,343.991007212541
738353.50989045121241360903,-5.16983550523392,-1.5632597837255,343.929461551764
738353.50989054166711866856,-5.15752637307861,-1.5632597837255,343.929461551764
738353.50989063200540840626,-5.14521724092329,-1.5632597837255,343.96638894823
738353.50989072246011346579,-5.15752637307861,-1.5632597837255,343.954079816075
738353.50989081291481852531,-5.15752637307861,-1.58787804803613,343.929461551764
738353.50989090336952358484,-5.15752637307861,-1.58787804803613,343.978698080386
738353.50989099382422864437,-5.13290810876797,-1.52633238725954,343.96638894823
738353.50989108416251838207,-5.15752637307861,-1.57556891588082,343.94177068392
738353.50989117461722344160,-5.13290810876797,-1.61249631234677,343.96638894823
738353.50989126507192850113,-5.13290810876797,-1.58787804803613,343.880225023143
738353.50989135552663356066,-5.14521724092329,-1.57556891588082,343.806370230211
738353.50989144598133862019,-5.14521724092329,-1.55095065157018,343.954079816075
738353.50989153631962835789,-5.14521724092329,-1.55095065157018,343.954079816075
738353.50989162677433341742,-5.14521724092329,-1.55095065157018,343.904843287454
738353.50989171722903847694,-5.14521724092329,-1.57556891588082,343.96638894823
738353.50989180768374353647,-5.13290810876797,-1.57556891588082,343.904843287454
738353.50989189813844859600,-5.14521724092329,-1.55095065157018,343.978698080386
738353.50989198847673833370,-5.14521724092329,-1.58787804803613,343.991007212541
738353.50989207893144339323,-5.14521724092329,-1.55095065157018,343.96638894823
738353.50989216938614845276,-5.14521724092329,-1.55095065157018,343.991007212541
738353.50989225984085351229,-5.13290810876797,-1.5632597837255,343.96638894823
738353.50989235029555857182,-5.13290810876797,-1.60018718019145,344.015625476852
738353.50989244063384830952,-5.14521724092329,-1.64942370881273,343.991007212541
738353.50989253108855336905,-5.14521724092329,-1.57556891588082,343.991007212541
738353.50989262154325842857,-5.14521724092329,-1.5632597837255,343.880225023143
738353.50989271199796348810,-5.14521724092329,-1.51402325510422,343.867915890988
738353.50989280245266854763,-5.13290810876797,-1.53864151941486,343.880225023143
738353.50989289279095828533,-5.12059897661265,-1.57556891588082,343.830988494522
738353.50989298324566334486,-5.13290810876797,-1.55095065157018,343.892534155299
738353.50989307370036840439,-5.13290810876797,-1.5632597837255,343.94177068392
738353.50989316415507346392,-5.13290810876797,-1.60018718019145,343.880225023143
738353.50989325460977852345,-5.13290810876797,-1.5632597837255,343.978698080386
738353.50989334494806826115,-5.14521724092329,-1.63711457665741,344.015625476852
738353.50989343540277332067,-5.12059897661265,-1.5632597837255,343.917152419609
738353.50989352585747838020,-5.13290810876797,-1.5632597837255,343.991007212541
738353.50989361631218343973,-5.13290810876797,-1.58787804803613,343.978698080386
738353.50989370676688849926,-5.13290810876797,-1.57556891588082,343.904843287454
738353.50989379710517823696,-5.12059897661265,-1.61249631234677,343.880225023143
738353.50989388755988329649,-5.10828984445733,-1.58787804803613,343.954079816075
738353.50989397801458835602,-5.12059897661265,-1.60018718019145,343.904843287454
738353.50989406846929341555,-5.10828984445733,-1.5632597837255,343.96638894823
738353.50989415892399847507,-5.09598071230201,-1.52633238725954,343.929461551764
738353.50989424926228821278,-5.08367158014669,-1.57556891588082,343.892534155299
738353.50989433971699327230,-5.08367158014669,-1.52633238725954,343.867915890988
738353.50989443017169833183,-5.08367158014669,-1.52633238725954,343.880225023143
738353.50989452062640339136,-5.09598071230201,-1.52633238725954,343.904843287454
738353.50989461108110845089,-5.10828984445733,-1.53864151941486,343.929461551764
738353.50989470141939818859,-5.13290810876797,-1.60018718019145,343.96638894823
738353.50989479187410324812,-5.15752637307861,-1.62480544450209,343.892534155299
738353.50989488232880830765,-5.13290810876797,-1.62480544450209,343.720206305124
738353.50989497278351336718,-5.14521724092329,-1.60018718019145,343.929461551764
738353.50989506323821842670,-5.15752637307861,-1.63711457665741,343.96638894823
738353.50989515357650816441,-5.14521724092329,-1.63711457665741,343.892534155299
738353.50989524403121322393,-5.14521724092329,-1.62480544450209,343.867915890988
738353.50989533448591828346,-5.15752637307861,-1.63711457665741,343.843297626677
738353.50989542494062334299,-5.13290810876797,-1.61249631234677,343.978698080386
738353.50989551539532840252,-5.15752637307861,-1.64942370881273,343.96638894823
738353.50989560573361814022,-5.15752637307861,-1.74789676605528,343.94177068392
738353.50989569618832319975,-5.18214463738924,-1.82175155898719,344.027934609007
738353.50989578664302825928,-5.05905331583605,-1.48940499079358,344.298735516424
738353.50989587709773331881,-4.84979806919563,-0.984730572425509,344.077171137628
738353.50989596755243837833,-4.49283323669139,-0.233873510951058,343.707897172969
738353.50989605789072811604,-4.71439761548713,-0.233873510951058,343.732515437279
738353.50989614834543317556,-4.9605802585935,-0.923184911648915,343.634042380037
738353.50989623880013823509,-5.00981678721478,-1.23091321553189,343.449405397707
738353.50989632925484329462,-5.14521724092329,-1.51402325510422,343.560187587105
738353.50989641959313303232,-5.10828984445733,-1.5632597837255,343.830988494522
738353.50989651004783809185,-5.09598071230201,-1.55095065157018,343.96638894823
738353.50989660050254315138,-5.08367158014669,-1.60018718019145,343.954079816075
738353.50989669095724821091,-5.10828984445733,-1.60018718019145,343.867915890988
738353.50989678141195327044,-5.10828984445733,-1.57556891588082,343.904843287454
738353.50989687175024300814,-5.09598071230201,-1.63711457665741,343.904843287454
738353.50989696220494806767,-5.08367158014669,-1.60018718019145,343.917152419609
738353.50989705265965312719,-5.09598071230201,-1.61249631234677,343.904843287454
738353.50989714311435818672,-5.09598071230201,-1.63711457665741,343.991007212541
738353.50989723356906324625,-5.08367158014669,-1.62480544450209,344.064862005473
738353.50989732390735298395,-5.07136244799137,-1.57556891588082,343.96638894823
738353.50989741436205804348,-5.07136244799137,-1.58787804803613,343.978698080386
738353.50989750481676310301,-5.05905331583605,-1.57556891588082,343.991007212541
738353.50989759527146816254,-5.05905331583605,-1.60018718019145,344.003316344696
738353.50989768572617322206,-5.04674418368074,-1.58787804803613,343.991007212541
738353.50989777606446295977,-5.04674418368074,-1.57556891588082,344.003316344696
738353.50989786651916801929,-5.04674418368074,-1.57556891588082,344.003316344696
738353.50989795697387307882,-5.03443505152542,-1.5632597837255,343.96638894823
738353.50989804742857813835,-5.0221259193701,-1.51402325510422,344.040243741162
738353.50989813788328319788,-5.00981678721478,-1.48940499079358,344.003316344696
738353.50989822822157293558,-5.0221259193701,-1.51402325510422,344.052552873318
738353.50989831867627799511,-4.98519852290414,-1.45247759432763,344.040243741162
738353.50989840913098305464,-4.98519852290414,-1.44016846217231,343.96638894823
738353.50989849958568811417,-4.97288939074882,-1.40324106570635,344.077171137628
738353.50989859004039317369,-4.9605802585935,-1.39093193355103,344.064862005473
738353.50989868037868291140,-4.94827112643818,-1.3047680084638,344.089480269784
738353.50989877083338797092,-4.92365286212755,-1.24322234768721,344.12640766625
738353.50989886128809303045,-4.92365286212755,-1.24322234768721,344.212571591337
738353.50989895174279808998,-4.91134372997223,-1.23091321553189,344.224880723492
738353.50989904219750314951,-4.87441633350627,-1.14474929044465,344.249498987803
738353.50989913253579288721,-4.88672546566159,-1.13244015828934,344.187953327026
738353.50989922299049794674,-4.88672546566159,-1.15705842259997,344.212571591337
738353.50989931344520300627,-4.88672546566159,-1.26784061199784,344.224880723492
738353.50989940389990806580,-4.92365286212755,-1.31707714061912,344.089480269784
738353.50989949435461312532,-4.94827112643818,-1.45247759432763,344.077171137628
738353.50989958469290286303,-4.99750765505946,-1.48940499079358,344.052552873318
738353.50989967514760792255,-5.0221259193701,-1.5017141229489,343.929461551764
738353.50989976560231298208,-5.03443505152542,-1.63711457665741,343.978698080386
738353.50989985605701804161,-5.04674418368074,-1.66173284096805,343.94177068392
738353.50989994651172310114,-5.03443505152542,-1.62480544450209,343.867915890988
738353.50990003685001283884,-5.04674418368074,-1.64942370881273,343.855606758833
738353.50990012730471789837,-5.04674418368074,-1.67404197312337,343.892534155299
738353.50990021775942295790,-5.05905331583605,-1.64942370881273,343.830988494522
738353.50990030821412801743,-5.05905331583605,-1.66173284096805,343.892534155299
738353.50990039866883307695,-5.05905331583605,-1.66173284096805,343.96638894823
738353.50990048900712281466,-5.04674418368074,-1.7602058982106,343.954079816075
738353.50990057946182787418,-5.05905331583605,-1.67404197312337,343.954079816075
738353.50990066991653293371,-5.04674418368074,-1.71096936958932,343.94177068392
738353.50990076037123799324,-5.04674418368074,-1.64942370881273,343.929461551764
738353.50990085082594305277,-5.04674418368074,-1.67404197312337,343.917152419609
738353.50990094116423279047,-5.05905331583605,-1.71096936958932,343.94177068392
738353.50990103161893785000,-5.05905331583605,-1.71096936958932,343.94177068392
738353.50990112207364290953,-5.04674418368074,-1.698660237434,343.794061098056
738353.50990121252834796906,-5.04674418368074,-1.68635110527868,343.94177068392
738353.50990130298305302858,-5.05905331583605,-1.72327850174464,343.94177068392
738353.50990139332134276628,-5.05905331583605,-1.73558763389996,343.917152419609
738353.50990148377604782581,-5.04674418368074,-1.72327850174464,343.929461551764
738353.50990157423075288534,-5.05905331583605,-1.72327850174464,343.929461551764
738353.50990166468545794487,-5.04674418368074,-1.72327850174464,343.929461551764
738353.50990175514016300440,-5.03443505152542,-1.72327850174464,343.917152419609
738353.50990184547845274210,-5.04674418368074,-1.698660237434,343.892534155299
738353.50990193593315780163,-5.05905331583605,-1.74789676605528,343.781751965901
738353.50990202638786286116,-5.05905331583605,-1.7602058982106,343.917152419609
738353.50990211684256792068,-5.07136244799137,-1.7602058982106,343.880225023143
738353.50990220729727298021,-5.05905331583605,-1.72327850174464,343.904843287454
738353.50990229763556271791,-5.05905331583605,-1.73558763389996,343.904843287454
738353.50990238809026777744,-5.05905331583605,-1.73558763389996,343.855606758833
738353.50990247854497283697,-5.04674418368074,-1.74789676605528,343.892534155299
738353.50990256899967789650,-5.05905331583605,-1.74789676605528,343.904843287454
738353.50990265945438295603,-5.05905331583605,-1.78482416252124,343.843297626677
738353.50990274979267269373,-5.05905331583605,-1.7602058982106,343.904843287454
738353.50990284024737775326,-5.05905331583605,-1.7602058982106,343.892534155299
738353.50990293070208281279,-5.07136244799137,-1.7602058982106,343.880225023143
738353.50990302115678787231,-5.07136244799137,-1.77251503036592,343.880225023143
738353.50990311161149293184,-5.08367158014669,-1.77251503036592,343.904843287454
738353.50990320194978266954,-5.08367158014669,-1.78482416252124,343.904843287454
738353.50990329240448772907,-5.04674418368074,-1.78482416252124,343.867915890988
738353.50990338285919278860,-5.04674418368074,-1.72327850174464,343.904843287454
738353.50990347331389784813,-5.08367158014669,-1.7602058982106,343.904843287454
738353.50990356376860290766,-5.08367158014669,-1.77251503036592,343.855606758833
738353.50990365410689264536,-5.07136244799137,-1.7602058982106,343.843297626677
738353.50990374456159770489,-5.07136244799137,-1.7602058982106,343.867915890988
738353.50990383501630276442,-5.08367158014669,-1.7602058982106,343.880225023143
738353.50990392547100782394,-5.07136244799137,-1.7602058982106,343.843297626677
738353.50990401592571288347,-5.07136244799137,-1.77251503036592,343.904843287454
738353.50990410626400262117,-5.07136244799137,-1.78482416252124,343.904843287454
738353.50990419671870768070,-5.07136244799137,-1.77251503036592,343.830988494522
738353.50990428717341274023,-5.07136244799137,-1.78482416252124,343.880225023143
738353.50990437762811779976,-5.07136244799137,-1.77251503036592,343.855606758833
738353.50990446808282285929,-5.03443505152542,-1.74789676605528,343.929461551764
738353.50990455842111259699,-5.03443505152542,-1.71096936958932,343.818679362367
738353.50990464887581765652,-5.04674418368074,-1.74789676605528,343.867915890988
738353.50990473933052271605,-5.04674418368074,-1.71096936958932,343.94177068392
738353.50990482978522777557,-4.98519852290414,-1.64942370881273,343.917152419609
738353.50990492023993283510,-5.09598071230201,-1.74789676605528,343.855606758833
738353.50990501057822257280,-5.12059897661265,-1.77251503036592,343.929461551764
738353.50990510103292763233,-5.12059897661265,-1.79713329467655,343.991007212541
738353.50990519148763269186,-5.10828984445733,-1.78482416252124,343.892534155299
738353.50990528194233775139,-5.13290810876797,-1.80944242683187,343.867915890988
738353.50990537239704281092,-5.12059897661265,-1.80944242683187,343.954079816075
738353.50990546273533254862,-5.12059897661265,-1.7602058982106,343.781751965901
738353.50990555319003760815,-5.12059897661265,-1.7602058982106,343.830988494522
738353.50990564364474266768,-5.09598071230201,-1.7602058982106,343.855606758833
738353.50990573409944772720,-5.10828984445733,-1.77251503036592,343.843297626677
738353.50990582455415278673,-5.14521724092329,-1.79713329467655,343.830988494522
738353.50990591489244252443,-5.12059897661265,-1.83406069114251,343.880225023143
738353.50990600534714758396,-5.14521724092329,-1.9571520126957,343.954079816075
738353.50990609580185264349,-5.09598071230201,-1.73558763389996,344.261808119958
738353.50990618625655770302,-4.87441633350627,-1.23091321553189,344.089480269784
738353.50990627671126276255,-4.57899716177862,-0.590838343455306,343.720206305124
738353.50990636704955250025,-4.61592455824458,-0.295419171727653,343.732515437279
738353.50990645750425755978,-4.87441633350627,-0.713929665008494,343.609424115726
738353.50990654795896261930,-5.04674418368074,-1.36631366924039,343.424787133396
738353.50990663841366767883,-5.13290810876797,-1.61249631234677,343.744824569435
738353.50990672886837273836,-5.13290810876797,-1.698660237434,343.843297626677
738353.50990681920666247606,-5.10828984445733,-1.72327850174464,343.917152419609
738353.50990690966136753559,-5.10828984445733,-1.698660237434,343.929461551764
738353.50990700011607259512,-5.10828984445733,-1.72327850174464,343.978698080386
738353.50990709057077765465,-5.09598071230201,-1.73558763389996,343.917152419609
738353.50990718090906739235,-5.10828984445733,-1.72327850174464,343.96638894823
738353.50990727136377245188,-5.14521724092329,-1.7602058982106,344.003316344696
738353.50990736181847751141,-5.14521724092329,-1.72327850174464,344.003316344696
738353.50990745227318257093,-5.12059897661265,-1.72327850174464,343.978698080386
738353.50990754272788763046,-5.12059897661265,-1.67404197312337,343.978698080386
738353.50990763306617736816,-5.13290810876797,-1.698660237434,344.015625476852
738353.50990772352088242769,-5.12059897661265,-1.698660237434,343.991007212541
738353.50990781397558748722,-5.09598071230201,-1.61249631234677,344.015625476852
738353.50990790443029254675,-5.13290810876797,-1.63711457665741,344.027934609007
738353.50990799488499760628,-5.10828984445733,-1.62480544450209,344.052552873318
738353.50990808522328734398,-5.13290810876797,-1.61249631234677,344.052552873318
738353.50990817567799240351,-5.08367158014669,-1.55095065157018,344.138716798405
738353.50990826613269746304,-5.09598071230201,-1.5632597837255,344.114098534094
738353.50990835658740252256,-5.09598071230201,-1.5632597837255,344.163335062716
738353.50990844704210758209,-5.10828984445733,-1.52633238725954,344.175644194871
738353.50990853738039731979,-5.09598071230201,-1.5017141229489,344.212571591337
738353.50990862783510237932,-5.04674418368074,-1.44016846217231,344.261808119958
738353.50990871828980743885,-5.05905331583605,-1.37862280139571,344.237189855647
738353.50990880874451249838,-4.99750765505946,-1.31707714061912,344.224880723492
738353.50990889919921755791,-5.05905331583605,-1.29245887630848,344.064862005473
738353.50990898953750729561,-4.99750765505946,-1.24322234768721,344.15102593056
738353.50990907999221235514,-5.05905331583605,-1.26784061199784,344.286426384269
738353.50990917044691741467,-5.0221259193701,-1.20629495122125,344.311044648579
738353.50990926090162247419,-5.00981678721478,-1.1078218939787,344.323353780735
738353.50990935135632753372,-4.99750765505946,-1.09551276182338,344.33566291289
738353.50990944169461727142,-4.99750765505946,-1.08320362966806,344.360281177201
738353.50990953214932233095,-5.0221259193701,-1.12013102613402,344.372590309356
738353.50990962260402739048,-5.04674418368074,-1.19398581906593,344.397208573667
738353.50990971305873245001,-5.0221259193701,-1.21860408337657,344.323353780735
738353.50990980351343750954,-5.08367158014669,-1.32938627277444,344.212571591337
738353.50990989385172724724,-5.16983550523392,-1.39093193355103,344.261808119958
738353.50990998430643230677,-5.14521724092329,-1.44016846217231,344.224880723492
738353.50991007476113736629,-5.20676290169988,-1.47709585863826,344.224880723492
738353.50991016521584242582,-5.19445376954456,-1.5017141229489,344.175644194871
738353.50991025567054748535,-5.23138116601052,-1.51402325510422,344.200262459181
738353.50991034600883722305,-5.20676290169988,-1.5017141229489,344.200262459181
738353.50991043646354228258,-5.20676290169988,-1.5017141229489,344.249498987803
738353.50991052691824734211,-5.2190720338552,-1.5017141229489,344.224880723492
738353.50991061737295240164,-5.23138116601052,-1.48940499079358,344.200262459181
738353.50991070782765746117,-5.24369029816584,-1.52633238725954,344.077171137628
738353.50991079816594719887,-5.25599943032116,-1.51402325510422,344.187953327026
738353.50991088862065225840,-5.24369029816584,-1.5017141229489,344.224880723492
738353.50991097907535731792,-5.23138116601052,-1.48940499079358,344.237189855647
738353.50991106953006237745,-5.24369029816584,-1.47709585863826,344.187953327026
738353.50991115998476743698,-5.24369029816584,-1.48940499079358,344.261808119958
738353.50991125032305717468,-5.25599943032116,-1.5017141229489,344.298735516424
738353.50991134077776223421,-5.29292682678711,-1.52633238725954,344.175644194871
738353.50991143123246729374,-5.29292682678711,-1.5017141229489,344.261808119958
738353.50991152168717235327,-5.29292682678711,-1.5017141229489,344.274117252113
738353.50991161214187741280,-5.30523595894243,-1.5017141229489,344.261808119958
738353.50991170248016715050,-5.29292682678711,-1.52633238725954,344.249498987803
738353.50991179293487221003,-5.30523595894243,-1.48940499079358,344.311044648579
738353.50991188338957726955,-5.30523595894243,-1.5017141229489,344.323353780735
738353.50991197384428232908,-5.30523595894243,-1.48940499079358,344.237189855647
738353.50991206429898738861,-5.32985422325307,-1.5017141229489,344.311044648579
738353.50991215463727712631,-5.34216335540839,-1.5017141229489,344.33566291289
738353.50991224509198218584,-5.32985422325307,-1.47709585863826,344.237189855647
738353.50991233554668724537,-5.35447248756371,-1.48940499079358,344.323353780735
738353.50991242600139230490,-5.36678161971903,-1.51402325510422,344.114098534094
738353.50991251645609736443,-5.35447248756371,-1.5017141229489,344.249498987803
738353.50991260679438710213,-5.35447248756371,-1.51402325510422,344.187953327026
738353.50991269724909216166,-5.36678161971903,-1.5017141229489,344.286426384269
738353.50991278770379722118,-5.39139988402966,-1.48940499079358,344.311044648579
738353.50991287815850228071,-5.39139988402966,-1.48940499079358,344.360281177201
738353.50991296861320734024,-5.39139988402966,-1.51402325510422,344.249498987803
738353.50991305895149707794,-5.40370901618498,-1.48940499079358,344.360281177201
738353.50991314940620213747,-5.40370901618498,-1.48940499079358,344.33566291289
738353.50991323986090719700,-5.40370901618498,-1.51402325510422,344.261808119958
738353.50991333031561225653,-5.39139988402966,-1.47709585863826,344.311044648579
738353.50991342077031731606,-5.39139988402966,-1.46478672648295,344.323353780735
738353.50991351110860705376,-5.42832728049562,-1.47709585863826,344.286426384269
738353.50991360156331211329,-5.40370901618498,-1.48940499079358,344.200262459181
738353.50991369201801717281,-5.4160181483403,-1.48940499079358,344.249498987803
738353.50991378247272223234,-5.42832728049562,-1.47709585863826,344.237189855647
738353.50991387292742729187,-5.45294554480626,-1.5017141229489,344.237189855647
738353.50991396326571702957,-5.44063641265094,-1.48940499079358,344.274117252113
738353.50991405372042208910,-5.44063641265094,-1.46478672648295,344.33566291289
738353.50991414417512714863,-5.45294554480626,-1.46478672648295,344.311044648579
738353.50991423462983220816,-5.40370901618498,-1.45247759432763,344.311044648579
738353.50991432508453726768,-5.45294554480626,-1.46478672648295,344.311044648579
738353.50991441542282700539,-5.4775638091169,-1.46478672648295,344.323353780735
738353.50991450587753206491,-5.44063641265094,-1.42785933001699,344.298735516424
738353.50991459633223712444,-5.4775638091169,-1.47709585863826,344.323353780735
738353.50991468678694218397,-5.48987294127221,-1.46478672648295,344.33566291289
738353.50991477724164724350,-5.46525467696158,-1.44016846217231,344.311044648579
738353.50991486757993698120,-5.45294554480626,-1.46478672648295,344.298735516424
738353.50991495803464204073,-5.46525467696158,-1.45247759432763,344.347972045045
738353.50991504848934710026,-5.46525467696158,-1.44016846217231,344.347972045045
738353.50991513894405215979,-5.46525467696158,-1.45247759432763,344.274117252113
738353.50991522939875721931,-5.46525467696158,-1.42785933001699,344.360281177201
738353.50991531973704695702,-5.46525467696158,-1.44016846217231,344.372590309356
738353.50991541019175201654,-5.40370901618498,-1.39093193355103,344.274117252113
738353.50991550064645707607,-5.4775638091169,-1.41555019786167,344.347972045045
738353.50991559110116213560,-5.45294554480626,-1.41555019786167,344.33566291289
738353.50991568155586719513,-5.42832728049562,-1.40324106570635,344.323353780735
738353.50991577189415693283,-5.42832728049562,-1.34169540492976,344.261808119958
738353.50991586234886199236,-5.45294554480626,-1.35400453708508,344.311044648579
738353.50991595280356705189,-5.46525467696158,-1.39093193355103,344.138716798405
738353.50991604325827211142,-5.48987294127221,-1.40324106570635,344.187953327026
738353.50991613371297717094,-5.50218207342753,-1.44016846217231,344.323353780735
738353.50991622405126690865,-5.51449120558285,-1.42785933001699,344.33566291289
738353.50991631450597196817,-5.48987294127221,-1.40324106570635,344.33566291289
738353.50991640496067702770,-5.50218207342753,-1.41555019786167,344.249498987803
738353.50991649541538208723,-5.51449120558285,-1.42785933001699,344.347972045045
738353.50991658587008714676,-5.48987294127221,-1.41555019786167,344.360281177201
738353.50991667620837688446,-5.51449120558285,-1.44016846217231,344.323353780735
738353.50991676666308194399,-5.51449120558285,-1.40324106570635,344.323353780735
738353.50991685711778700352,-5.52680033773817,-1.42785933001699,344.311044648579
738353.50991694757249206305,-5.51449120558285,-1.45247759432763,344.347972045045
738353.50991703802719712257,-5.53910946989349,-1.57556891588082,344.372590309356
738353.50991712836548686028,-5.50218207342753,-1.44016846217231,344.532609027375
738353.50991721882019191980,-5.37909075187434,-1.05858536535742,344.606463820307
738353.50991730927489697933,-4.9605802585935,-0.332346568193609,344.12640766625
738353.50991739972960203886,-4.93596199428287,0.0861639250872321,344.040243741162
738353.50991749018430709839,-5.26830856247648,-0.295419171727653,344.015625476852
738353.50991758052259683609,-5.4160181483403,-0.947803175959553,343.904843287454
738353.50991767097730189562,-5.51449120558285,-1.3047680084638,344.138716798405
738353.50991776143200695515,-5.48987294127221,-1.3047680084638,344.224880723492
738353.50991785188671201468,-5.46525467696158,-1.29245887630848,344.384899441511
738353.50991794222500175238,-5.50218207342753,-1.34169540492976,344.397208573667
738353.50991803267970681190,-5.48987294127221,-1.34169540492976,344.421826837977
738353.50991812313441187143,-5.4775638091169,-1.32938627277444,344.347972045045
738353.50991821358911693096,-5.48987294127221,-1.32938627277444,344.397208573667
738353.50991830404382199049,-5.48987294127221,-1.36631366924039,344.458754234443
738353.50991839438211172819,-5.45294554480626,-1.32938627277444,344.347972045045
738353.50991848483681678772,-5.48987294127221,-1.37862280139571,344.434135970133
738353.50991857529152184725,-5.48987294127221,-1.35400453708508,344.434135970133
738353.50991866574622690678,-5.48987294127221,-1.34169540492976,344.409517705822
738353.50991875620093196630,-5.46525467696158,-1.32938627277444,344.397208573667
738353.50991884653922170401,-5.4775638091169,-1.31707714061912,344.434135970133
738353.50991893699392676353,-5.4775638091169,-1.32938627277444,344.458754234443
738353.50991902744863182306,-5.46525467696158,-1.3047680084638,344.323353780735
738353.50991911790333688259,-5.45294554480626,-1.3047680084638,344.471063366599
738353.50991920835804194212,-5.45294554480626,-1.29245887630848,344.471063366599
738353.50991929869633167982,-5.45294554480626,-1.29245887630848,344.458754234443
738353.50991938915103673935,-5.42832728049562,-1.28014974415316,344.471063366599
738353.50991947960574179888,-5.4160181483403,-1.23091321553189,344.323353780735
738353.50991957006044685841,-5.42832728049562,-1.23091321553189,344.372590309356
738353.50991966051515191793,-5.4160181483403,-1.20629495122125,344.471063366599
738353.50991975085344165564,-5.37909075187434,-1.14474929044465,344.471063366599
738353.50991984130814671516,-5.37909075187434,-1.12013102613402,344.52029989522
738353.50991993176285177469,-5.36678161971903,-1.09551276182338,344.52029989522
738353.50992002221755683422,-5.34216335540839,-1.05858536535742,344.557227291686
738353.50992011267226189375,-5.32985422325307,-1.02165796889147,344.618772952462
738353.50992020301055163145,-5.31754509109775,-0.972421440270191,344.581845555996
738353.50992029346525669098,-5.28061769463179,-0.910875779493596,344.594154688152
738353.50992038391996175051,-5.29292682678711,-0.910875779493596,344.618772952462
738353.50992047437466681004,-5.26830856247648,-0.849330118717002,344.643391216773
738353.50992056482937186956,-5.26830856247648,-0.87394838302764,344.668009481084
738353.50992065516766160727,-5.28061769463179,-0.898566647338277,344.532609027375
738353.50992074562236666679,-5.30523595894243,-0.984730572425509,344.54491815953
738353.50992083607707172632,-5.34216335540839,-1.08320362966806,344.507990763064
738353.50992092653177678585,-5.36678161971903,-1.14474929044465,344.409517705822
738353.50992101698648184538,-5.39139988402966,-1.23091321553189,344.458754234443
738353.50992110732477158308,-5.4160181483403,-1.26784061199784,344.409517705822
738353.50992119777947664261,-5.42832728049562,-1.31707714061912,344.434135970133
738353.50992128823418170214,-5.44063641265094,-1.31707714061912,344.409517705822
738353.50992137868888676167,-5.42832728049562,-1.34169540492976,344.384899441511
738353.50992146914359182119,-5.42832728049562,-1.32938627277444,344.434135970133
738353.50992155948188155890,-5.42832728049562,-1.34169540492976,344.397208573667
738353.50992164993658661842,-5.44063641265094,-1.35400453708508,344.33566291289
738353.50992174039129167795,-5.42832728049562,-1.35400453708508,344.33566291289
738353.50992183084599673748,-5.4160181483403,-1.35400453708508,344.421826837977
738353.50992192130070179701,-5.42832728049562,-1.35400453708508,344.446445102288
738353.50992201163899153471,-5.42832728049562,-1.34169540492976,344.323353780735
738353.50992210209369659424,-5.4160181483403,-1.34169540492976,344.33566291289
738353.50992219254840165377,-5.40370901618498,-1.35400453708508,344.458754234443
738353.50992228300310671329,-5.40370901618498,-1.35400453708508,344.421826837977
738353.50992237345781177282,-5.40370901618498,-1.37862280139571,344.347972045045
738353.50992246379610151052,-5.40370901618498,-1.35400453708508,344.434135970133
738353.50992255425080657005,-5.40370901618498,-1.36631366924039,344.421826837977
738353.50992264470551162958,-5.39139988402966,-1.35400453708508,344.347972045045
738353.50992273516021668911,-5.40370901618498,-1.36631366924039,344.311044648579
738353.50992282561492174864,-5.37909075187434,-1.37862280139571,344.397208573667
738353.50992291595321148634,-5.39139988402966,-1.36631366924039,344.397208573667
738353.50992300640791654587,-5.37909075187434,-1.35400453708508,344.15102593056
738353.50992309686262160540,-5.37909075187434,-1.36631366924039,344.274117252113
738353.50992318731732666492,-5.37909075187434,-1.39093193355103,344.286426384269
738353.50992327777203172445,-5.37909075187434,-1.37862280139571,344.249498987803
738353.50992336811032146215,-5.36678161971903,-1.39093193355103,344.286426384269
738353.50992345856502652168,-5.37909075187434,-1.39093193355103,344.274117252113
738353.50992354901973158121,-5.36678161971903,-1.36631366924039,344.274117252113
738353.50992363947443664074,-5.35447248756371,-1.35400453708508,344.237189855647
738353.50992372992914170027,-5.36678161971903,-1.39093193355103,344.33566291289
738353.50992382026743143797,-5.35447248756371,-1.41555019786167,344.261808119958
738353.50992391072213649750,-5.35447248756371,-1.37862280139571,344.298735516424
738353.50992400117684155703,-5.35447248756371,-1.41555019786167,344.286426384269
738353.50992409163154661655,-5.35447248756371,-1.40324106570635,344.274117252113
738353.50992418208625167608,-5.34216335540839,-1.40324106570635,344.274117252113
738353.50992427242454141378,-5.34216335540839,-1.41555019786167,344.286426384269
738353.50992436287924647331,-5.34216335540839,-1.41555019786167,344.298735516424
738353.50992445333395153284,-5.34216335540839,-1.42785933001699,344.347972045045
738353.50992454378865659237,-5.34216335540839,-1.42785933001699,344.347972045045
738353.50992463424336165190,-5.34216335540839,-1.44016846217231,344.212571591337
738353.50992472458165138960,-5.32985422325307,-1.42785933001699,344.311044648579
738353.50992481503635644913,-5.34216335540839,-1.45247759432763,344.347972045045
738353.50992490549106150866,-5.32985422325307,-1.42785933001699,344.311044648579
738353.50992499594576656818,-5.34216335540839,-1.44016846217231,344.274117252113
738353.50992508640047162771,-5.32985422325307,-1.44016846217231,344.212571591337
738353.50992517673876136541,-5.32985422325307,-1.42785933001699,344.237189855647
738353.50992526719346642494,-5.32985422325307,-1.42785933001699,344.286426384269
738353.50992535764817148447,-5.32985422325307,-1.44016846217231,344.323353780735
738353.50992544810287654400,-5.31754509109775,-1.44016846217231,344.311044648579
738353.50992553855758160353,-5.31754509109775,-1.44016846217231,344.323353780735
738353.50992562889587134123,-5.31754509109775,-1.44016846217231,344.33566291289
738353.50992571935057640076,-5.30523595894243,-1.44016846217231,344.224880723492
738353.50992580980528146029,-5.31754509109775,-1.44016846217231,344.138716798405
738353.50992590025998651981,-5.30523595894243,-1.45247759432763,344.212571591337
738353.50992599071469157934,-5.30523595894243,-1.45247759432763,344.261808119958
738353.50992608105298131704,-5.29292682678711,-1.45247759432763,344.286426384269
738353.50992617150768637657,-5.28061769463179,-1.45247759432763,344.323353780735
738353.50992626196239143610,-5.28061769463179,-1.46478672648295,344.237189855647
738353.50992635241709649563,-5.28061769463179,-1.46478672648295,344.286426384269
738353.50992644287180155516,-5.25599943032116,-1.42785933001699,344.298735516424
738353.50992653321009129286,-5.25599943032116,-1.44016846217231,343.991007212541
738353.50992662366479635239,-5.23138116601052,-1.42785933001699,344.114098534094
738353.50992671411950141191,-5.23138116601052,-1.39093193355103,344.261808119958
738353.50992680457420647144,-5.24369029816584,-1.39093193355103,344.200262459181
738353.50992689502891153097,-5.25599943032116,-1.39093193355103,344.15102593056
738353.50992698536720126867,-5.28061769463179,-1.42785933001699,344.12640766625
738353.50992707582190632820,-5.29292682678711,-1.48940499079358,344.12640766625
738353.50992716627661138773,-5.29292682678711,-1.47709585863826,344.089480269784
738353.50992725673131644726,-5.30523595894243,-1.46478672648295,344.12640766625
738353.50992734718602150679,-5.28061769463179,-1.47709585863826,344.163335062716
738353.50992743752431124449,-5.30523595894243,-1.48940499079358,344.175644194871
738353.50992752797901630402,-5.28061769463179,-1.46478672648295,344.187953327026
738353.50992761843372136354,-5.29292682678711,-1.47709585863826,344.138716798405
738353.50992770888842642307,-5.28061769463179,-1.47709585863826,344.114098534094
738353.50992779934313148260,-5.26830856247648,-1.46478672648295,344.187953327026
738353.50992788968142122030,-5.30523595894243,-1.5632597837255,344.114098534094
738353.50992798013612627983,-5.31754509109775,-1.67404197312337,344.274117252113
738353.50992807059083133936,-5.19445376954456,-1.40324106570635,344.495681630909
738353.50992816104553639889,-4.99750765505946,-0.947803175959553,344.261808119958
738353.50992825150024145842,-4.66516108686585,-0.295419171727653,343.855606758833
738353.50992834183853119612,-4.72670674764244,0.0861639250872321,343.880225023143
738353.50992843229323625565,-5.04674418368074,-0.270800907417015,343.867915890988
738353.50992852274794131517,-5.24369029816584,-1.00934883673615,343.818679362367
738353.50992861320264637470,-5.28061769463179,-1.29245887630848,344.077171137628
738353.50992870354093611240,-5.24369029816584,-1.35400453708508,344.200262459181
738353.50992879399564117193,-5.25599943032116,-1.39093193355103,344.114098534094
738353.50992888445034623146,-5.25599943032116,-1.44016846217231,344.175644194871
738353.50992897490505129099,-5.26830856247648,-1.45247759432763,344.200262459181
738353.50992906535975635052,-5.28061769463179,-1.46478672648295,344.163335062716
738353.50992915569804608822,-5.26830856247648,-1.46478672648295,344.224880723492
738353.50992924615275114775,-5.26830856247648,-1.46478672648295,344.163335062716
738353.50992933660745620728,-5.28061769463179,-1.45247759432763,344.175644194871
738353.50992942706216126680,-5.28061769463179,-1.46478672648295,344.237189855647
738353.50992951751686632633,-5.25599943032116,-1.45247759432763,344.249498987803
738353.50992960785515606403,-5.26830856247648,-1.45247759432763,344.200262459181
738353.50992969830986112356,-5.26830856247648,-1.46478672648295,344.200262459181
738353.50992978876456618309,-5.26830856247648,-1.42785933001699,344.212571591337
738353.50992987921927124262,-5.25599943032116,-1.42785933001699,344.311044648579
738353.50992996967397630215,-5.26830856247648,-1.41555019786167,344.298735516424
738353.50993006001226603985,-5.26830856247648,-1.41555019786167,344.089480269784
738353.50993015046697109938,-5.25599943032116,-1.41555019786167,344.163335062716
738353.50993024092167615891,-5.28061769463179,-1.41555019786167,344.298735516424
738353.50993033137638121843,-5.24369029816584,-1.37862280139571,344.360281177201
738353.50993042183108627796,-5.25599943032116,-1.35400453708508,344.360281177201
738353.50993051216937601566,-5.23138116601052,-1.32938627277444,344.33566291289
738353.50993060262408107519,-5.23138116601052,-1.3047680084638,344.421826837977
738353.50993069307878613472,-5.23138116601052,-1.25553147984252,344.483372498754
738353.50993078353349119425,-5.20676290169988,-1.21860408337657,344.471063366599
738353.50993087398819625378,-5.19445376954456,-1.19398581906593,344.495681630909
738353.50993096432648599148,-5.18214463738924,-1.13244015828934,344.52029989522
738353.50993105478119105101,-5.16983550523392,-1.09551276182338,344.532609027375
738353.50993114523589611053,-5.15752637307861,-1.03396710104678,344.581845555996
738353.50993123569060117006,-5.14521724092329,-0.997039704580828,344.532609027375
738353.50993132614530622959,-5.13290810876797,-0.984730572425509,344.569536423841
738353.50993141648359596729,-5.13290810876797,-0.935494043804234,344.557227291686
738353.50993150693830102682,-5.13290810876797,-0.960112308114872,344.495681630909
738353.50993159739300608635,-5.15752637307861,-1.00934883673615,344.384899441511
738353.50993168784771114588,-5.19445376954456,-1.09551276182338,344.372590309356
738353.50993177830241620541,-5.23138116601052,-1.19398581906593,344.33566291289
738353.50993186864070594311,-5.26830856247648,-1.26784061199784,344.274117252113
738353.50993195909541100264,-5.30523595894243,-1.32938627277444,344.311044648579
738353.50993204955011606216,-5.31754509109775,-1.36631366924039,344.212571591337
738353.50993214000482112169,-5.34216335540839,-1.40324106570635,344.249498987803
738353.50993223045952618122,-5.35447248756371,-1.41555019786167,344.163335062716
738353.50993232079781591892,-5.37909075187434,-1.45247759432763,344.212571591337
738353.50993241125252097845,-5.37909075187434,-1.44016846217231,344.200262459181
738353.50993250170722603798,-5.39139988402966,-1.44016846217231,344.200262459181
738353.50993259216193109751,-5.40370901618498,-1.44016846217231,344.212571591337
738353.50993268261663615704,-5.39139988402966,-1.46478672648295,344.200262459181
738353.50993277295492589474,-5.40370901618498,-1.45247759432763,344.200262459181
738353.50993286340963095427,-5.40370901618498,-1.44016846217231,344.274117252113
738353.50993295386433601379,-5.4160181483403,-1.46478672648295,344.200262459181
738353.50993304431904107332,-5.4160181483403,-1.46478672648295,344.323353780735
738353.50993313477374613285,-5.4160181483403,-1.44016846217231,344.311044648579
738353.50993322511203587055,-5.42832728049562,-1.45247759432763,344.212571591337
738353.50993331556674093008,-5.42832728049562,-1.46478672648295,344.298735516424
738353.50993340602144598961,-5.42832728049562,-1.45247759432763,344.311044648579
738353.50993349647615104914,-5.44063641265094,-1.46478672648295,344.249498987803
738353.50993358693085610867,-5.45294554480626,-1.45247759432763,344.175644194871
738353.50993367726914584637,-5.45294554480626,-1.47709585863826,344.040243741162
738353.50993376772385090590,-5.46525467696158,-1.45247759432763,344.274117252113
738353.50993385817855596542,-5.46525467696158,-1.48940499079358,344.286426384269
738353.50993394863326102495,-5.4775638091169,-1.46478672648295,344.261808119958
738353.50993403908796608448,-5.46525467696158,-1.46478672648295,344.274117252113
738353.50993412942625582218,-5.4775638091169,-1.46478672648295,344.274117252113
738353.50993421988096088171,-5.48987294127221,-1.47709585863826,344.274117252113
738353.50993431033566594124,-5.4775638091169,-1.46478672648295,344.274117252113
738353.50993440079037100077,-5.50218207342753,-1.48940499079358,344.261808119958
738353.50993449124507606030,-5.48987294127221,-1.47709585863826,344.274117252113
738353.50993458158336579800,-5.50218207342753,-1.47709585863826,344.323353780735
738353.50993467203807085752,-5.48987294127221,-1.46478672648295,344.360281177201
738353.50993476249277591705,-5.50218207342753,-1.47709585863826,344.311044648579
738353.50993485294748097658,-5.50218207342753,-1.47709585863826,344.360281177201
738353.50993494340218603611,-5.50218207342753,-1.48940499079358,344.311044648579
738353.50993503374047577381,-5.51449120558285,-1.47709585863826,344.274117252113
738353.50993512419518083334,-5.51449120558285,-1.47709585863826,344.323353780735
738353.50993521464988589287,-5.51449120558285,-1.48940499079358,344.347972045045
738353.50993530510459095240,-5.52680033773817,-1.5017141229489,344.249498987803
738353.50993539555929601192,-5.51449120558285,-1.48940499079358,344.33566291289
738353.50993548589758574963,-5.52680033773817,-1.47709585863826,344.323353780735
738353.50993557635229080915,-5.52680033773817,-1.48940499079358,344.347972045045
738353.50993566680699586868,-5.52680033773817,-1.51402325510422,344.274117252113
738353.50993575726170092821,-5.52680033773817,-1.48940499079358,344.249498987803
738353.50993584771640598774,-5.52680033773817,-1.5017141229489,344.224880723492
738353.50993593805469572544,-5.51449120558285,-1.48940499079358,344.249498987803
738353.50993602850940078497,-5.52680033773817,-1.48940499079358,344.224880723492
738353.50993611896410584450,-5.53910946989349,-1.5017141229489,344.200262459181
738353.50993620941881090403,-5.50218207342753,-1.47709585863826,344.249498987803
738353.50993629987351596355,-5.51449120558285,-1.47709585863826,344.274117252113
738353.50993639021180570126,-5.53910946989349,-1.51402325510422,344.323353780735
738353.50993648066651076078,-5.51449120558285,-1.47709585863826,344.249498987803
738353.50993657112121582031,-5.51449120558285,-1.48940499079358,344.274117252113
738353.50993666157592087984,-5.50218207342753,-1.5017141229489,344.274117252113
738353.50993675203062593937,-5.51449120558285,-1.48940499079358,344.298735516424
738353.50993684236891567707,-5.4775638091169,-1.45247759432763,344.323353780735
738353.50993693282362073660,-5.46525467696158,-1.45247759432763,344.261808119958
738353.50993702327832579613,-5.4775638091169,-1.44016846217231,344.323353780735
738353.50993711373303085566,-5.4775638091169,-1.42785933001699,344.200262459181
738353.50993720418773591518,-5.4775638091169,-1.42785933001699,344.187953327026
738353.50993729452602565289,-5.52680033773817,-1.46478672648295,344.298735516424
738353.50993738498073071241,-5.52680033773817,-1.51402325510422,344.311044648579
738353.50993747543543577194,-5.52680033773817,-1.51402325510422,344.323353780735
738353.50993756589014083147,-5.53910946989349,-1.52633238725954,344.33566291289
738353.50993765634484589100,-5.52680033773817,-1.51402325510422,344.372590309356
738353.50993774668313562870,-5.53910946989349,-1.51402325510422,344.33566291289
738353.50993783713784068823,-5.52680033773817,-1.52633238725954,344.360281177201
738353.50993792759254574776,-5.53910946989349,-1.53864151941486,344.249498987803
738353.50993801804725080729,-5.51449120558285,-1.52633238725954,344.323353780735
738353.50993810850195586681,-5.51449120558285,-1.51402325510422,344.298735516424
738353.50993819884024560452,-5.52680033773817,-1.55095065157018,344.323353780735
738353.50993828929495066404,-5.53910946989349,-1.71096936958932,344.33566291289
738353.50993837974965572357,-5.4775638091169,-1.5632597837255,344.606463820307
738353.50993847020436078310,-5.31754509109775,-1.19398581906593,344.606463820307
738353.50993856065906584263,-5.00981678721478,-0.578529211299987,344.089480269784
738353.50993865099735558033,-4.84979806919563,-0.0369273964659566,344.003316344696
738353.50993874145206063986,-5.2190720338552,-0.172327850174464,344.089480269784
738353.50993883190676569939,-5.4160181483403,-0.837020986561683,343.991007212541
738353.50993892236147075891,-5.48987294127221,-1.26784061199784,344.15102593056
738353.50993901269976049662,-5.45294554480626,-1.35400453708508,344.347972045045
738353.50993910315446555614,-5.46525467696158,-1.44016846217231,344.384899441511
738353.50993919360917061567,-5.46525467696158,-1.46478672648295,344.397208573667
738353.50993928406387567520,-5.46525467696158,-1.48940499079358,344.33566291289
738353.50993937451858073473,-5.46525467696158,-1.48940499079358,344.409517705822
738353.50993946485687047243,-5.44063641265094,-1.47709585863826,344.409517705822
738353.50993955531157553196,-5.46525467696158,-1.5017141229489,344.33566291289
738353.50993964576628059149,-5.45294554480626,-1.5017141229489,344.446445102288
738353.50993973622098565102,-5.44063641265094,-1.47709585863826,344.434135970133
738353.50993982667569071054,-5.45294554480626,-1.51402325510422,344.397208573667
738353.50993991701398044825,-5.46525467696158,-1.5017141229489,344.33566291289
738353.50994000746868550777,-5.44063641265094,-1.48940499079358,344.360281177201
738353.50994009792339056730,-5.42832728049562,-1.46478672648295,344.347972045045
738353.50994018837809562683,-5.44063641265094,-1.48940499079358,344.311044648579
738353.50994027883280068636,-5.42832728049562,-1.47709585863826,344.384899441511
738353.50994036917109042406,-5.4160181483403,-1.45247759432763,344.458754234443
738353.50994045962579548359,-5.4160181483403,-1.44016846217231,344.495681630909
738353.50994055008050054312,-5.39139988402966,-1.42785933001699,344.471063366599
738353.50994064053520560265,-5.39139988402966,-1.41555019786167,344.434135970133
738353.50994073098991066217,-5.36678161971903,-1.39093193355103,344.372590309356
738353.50994082132820039988,-5.35447248756371,-1.36631366924039,344.495681630909
738353.50994091178290545940,-5.35447248756371,-1.35400453708508,344.606463820307
738353.50994100223761051893,-5.32985422325307,-1.3047680084638,344.569536423841
738353.50994109269231557846,-5.30523595894243,-1.26784061199784,344.446445102288
738353.50994118314702063799,-5.28061769463179,-1.21860408337657,344.618772952462
738353.50994127348531037569,-5.26830856247648,-1.18167668691061,344.668009481084
738353.50994136394001543522,-5.24369029816584,-1.12013102613402,344.692627745394
738353.50994145439472049475,-5.2190720338552,-1.08320362966806,344.680318613239
738353.50994154484942555428,-5.18214463738924,-1.02165796889147,344.692627745394
738353.50994163530413061380,-5.19445376954456,-0.997039704580828,344.643391216773
738353.50994172564242035151,-5.18214463738924,-0.997039704580828,344.618772952462
738353.50994181609712541103,-5.16983550523392,-0.997039704580828,344.594154688152
738353.50994190655183047056,-5.18214463738924,-1.05858536535742,344.54491815953
738353.50994199700653553009,-5.19445376954456,-1.13244015828934,344.495681630909
738353.50994208746124058962,-5.24369029816584,-1.23091321553189,344.495681630909
738353.50994217779953032732,-5.25599943032116,-1.28014974415316,344.458754234443
738353.50994226825423538685,-5.29292682678711,-1.32938627277444,344.409517705822
738353.50994235870894044638,-5.31754509109775,-1.40324106570635,344.397208573667
738353.50994244916364550591,-5.31754509109775,-1.42785933001699,344.372590309356
738353.50994253961835056543,-5.32985422325307,-1.45247759432763,344.372590309356
738353.50994262995664030313,-5.34216335540839,-1.46478672648295,344.421826837977
738353.50994272041134536266,-5.32985422325307,-1.46478672648295,344.421826837977
738353.50994281086605042219,-5.32985422325307,-1.46478672648295,344.298735516424
738353.50994290132075548172,-5.30523595894243,-1.46478672648295,344.33566291289
738353.50994299177546054125,-5.31754509109775,-1.46478672648295,344.33566291289
738353.50994308211375027895,-5.31754509109775,-1.48940499079358,344.397208573667
738353.50994317256845533848,-5.30523595894243,-1.48940499079358,344.397208573667
738353.50994326302316039801,-5.31754509109775,-1.48940499079358,344.311044648579
738353.50994335347786545753,-5.30523595894243,-1.48940499079358,344.33566291289
738353.50994344393257051706,-5.31754509109775,-1.5017141229489,344.274117252113
738353.50994353427086025476,-5.28061769463179,-1.46478672648295,344.237189855647
738353.50994362472556531429,-5.28061769463179,-1.47709585863826,344.249498987803
738353.50994371518027037382,-5.28061769463179,-1.48940499079358,344.274117252113
738353.50994380563497543335,-5.28061769463179,-1.47709585863826,344.298735516424
738353.50994389608968049288,-5.28061769463179,-1.48940499079358,344.286426384269
738353.50994398642797023058,-5.25599943032116,-1.46478672648295,344.372590309356
738353.50994407688267529011,-5.28061769463179,-1.48940499079358,344.372590309356
738353.50994416733738034964,-5.28061769463179,-1.5017141229489,344.224880723492
738353.50994425779208540916,-5.24369029816584,-1.5017141229489,344.200262459181
738353.50994434824679046869,-5.26830856247648,-1.5017141229489,344.372590309356
738353.50994443858508020639,-5.26830856247648,-1.5017141229489,344.323353780735
738353.50994452903978526592,-5.25599943032116,-1.5017141229489,344.360281177201
738353.50994461949449032545,-5.24369029816584,-1.5017141229489,344.397208573667
738353.50994470994919538498,-5.24369029816584,-1.51402325510422,344.372590309356
738353.50994480040390044451,-5.23138116601052,-1.5017141229489,344.33566291289
738353.50994489074219018221,-5.23138116601052,-1.5017141229489,344.360281177201
738353.50994498119689524174,-5.23138116601052,-1.51402325510422,344.360281177201
738353.50994507165160030127,-5.20676290169988,-1.5017141229489,344.261808119958
738353.50994516210630536079,-5.20676290169988,-1.5017141229489,344.249498987803
738353.50994525256101042032,-5.2190720338552,-1.51402325510422,344.249498987803
738353.50994534289930015802,-5.19445376954456,-1.47709585863826,344.311044648579
738353.50994543335400521755,-5.18214463738924,-1.51402325510422,344.237189855647
738353.50994552380871027708,-5.20676290169988,-1.55095065157018,344.274117252113
738353.50994561426341533661,-5.19445376954456,-1.51402325510422,344.212571591337
738353.50994570471812039614,-5.19445376954456,-1.5017141229489,344.323353780735
738353.50994579505641013384,-5.18214463738924,-1.51402325510422,344.323353780735
738353.50994588551111519337,-5.19445376954456,-1.53864151941486,344.311044648579
738353.50994597596582025290,-5.16983550523392,-1.51402325510422,344.274117252113
738353.50994606642052531242,-5.18214463738924,-1.52633238725954,344.274117252113
738353.50994615687523037195,-5.16983550523392,-1.51402325510422,344.261808119958
738353.50994624721352010965,-5.15752637307861,-1.52633238725954,344.286426384269
738353.50994633766822516918,-5.16983550523392,-1.55095065157018,344.274117252113
738353.50994642812293022871,-5.15752637307861,-1.51402325510422,344.286426384269
738353.50994651857763528824,-5.14521724092329,-1.5017141229489,344.311044648579
738353.50994660903234034777,-5.14521724092329,-1.52633238725954,344.323353780735
738353.50994669937063008547,-5.14521724092329,-1.51402325510422,344.323353780735
738353.50994678982533514500,-5.15752637307861,-1.52633238725954,344.224880723492
738353.50994688028004020452,-5.14521724092329,-1.52633238725954,344.347972045045
738353.50994697073474526405,-5.13290810876797,-1.52633238725954,344.323353780735
738353.50994706118945032358,-5.13290810876797,-1.53864151941486,344.224880723492
738353.50994715152774006128,-5.12059897661265,-1.52633238725954,344.323353780735
738353.50994724198244512081,-5.12059897661265,-1.53864151941486,344.323353780735
738353.50994733243715018034,-5.12059897661265,-1.53864151941486,344.298735516424
738353.50994742289185523987,-5.08367158014669,-1.5017141229489,344.261808119958
738353.50994751334656029940,-5.08367158014669,-1.52633238725954,344.286426384269
738353.50994760368485003710,-5.09598071230201,-1.55095065157018,344.298735516424
738353.50994769413955509663,-5.07136244799137,-1.51402325510422,344.249498987803
738353.50994778459426015615,-5.05905331583605,-1.48940499079358,344.114098534094
738353.50994787504896521568,-5.04674418368074,-1.5017141229489,344.261808119958
738353.50994796550367027521,-5.0221259193701,-1.47709585863826,344.286426384269
738353.50994805584196001291,-5.04674418368074,-1.47709585863826,344.212571591337
738353.50994814629666507244,-5.03443505152542,-1.46478672648295,344.286426384269
738353.50994823675137013197,-5.05905331583605,-1.47709585863826,344.286426384269
738353.50994832720607519150,-5.08367158014669,-1.52633238725954,344.187953327026
738353.50994841766078025103,-5.07136244799137,-1.5632597837255,344.274117252113
738353.50994850799906998873,-5.07136244799137,-1.53864151941486,344.274117252113
738353.50994859845377504826,-5.07136244799137,-1.55095065157018,344.200262459181
738353.50994868890848010778,-5.05905331583605,-1.53864151941486,344.237189855647
738353.50994877936318516731,-5.04674418368074,-1.55095065157018,344.261808119958
738353.50994886981789022684,-5.04674418368074,-1.5632597837255,344.298735516424
738353.50994896015617996454,-5.04674418368074,-1.5632597837255,344.224880723492
738353.50994905061088502407,-5.0221259193701,-1.53864151941486,344.261808119958
738353.50994914106559008360,-5.03443505152542,-1.53864151941486,344.249498987803
738353.50994923152029514313,-5.04674418368074,-1.61249631234677,344.237189855647
738353.50994932197500020266,-5.07136244799137,-1.7602058982106,344.311044648579
738353.50994941231328994036,-4.94827112643818,-1.48940499079358,344.581845555996
738353.50994950276799499989,-4.7636341441084,-1.08320362966806,344.347972045045
738353.50994959322270005941,-4.43128757591479,-0.381583096814885,343.904843287454
738353.50994968367740511894,-4.50514236884671,-0.0492365286212755,343.929461551764
738353.50994977401569485664,-4.81287067272968,-0.381583096814885,343.855606758833
738353.50994986447039991617,-4.9605802585935,-1.05858536535742,343.794061098056
738353.50994995492510497570,-4.98519852290414,-1.34169540492976,344.015625476852
738353.50995004537981003523,-4.9605802585935,-1.42785933001699,344.12640766625
738353.50995013583451509476,-4.9605802585935,-1.48940499079358,344.187953327026
738353.50995022617280483246,-4.9605802585935,-1.51402325510422,344.212571591337
738353.50995031662750989199,-4.9605802585935,-1.51402325510422,344.224880723492
738353.50995040708221495152,-4.94827112643818,-1.53864151941486,344.237189855647
738353.50995049753692001104,-4.9605802585935,-1.55095065157018,344.261808119958
738353.50995058799162507057,-4.94827112643818,-1.52633238725954,344.323353780735
738353.50995067832991480827,-4.93596199428287,-1.52633238725954,344.212571591337
738353.50995076878461986780,-4.92365286212755,-1.51402325510422,344.274117252113
738353.50995085923932492733,-4.94827112643818,-1.53864151941486,344.237189855647
738353.50995094969402998686,-4.93596199428287,-1.55095065157018,344.261808119958
738353.50995104014873504639,-4.91134372997223,-1.53864151941486,344.249498987803
738353.50995113048702478409,-4.89903459781691,-1.51402325510422,344.33566291289
738353.50995122094172984362,-4.89903459781691,-1.51402325510422,344.286426384269
738353.50995131139643490314,-4.89903459781691,-1.51402325510422,344.089480269784
738353.50995140185113996267,-4.86210720135095,-1.48940499079358,344.249498987803
738353.50995149230584502220,-4.87441633350627,-1.47709585863826,344.261808119958
738353.50995158264413475990,-4.87441633350627,-1.47709585863826,344.323353780735
738353.50995167309883981943,-4.86210720135095,-1.45247759432763,344.384899441511
738353.50995176355354487896,-4.825179804885,-1.44016846217231,344.33566291289
738353.50995185400824993849,-4.83748893704032,-1.42785933001699,344.384899441511
738353.50995194446295499802,-4.825179804885,-1.40324106570635,344.409517705822
738353.50995203480124473572,-4.80056154057436,-1.34169540492976,344.397208573667
738353.50995212525594979525,-4.78825240841904,-1.31707714061912,344.421826837977
738353.50995221571065485477,-4.73901587979776,-1.25553147984252,344.458754234443
738353.50995230616535991430,-4.73901587979776,-1.21860408337657,344.483372498754
738353.50995239662006497383,-4.72670674764244,-1.18167668691061,344.483372498754
738353.50995248695835471153,-4.71439761548713,-1.14474929044465,344.52029989522
738353.50995257741305977106,-4.66516108686585,-1.07089449751274,344.532609027375
738353.50995266786776483059,-4.65285195471053,-1.05858536535742,344.495681630909
738353.50995275832246989012,-4.67747021902117,-1.07089449751274,344.495681630909
738353.50995284877717494965,-4.66516108686585,-1.08320362966806,344.495681630909
738353.50995293911546468735,-4.67747021902117,-1.12013102613402,344.434135970133
738353.50995302957016974688,-4.68977935117649,-1.20629495122125,344.298735516424
738353.50995312002487480640,-4.73901587979776,-1.3047680084638,344.237189855647
738353.50995321047957986593,-4.73901587979776,-1.34169540492976,344.212571591337
738353.50995330093428492546,-4.77594327626372,-1.41555019786167,344.138716798405
738353.50995339127257466316,-4.81287067272968,-1.47709585863826,344.138716798405
738353.50995348172727972269,-4.80056154057436,-1.48940499079358,344.114098534094
738353.50995357218198478222,-4.81287067272968,-1.51402325510422,344.15102593056
738353.50995366263668984175,-4.81287067272968,-1.53864151941486,344.12640766625
738353.50995375309139490128,-4.825179804885,-1.52633238725954,344.114098534094
738353.50995384342968463898,-4.81287067272968,-1.52633238725954,344.15102593056
738353.50995393388438969851,-4.81287067272968,-1.53864151941486,344.12640766625
738353.50995402433909475803,-4.81287067272968,-1.53864151941486,344.114098534094
738353.50995411479379981756,-4.81287067272968,-1.5632597837255,344.114098534094
738353.50995420524850487709,-4.80056154057436,-1.52633238725954,344.101789401939
738353.50995429558679461479,-4.81287067272968,-1.5632597837255,344.12640766625
738353.50995438604149967432,-4.78825240841904,-1.55095065157018,344.138716798405
738353.50995447649620473385,-4.80056154057436,-1.5632597837255,344.163335062716
738353.50995456695090979338,-4.80056154057436,-1.5632597837255,344.200262459181
738353.50995465740561485291,-4.81287067272968,-1.57556891588082,344.138716798405
738353.50995474774390459061,-4.78825240841904,-1.5632597837255,344.027934609007
738353.50995483819860965014,-4.78825240841904,-1.57556891588082,343.991007212541
738353.50995492865331470966,-4.78825240841904,-1.58787804803613,344.175644194871
738353.50995501910801976919,-4.78825240841904,-1.5632597837255,344.175644194871
738353.50995510956272482872,-4.80056154057436,-1.58787804803613,344.175644194871
738353.50995519990101456642,-4.77594327626372,-1.58787804803613,344.101789401939
738353.50995529035571962595,-4.77594327626372,-1.58787804803613,344.12640766625
738353.50995538081042468548,-4.80056154057436,-1.60018718019145,344.077171137628
738353.50995547126512974501,-4.77594327626372,-1.60018718019145,344.052552873318
738353.50995556171983480453,-4.78825240841904,-1.60018718019145,344.12640766625
738353.50995565205812454224,-4.77594327626372,-1.58787804803613,344.077171137628
738353.50995574251282960176,-4.78825240841904,-1.60018718019145,343.978698080386
738353.50995583296753466129,-4.77594327626372,-1.61249631234677,344.114098534094
738353.50995592342223972082,-4.77594327626372,-1.57556891588082,344.175644194871
738353.50995601387694478035,-4.77594327626372,-1.60018718019145,344.089480269784
738353.50995610421523451805,-4.78825240841904,-1.63711457665741,344.101789401939
738353.50995619466993957758,-4.7636341441084,-1.60018718019145,344.12640766625
738353.50995628512464463711,-4.7636341441084,-1.58787804803613,344.138716798405
738353.50995637557934969664,-4.7636341441084,-1.60018718019145,344.040243741162
738353.50995646603405475616,-4.75132501195308,-1.60018718019145,344.101789401939
738353.50995655637234449387,-4.75132501195308,-1.60018718019145,344.138716798405
738353.50995664682704955339,-4.75132501195308,-1.61249631234677,344.12640766625
738353.50995673728175461292,-4.75132501195308,-1.60018718019145,344.077171137628
738353.50995682773645967245,-4.75132501195308,-1.63711457665741,344.101789401939
738353.50995691819116473198,-4.7636341441084,-1.62480544450209,344.12640766625
738353.50995700852945446968,-4.75132501195308,-1.62480544450209,344.040243741162
738353.50995709898415952921,-4.73901587979776,-1.64942370881273,344.089480269784
738353.50995718943886458874,-4.72670674764244,-1.64942370881273,344.027934609007
738353.50995727989356964827,-4.73901587979776,-1.63711457665741,344.040243741162
738353.50995737034827470779,-4.73901587979776,-1.66173284096805,344.064862005473
738353.50995746068656444550,-4.73901587979776,-1.67404197312337,344.077171137628
738353.50995755114126950502,-4.72670674764244,-1.64942370881273,344.040243741162
738353.50995764159597456455,-4.73901587979776,-1.63711457665741,344.052552873318
738353.50995773205067962408,-4.73901587979776,-1.66173284096805,344.003316344696
738353.50995782250538468361,-4.71439761548713,-1.63711457665741,344.027934609007
738353.50995791284367442131,-4.75132501195308,-1.66173284096805,344.052552873318
738353.50995800329837948084,-4.72670674764244,-1.63711457665741,343.978698080386
738353.50995809375308454037,-4.73901587979776,-1.67404197312337,344.003316344696
738353.50995818420778959990,-4.75132501195308,-1.64942370881273,344.003316344696
738353.50995827466249465942,-4.75132501195308,-1.64942370881273,343.96638894823
738353.50995836500078439713,-4.73901587979776,-1.67404197312337,343.830988494522
738353.50995845545548945665,-4.72670674764244,-1.67404197312337,344.064862005473
738353.50995854591019451618,-4.71439761548713,-1.66173284096805,343.991007212541
738353.50995863636489957571,-4.72670674764244,-1.66173284096805,344.015625476852
738353.50995872681960463524,-4.71439761548713,-1.67404197312337,344.027934609007
738353.50995881715789437294,-4.71439761548713,-1.66173284096805,344.101789401939
738353.50995890761259943247,-4.70208848333181,-1.64942370881273,344.027934609007
738353.50995899806730449200,-4.68977935117649,-1.64942370881273,344.077171137628
738353.50995908852200955153,-4.67747021902117,-1.60018718019145,344.052552873318
738353.50995917897671461105,-4.66516108686585,-1.57556891588082,343.978698080386
738353.50995926931500434875,-4.65285195471053,-1.57556891588082,344.015625476852
738353.50995935976970940828,-4.66516108686585,-1.57556891588082,344.064862005473
738353.50995945022441446781,-4.67747021902117,-1.55095065157018,344.015625476852
738353.50995954067911952734,-4.68977935117649,-1.58787804803613,344.052552873318
738353.50995963113382458687,-4.71439761548713,-1.60018718019145,344.064862005473
738353.50995972147211432457,-4.72670674764244,-1.62480544450209,343.954079816075
738353.50995981192681938410,-4.73901587979776,-1.64942370881273,344.052552873318
738353.50995990238152444363,-4.72670674764244,-1.64942370881273,344.040243741162
738353.50995999283622950315,-4.70208848333181,-1.62480544450209,343.991007212541
738353.50996008329093456268,-4.71439761548713,-1.62480544450209,344.040243741162
738353.50996017362922430038,-4.73901587979776,-1.62480544450209,344.040243741162
738353.50996026408392935991,-4.72670674764244,-1.64942370881273,344.089480269784
738353.50996035453863441944,-4.72670674764244,-1.63711457665741,344.064862005473
738353.50996044499333947897,-4.72670674764244,-1.63711457665741,344.077171137628
738353.50996053533162921667,-4.70208848333181,-1.62480544450209,344.077171137628
738353.50996062578633427620,-4.75132501195308,-1.83406069114251,344.077171137628
738353.50996071624103933573,-4.71439761548713,-1.698660237434,344.323353780735
738353.50996080669574439526,-4.55437889746798,-1.31707714061912,344.311044648579
738353.50996089715044945478,-4.25895972574033,-0.701620532853175,343.794061098056
738353.50996098748873919249,-4.13586840418714,-0.209255246640421,343.818679362367
738353.50996107794344425201,-4.46821497238075,-0.381583096814885,343.830988494522
738353.50996116839814931154,-4.61592455824458,-0.984730572425509,343.646351512192
