time_dn,ecg_projection_ll_ra_mV,ecg_projection_la_ra_mV,ecg_projection_vx_rl_mV
738353.47624877071939408779,-7.53318887905515,-1.41555019786167,343.695588040813
738353.47624894930049777031,-7.52087974689983,-1.41555019786167,343.720206305124
738353.47624912788160145283,-7.53318887905515,-1.41555019786167,343.732515437279
738353.47624930646270513535,-7.53318887905515,-1.41555019786167,343.707897172969
738353.47624948504380881786,-7.52087974689983,-1.42785933001699,343.683278908658
738353.47624966374132782221,-7.52087974689983,-1.42785933001699,343.670969776503
738353.47624984232243150473,-7.52087974689983,-1.42785933001699,343.634042380037
738353.47625002090353518724,-7.50857061474451,-1.42785933001699,343.54787845495
738353.47625019948463886976,-7.49626148258919,-1.42785933001699,343.732515437279
738353.47625037806574255228,-7.49626148258919,-1.42785933001699,343.769442833745
738353.47625055664684623480,-7.48395235043387,-1.40324106570635,343.75713370159
738353.47625073522794991732,-7.47164321827855,-1.37862280139571,343.744824569435
738353.47625091380905359983,-7.47164321827855,-1.39093193355103,343.695588040813
738353.47625109239015728235,-7.47164321827855,-1.36631366924039,343.769442833745
738353.47625127097126096487,-7.47164321827855,-1.36631366924039,343.769442833745
738353.47625144966877996922,-7.49626148258919,-1.37862280139571,343.707897172969
738353.47625162824988365173,-7.50857061474451,-1.40324106570635,343.683278908658
738353.47625180683098733425,-7.50857061474451,-1.46478672648295,343.707897172969
738353.47625198541209101677,-7.52087974689983,-1.45247759432763,343.732515437279
738353.47625216399319469929,-7.52087974689983,-1.45247759432763,343.707897172969
738353.47625234257429838181,-7.50857061474451,-1.44016846217231,343.744824569435
738353.47625252115540206432,-7.50857061474451,-1.45247759432763,343.646351512192
738353.47625269973650574684,-7.49626148258919,-1.45247759432763,343.683278908658
738353.47625287831760942936,-7.50857061474451,-1.45247759432763,343.683278908658
738353.47625305689871311188,-7.50857061474451,-1.45247759432763,343.670969776503
738353.47625323559623211622,-7.48395235043387,-1.44016846217231,343.683278908658
738353.47625341417733579874,-7.48395235043387,-1.5017141229489,343.646351512192
738353.47625359275843948126,-7.50857061474451,-1.64942370881273,343.695588040813
738353.47625377133954316378,-7.4347158218126,-1.48940499079358,343.904843287454
738353.47625394992064684629,-7.28700623594877,-1.1078218939787,343.830988494522
738353.47625412850175052881,-6.93004140344452,-0.393892228970204,343.400168869086
738353.47625430708285421133,-6.90542313913388,0.0615456607765943,343.326314076154
738353.47625448566395789385,-7.25007883948281,-0.172327850174464,343.38785973693
738353.47625466424506157637,-7.38547929319132,-0.837020986561683,343.301695811843
738353.47625484282616525888,-7.44702495396792,-1.23091321553189,343.474023662018
738353.47625502152368426323,-7.42240668965728,-1.32938627277444,343.646351512192
738353.47625520010478794575,-7.42240668965728,-1.37862280139571,343.683278908658
738353.47625537868589162827,-7.41009755750196,-1.41555019786167,343.695588040813
738353.47625555726699531078,-7.42240668965728,-1.42785933001699,343.720206305124
738353.47625573584809899330,-7.41009755750196,-1.44016846217231,343.707897172969
738353.47625591442920267582,-7.41009755750196,-1.44016846217231,343.769442833745
738353.47625609301030635834,-7.41009755750196,-1.44016846217231,343.732515437279
738353.47625627159141004086,-7.39778842534664,-1.44016846217231,343.707897172969
738353.47625645017251372337,-7.39778842534664,-1.42785933001699,343.732515437279
738353.47625662875361740589,-7.38547929319132,-1.44016846217231,343.732515437279
738353.47625680745113641024,-7.38547929319132,-1.42785933001699,343.707897172969
738353.47625698603224009275,-7.38547929319132,-1.42785933001699,343.57249671926
738353.47625716461334377527,-7.39778842534664,-1.40324106570635,343.781751965901
738353.47625734319444745779,-7.36086102888068,-1.40324106570635,343.720206305124
738353.47625752177555114031,-7.36086102888068,-1.41555019786167,343.769442833745
738353.47625770035665482283,-7.34855189672536,-1.40324106570635,343.806370230211
738353.47625787893775850534,-7.33624276457004,-1.39093193355103,343.830988494522
738353.47625805751886218786,-7.32393363241473,-1.37862280139571,343.732515437279
738353.47625823609996587038,-7.29931536810409,-1.35400453708508,343.732515437279
738353.47625841468106955290,-7.29931536810409,-1.34169540492976,343.75713370159
738353.47625859337858855724,-7.27469710379345,-1.29245887630848,343.744824569435
738353.47625877195969223976,-7.26238797163813,-1.25553147984252,343.806370230211
738353.47625895054079592228,-7.23776970732749,-1.21860408337657,343.892534155299
738353.47625912912189960480,-7.21315144301686,-1.18167668691061,343.867915890988
738353.47625930770300328732,-7.20084231086154,-1.12013102613402,343.954079816075
738353.47625948628410696983,-7.16391491439558,-1.08320362966806,344.015625476852
738353.47625966486521065235,-7.13929665008494,-1.03396710104678,344.003316344696
738353.47625984344631433487,-7.12698751792962,-0.984730572425509,343.94177068392
738353.47626002202741801739,-7.11467838577431,-0.972421440270191,343.978698080386
738353.47626020060852169991,-7.11467838577431,-0.972421440270191,343.954079816075
738353.47626037930604070425,-7.12698751792962,-0.997039704580828,343.904843287454
738353.47626055788714438677,-7.12698751792962,-1.05858536535742,343.880225023143
738353.47626073646824806929,-7.15160578224026,-1.13244015828934,343.880225023143
738353.47626091504935175180,-7.18853317870622,-1.21860408337657,343.855606758833
738353.47626109363045543432,-7.22546057517218,-1.28014974415316,343.744824569435
738353.47626127221155911684,-7.23776970732749,-1.32938627277444,343.75713370159
738353.47626145079266279936,-7.25007883948281,-1.36631366924039,343.732515437279
738353.47626162937376648188,-7.26238797163813,-1.39093193355103,343.670969776503
738353.47626180795487016439,-7.27469710379345,-1.40324106570635,343.683278908658
738353.47626198665238916874,-7.26238797163813,-1.41555019786167,343.646351512192
738353.47626216523349285126,-7.26238797163813,-1.42785933001699,343.646351512192
738353.47626234381459653378,-7.26238797163813,-1.41555019786167,343.646351512192
738353.47626252239570021629,-7.25007883948281,-1.41555019786167,343.634042380037
738353.47626270097680389881,-7.25007883948281,-1.41555019786167,343.57249671926
738353.47626287955790758133,-7.25007883948281,-1.41555019786167,343.707897172969
738353.47626305813901126385,-7.25007883948281,-1.42785933001699,343.646351512192
738353.47626323672011494637,-7.23776970732749,-1.41555019786167,343.609424115726
738353.47626341530121862888,-7.23776970732749,-1.41555019786167,343.621733247881
738353.47626359388232231140,-7.23776970732749,-1.41555019786167,343.621733247881
738353.47626377257984131575,-7.23776970732749,-1.42785933001699,343.597114983571
738353.47626395116094499826,-7.23776970732749,-1.42785933001699,343.461714529862
738353.47626412974204868078,-7.22546057517218,-1.41555019786167,343.695588040813
738353.47626430832315236330,-7.22546057517218,-1.41555019786167,343.683278908658
738353.47626448690425604582,-7.21315144301686,-1.41555019786167,343.584805851416
738353.47626466548535972834,-7.21315144301686,-1.42785933001699,343.54787845495
738353.47626484406646341085,-7.20084231086154,-1.41555019786167,343.609424115726
738353.47626502264756709337,-7.18853317870622,-1.42785933001699,343.584805851416
738353.47626520122867077589,-7.20084231086154,-1.41555019786167,343.683278908658
738353.47626537980977445841,-7.18853317870622,-1.41555019786167,343.658660644347
738353.47626555850729346275,-7.18853317870622,-1.42785933001699,343.646351512192
738353.47626573708839714527,-7.1762240465509,-1.42785933001699,343.621733247881
738353.47626591566950082779,-7.1762240465509,-1.42785933001699,343.695588040813
738353.47626609425060451031,-7.18853317870622,-1.41555019786167,343.707897172969
738353.47626627283170819283,-7.1762240465509,-1.42785933001699,343.646351512192
738353.47626645141281187534,-7.16391491439558,-1.41555019786167,343.646351512192
738353.47626662999391555786,-7.16391491439558,-1.42785933001699,343.670969776503
738353.47626680857501924038,-7.16391491439558,-1.42785933001699,343.646351512192
738353.47626698715612292290,-7.16391491439558,-1.42785933001699,343.646351512192
738353.47626716573722660542,-7.16391491439558,-1.42785933001699,343.658660644347
738353.47626734443474560976,-7.15160578224026,-1.41555019786167,343.646351512192
738353.47626752301584929228,-7.15160578224026,-1.42785933001699,343.634042380037
738353.47626770159695297480,-7.15160578224026,-1.42785933001699,343.609424115726
738353.47626788017805665731,-7.13929665008494,-1.42785933001699,343.646351512192
738353.47626805875916033983,-7.13929665008494,-1.42785933001699,343.658660644347
738353.47626823734026402235,-7.12698751792962,-1.41555019786167,343.609424115726
738353.47626841592136770487,-7.11467838577431,-1.42785933001699,343.658660644347
738353.47626859450247138739,-7.12698751792962,-1.44016846217231,343.54787845495
738353.47626877308357506990,-7.11467838577431,-1.42785933001699,343.523260190639
738353.47626895166467875242,-7.11467838577431,-1.44016846217231,343.54787845495
738353.47626913036219775677,-7.11467838577431,-1.42785933001699,343.535569322794
738353.47626930894330143929,-7.11467838577431,-1.42785933001699,343.486332794173
738353.47626948752440512180,-7.11467838577431,-1.44016846217231,343.609424115726
738353.47626966610550880432,-7.10236925361899,-1.42785933001699,343.634042380037
738353.47626984468661248684,-7.09006012146367,-1.42785933001699,343.621733247881
738353.47627002326771616936,-7.07775098930835,-1.41555019786167,343.597114983571
738353.47627020184881985188,-7.07775098930835,-1.41555019786167,343.670969776503
738353.47627038042992353439,-7.07775098930835,-1.42785933001699,343.683278908658
738353.47627055901102721691,-7.07775098930835,-1.41555019786167,343.54787845495
738353.47627073759213089943,-7.06544185715303,-1.41555019786167,343.437096265552
738353.47627091628964990377,-7.05313272499771,-1.41555019786167,343.560187587105
738353.47627109487075358629,-7.04082359284239,-1.41555019786167,343.646351512192
738353.47627127345185726881,-7.04082359284239,-1.41555019786167,343.560187587105
738353.47627145203296095133,-7.04082359284239,-1.41555019786167,343.646351512192
738353.47627163061406463385,-7.02851446068707,-1.37862280139571,343.683278908658
738353.47627180919516831636,-7.01620532853175,-1.39093193355103,343.535569322794
738353.47627198777627199888,-7.01620532853175,-1.37862280139571,343.597114983571
738353.47627216635737568140,-7.01620532853175,-1.35400453708508,343.597114983571
738353.47627234493847936392,-7.01620532853175,-1.35400453708508,343.57249671926
738353.47627252351958304644,-7.02851446068707,-1.36631366924039,343.560187587105
738353.47627270221710205078,-7.06544185715303,-1.42785933001699,343.474023662018
738353.47627288079820573330,-7.05313272499771,-1.45247759432763,343.510951058484
738353.47627305937930941582,-7.05313272499771,-1.44016846217231,343.523260190639
738353.47627323796041309834,-7.06544185715303,-1.44016846217231,343.535569322794
738353.47627341654151678085,-7.05313272499771,-1.44016846217231,343.597114983571
738353.47627359512262046337,-7.05313272499771,-1.44016846217231,343.609424115726
738353.47627377370372414589,-7.04082359284239,-1.44016846217231,343.584805851416
738353.47627395228482782841,-7.04082359284239,-1.44016846217231,343.560187587105
738353.47627413086593151093,-7.04082359284239,-1.44016846217231,343.510951058484
738353.47627430944703519344,-7.02851446068707,-1.46478672648295,343.57249671926
738353.47627448814455419779,-7.06544185715303,-1.62480544450209,343.646351512192
738353.47627466672565788031,-7.01620532853175,-1.52633238725954,343.855606758833
738353.47627484530676156282,-6.95465966775516,-1.35400453708508,344.015625476852
738353.47627502388786524534,-6.77002268542538,-0.886257515182958,343.683278908658
738353.47627520246896892786,-6.41305785292113,-0.0984730572425509,343.314004943999
738353.47627538105007261038,-6.62231309956155,0.11078218939787,343.412478001241
738353.47627555963117629290,-6.85618661051261,-0.393892228970204,343.240150151067
738353.47627573821227997541,-6.96696879991048,-1.07089449751274,343.203222754601
738353.47627591679338365793,-7.01620532853175,-1.3047680084638,343.510951058484
738353.47627609549090266228,-6.9792779320658,-1.34169540492976,343.609424115726
738353.47627627407200634480,-6.96696879991048,-1.37862280139571,343.597114983571
738353.47627645265311002731,-6.96696879991048,-1.40324106570635,343.670969776503
738353.47627663123421370983,-6.96696879991048,-1.40324106570635,343.695588040813
738353.47627680981531739235,-6.95465966775516,-1.40324106570635,343.584805851416
738353.47627698839642107487,-6.95465966775516,-1.40324106570635,343.646351512192
738353.47627716697752475739,-6.94235053559984,-1.39093193355103,343.683278908658
738353.47627734555862843990,-6.94235053559984,-1.39093193355103,343.597114983571
738353.47627752413973212242,-6.95465966775516,-1.40324106570635,343.584805851416
738353.47627770272083580494,-6.95465966775516,-1.39093193355103,343.350932340465
738353.47627788141835480928,-6.95465966775516,-1.37862280139571,343.498641926328
738353.47627805999945849180,-6.94235053559984,-1.37862280139571,343.597114983571
738353.47627823858056217432,-6.93004140344452,-1.37862280139571,343.609424115726
738353.47627841716166585684,-6.9177322712892,-1.35400453708508,343.658660644347
738353.47627859574276953936,-6.90542313913388,-1.35400453708508,343.609424115726
738353.47627877432387322187,-6.89311400697857,-1.32938627277444,343.584805851416
738353.47627895290497690439,-6.89311400697857,-1.3047680084638,343.597114983571
738353.47627913148608058691,-6.89311400697857,-1.3047680084638,343.621733247881
738353.47627931006718426943,-6.88080487482325,-1.28014974415316,343.634042380037
738353.47627948864828795195,-6.88080487482325,-1.25553147984252,343.670969776503
738353.47627966734580695629,-6.88080487482325,-1.23091321553189,343.744824569435
738353.47627984592691063881,-6.85618661051261,-1.19398581906593,343.818679362367
738353.47628002450801432133,-6.81925921404665,-1.14474929044465,343.781751965901
738353.47628020308911800385,-6.80695008189133,-1.09551276182338,343.794061098056
738353.47628038167022168636,-6.79464094973601,-1.05858536535742,343.855606758833
738353.47628056025132536888,-6.75771355327006,-0.984730572425509,343.830988494522
738353.47628073883242905140,-6.74540442111474,-0.935494043804234,343.843297626677
738353.47628091741353273392,-6.73309528895942,-0.898566647338277,343.843297626677
738353.47628109599463641644,-6.73309528895942,-0.87394838302764,343.769442833745
738353.47628127457574009895,-6.73309528895942,-0.910875779493596,343.769442833745
738353.47628145327325910330,-6.77002268542538,-0.972421440270191,343.732515437279
738353.47628163185436278582,-6.80695008189133,-1.08320362966806,343.744824569435
738353.47628181043546646833,-6.83156834620197,-1.16936755475529,343.670969776503
738353.47628198901657015085,-6.85618661051261,-1.26784061199784,343.621733247881
738353.47628216759767383337,-6.88080487482325,-1.3047680084638,343.597114983571
738353.47628234617877751589,-6.89311400697857,-1.34169540492976,343.609424115726
738353.47628252475988119841,-6.88080487482325,-1.34169540492976,343.57249671926
738353.47628270334098488092,-6.9177322712892,-1.35400453708508,343.634042380037
738353.47628288192208856344,-6.93004140344452,-1.40324106570635,343.646351512192
738353.47628306050319224596,-6.93004140344452,-1.37862280139571,343.634042380037
738353.47628323920071125031,-6.9177322712892,-1.36631366924039,343.621733247881
738353.47628341778181493282,-6.93004140344452,-1.41555019786167,343.621733247881
738353.47628359636291861534,-6.93004140344452,-1.40324106570635,343.621733247881
738353.47628377494402229786,-6.93004140344452,-1.40324106570635,343.560187587105
738353.47628395352512598038,-6.93004140344452,-1.39093193355103,343.609424115726
738353.47628413210622966290,-6.9177322712892,-1.37862280139571,343.621733247881
738353.47628431068733334541,-6.9177322712892,-1.42785933001699,343.560187587105
738353.47628448926843702793,-6.9177322712892,-1.42785933001699,343.621733247881
738353.47628466784954071045,-6.9177322712892,-1.39093193355103,343.461714529862
738353.47628484643064439297,-6.9177322712892,-1.39093193355103,343.498641926328
738353.47628502512816339731,-6.93004140344452,-1.40324106570635,343.609424115726
738353.47628520370926707983,-6.9177322712892,-1.41555019786167,343.634042380037
738353.47628538229037076235,-6.9177322712892,-1.41555019786167,343.658660644347
738353.47628556087147444487,-6.9177322712892,-1.40324106570635,343.621733247881
738353.47628573945257812738,-6.9177322712892,-1.40324106570635,343.670969776503
738353.47628591803368180990,-6.90542313913388,-1.40324106570635,343.609424115726
738353.47628609661478549242,-6.89311400697857,-1.39093193355103,343.498641926328
738353.47628627519588917494,-6.90542313913388,-1.40324106570635,343.474023662018
738353.47628645377699285746,-6.89311400697857,-1.37862280139571,343.474023662018
738353.47628663235809653997,-6.9177322712892,-1.41555019786167,343.474023662018
738353.47628681105561554432,-6.90542313913388,-1.41555019786167,343.486332794173
738353.47628698963671922684,-6.9177322712892,-1.45247759432763,343.486332794173
738353.47628716821782290936,-6.9177322712892,-1.41555019786167,343.57249671926
738353.47628734679892659187,-6.9177322712892,-1.40324106570635,343.560187587105
738353.47628752538003027439,-6.90542313913388,-1.41555019786167,343.510951058484
738353.47628770396113395691,-6.9177322712892,-1.40324106570635,343.474023662018
738353.47628788254223763943,-6.9177322712892,-1.39093193355103,343.498641926328
738353.47628806112334132195,-6.9177322712892,-1.41555019786167,343.498641926328
738353.47628823970444500446,-6.9177322712892,-1.37862280139571,343.510951058484
738353.47628841828554868698,-6.9177322712892,-1.37862280139571,343.535569322794
738353.47628859698306769133,-6.90542313913388,-1.37862280139571,343.437096265552
738353.47628877556417137384,-6.90542313913388,-1.37862280139571,343.400168869086
738353.47628895414527505636,-6.89311400697857,-1.36631366924039,343.437096265552
738353.47628913272637873888,-6.90542313913388,-1.36631366924039,343.54787845495
738353.47628931130748242140,-6.90542313913388,-1.40324106570635,343.523260190639
738353.47628948988858610392,-6.90542313913388,-1.34169540492976,343.621733247881
738353.47628966846968978643,-6.89311400697857,-1.28014974415316,343.57249671926
738353.47628984705079346895,-6.89311400697857,-1.28014974415316,343.57249671926
738353.47629002563189715147,-6.89311400697857,-1.3047680084638,343.560187587105
738353.47629020432941615582,-6.89311400697857,-1.26784061199784,343.474023662018
738353.47629038291051983833,-6.89311400697857,-1.24322234768721,343.437096265552
738353.47629056149162352085,-6.89311400697857,-1.20629495122125,343.510951058484
738353.47629074007272720337,-6.90542313913388,-1.23091321553189,343.510951058484
738353.47629091865383088589,-6.89311400697857,-1.19398581906593,343.461714529862
738353.47629109723493456841,-6.88080487482325,-1.15705842259997,343.498641926328
738353.47629127581603825092,-6.88080487482325,-1.15705842259997,343.486332794173
738353.47629145439714193344,-6.88080487482325,-1.14474929044465,343.486332794173
738353.47629163297824561596,-6.88080487482325,-1.1078218939787,343.289386679688
738353.47629181155934929848,-6.86849574266793,-1.08320362966806,343.38785973693
738353.47629199025686830282,-6.85618661051261,-1.02165796889147,343.474023662018
738353.47629216883797198534,-6.85618661051261,-1.0462762332021,343.424787133396
738353.47629234741907566786,-6.85618661051261,-0.984730572425509,343.474023662018
738353.47629252600017935038,-6.85618661051261,-0.972421440270191,343.474023662018
738353.47629270458128303289,-6.88080487482325,-1.00934883673615,343.474023662018
738353.47629288316238671541,-6.89311400697857,-0.960112308114872,343.36324147262
738353.47629306174349039793,-6.89311400697857,-0.997039704580828,343.461714529862
738353.47629324032459408045,-6.9177322712892,-1.02165796889147,343.461714529862
738353.47629341890569776297,-6.9177322712892,-1.0462762332021,343.474023662018
738353.47629359748680144548,-6.9177322712892,-1.02165796889147,343.412478001241
738353.47629377618432044983,-6.90542313913388,-0.984730572425509,343.461714529862
738353.47629395476542413235,-6.9177322712892,-0.997039704580828,343.474023662018
738353.47629413334652781487,-6.9177322712892,-0.997039704580828,343.400168869086
738353.47629431192763149738,-6.9177322712892,-0.960112308114872,343.314004943999
738353.47629449050873517990,-6.90542313913388,-1.00934883673615,343.449405397707
738353.47629466908983886242,-6.9177322712892,-1.00934883673615,343.461714529862
738353.47629484767094254494,-6.95465966775516,-1.18167668691061,343.437096265552
738353.47629502625204622746,-6.90542313913388,-1.05858536535742,343.54787845495
738353.47629520483314990997,-6.7823318175807,-0.713929665008494,343.781751965901
738353.47629538341425359249,-6.44998524938709,-0.0615456607765943,343.350932340465
738353.47629556211177259684,-6.30227566352326,0.480056154057436,343.215531886756
738353.47629574069287627935,-6.63462223171687,0.307728303882972,343.117058829513
738353.47629591927397996187,-6.80695008189133,-0.320037436038291,342.895494450718
738353.47629609785508364439,-6.9177322712892,-0.775475325785089,343.203222754601
738353.47629627643618732691,-6.89311400697857,-0.861639250872321,343.350932340465
738353.47629645501729100943,-6.88080487482325,-0.923184911648915,343.437096265552
738353.47629663359839469194,-6.86849574266793,-0.898566647338277,343.36324147262
738353.47629681217949837446,-6.86849574266793,-0.886257515182958,343.424787133396
738353.47629699076060205698,-6.86849574266793,-0.87394838302764,343.449405397707
738353.47629716934170573950,-6.86849574266793,-0.898566647338277,343.474023662018
738353.47629734803922474384,-6.88080487482325,-0.923184911648915,343.400168869086
738353.47629752662032842636,-6.88080487482325,-0.910875779493596,343.474023662018
738353.47629770520143210888,-6.86849574266793,-0.923184911648915,343.474023662018
738353.47629788378253579140,-6.86849574266793,-0.947803175959553,343.38785973693
738353.47629806236363947392,-6.86849574266793,-0.898566647338277,343.350932340465
738353.47629824094474315643,-6.84387747835729,-0.886257515182958,343.474023662018
738353.47629841952584683895,-6.84387747835729,-0.87394838302764,343.474023662018
738353.47629859810695052147,-6.83156834620197,-0.87394838302764,343.166295358135
738353.47629877668805420399,-6.83156834620197,-0.837020986561683,343.264768415377
738353.47629895526915788651,-6.83156834620197,-0.849330118717002,343.36324147262
738353.47629913396667689085,-6.80695008189133,-0.787784457940408,343.36324147262
738353.47629931254778057337,-6.80695008189133,-0.775475325785089,343.523260190639
738353.47629949112888425589,-6.80695008189133,-0.787784457940408,343.54787845495
738353.47629966970998793840,-6.79464094973601,-0.713929665008494,343.560187587105
738353.47629984829109162092,-6.77002268542538,-0.701620532853175,343.597114983571
738353.47630002687219530344,-6.77002268542538,-0.6523840042319,343.621733247881
738353.47630020545329898596,-6.75771355327006,-0.640074872076581,343.646351512192
738353.47630038403440266848,-6.73309528895942,-0.590838343455306,343.621733247881
738353.47630056261550635099,-6.69616789249346,-0.516983550523392,343.683278908658
738353.47630074119661003351,-6.68385876033815,-0.504674418368074,343.707897172969
738353.47630091989412903786,-6.67154962818283,-0.418510493280842,343.695588040813
738353.47630109847523272038,-6.65924049602751,-0.406201361125523,343.695588040813
738353.47630127705633640289,-6.65924049602751,-0.406201361125523,343.707897172969
738353.47630145563744008541,-6.65924049602751,-0.43081962543616,343.670969776503
738353.47630163421854376793,-6.69616789249346,-0.480056154057436,343.621733247881
738353.47630181279964745045,-6.73309528895942,-0.603147475610625,343.584805851416
738353.47630199138075113297,-6.77002268542538,-0.689311400697857,343.54787845495
738353.47630216996185481548,-6.79464094973601,-0.726238797163813,343.486332794173
738353.47630234854295849800,-6.81925921404665,-0.824711854406364,343.461714529862
738353.47630252712406218052,-6.83156834620197,-0.812402722251045,343.449405397707
738353.47630270582158118486,-6.84387747835729,-0.87394838302764,343.400168869086
738353.47630288440268486738,-6.84387747835729,-0.910875779493596,343.437096265552
738353.47630306298378854990,-6.86849574266793,-0.886257515182958,343.400168869086
738353.47630324156489223242,-6.88080487482325,-0.910875779493596,343.314004943999
738353.47630342014599591494,-6.88080487482325,-0.923184911648915,343.338623208309
738353.47630359872709959745,-6.88080487482325,-0.935494043804234,343.338623208309
738353.47630377730820327997,-6.88080487482325,-0.898566647338277,343.338623208309
738353.47630395588930696249,-6.88080487482325,-0.898566647338277,343.277077547533
738353.47630413447041064501,-6.88080487482325,-0.947803175959553,343.36324147262
738353.47630431305151432753,-6.89311400697857,-0.898566647338277,343.400168869086
738353.47630449174903333187,-6.88080487482325,-0.923184911648915,343.375550604775
738353.47630467033013701439,-6.88080487482325,-0.984730572425509,343.38785973693
738353.47630484891124069691,-6.88080487482325,-0.923184911648915,343.38785973693
738353.47630502749234437943,-6.88080487482325,-0.935494043804234,343.38785973693
738353.47630520607344806194,-6.88080487482325,-0.910875779493596,343.38785973693
738353.47630538465455174446,-6.88080487482325,-0.935494043804234,343.38785973693
738353.47630556323565542698,-6.88080487482325,-0.910875779493596,343.252459283222
738353.47630574181675910950,-6.88080487482325,-0.923184911648915,343.166295358135
738353.47630592039786279202,-6.86849574266793,-0.910875779493596,343.375550604775
738353.47630609909538179636,-6.88080487482325,-0.910875779493596,343.301695811843
738353.47630627767648547888,-6.88080487482325,-0.960112308114872,343.326314076154
738353.47630645625758916140,-6.88080487482325,-0.947803175959553,343.326314076154
738353.47630663483869284391,-6.88080487482325,-0.935494043804234,343.350932340465
738353.47630681341979652643,-6.88080487482325,-0.910875779493596,343.203222754601
738353.47630699200090020895,-6.89311400697857,-0.960112308114872,343.277077547533
738353.47630717058200389147,-6.89311400697857,-0.960112308114872,343.350932340465
738353.47630734916310757399,-6.90542313913388,-0.960112308114872,343.338623208309
738353.47630752774421125650,-6.89311400697857,-0.947803175959553,343.375550604775
738353.47630770632531493902,-6.90542313913388,-0.997039704580828,343.301695811843
738353.47630788502283394337,-6.89311400697857,-0.947803175959553,343.350932340465
738353.47630806360393762589,-6.89311400697857,-0.935494043804234,343.375550604775
738353.47630824218504130840,-6.90542313913388,-0.947803175959553,343.314004943999
738353.47630842076614499092,-6.90542313913388,-0.984730572425509,343.36324147262
738353.47630859934724867344,-6.9177322712892,-0.984730572425509,343.36324147262
738353.47630877792835235596,-6.9177322712892,-0.984730572425509,343.338623208309
738353.47630895650945603848,-6.90542313913388,-0.960112308114872,343.36324147262
738353.47630913509055972099,-6.90542313913388,-1.00934883673615,343.375550604775
738353.47630931367166340351,-6.9177322712892,-1.02165796889147,343.350932340465
738353.47630949225276708603,-6.90542313913388,-0.923184911648915,343.314004943999
738353.47630967095028609037,-6.90542313913388,-0.984730572425509,343.350932340465
738353.47630984953138977289,-6.90542313913388,-0.935494043804234,343.350932340465
738353.47631002811249345541,-6.9177322712892,-0.972421440270191,343.227841018911
738353.47631020669359713793,-6.9177322712892,-0.960112308114872,343.314004943999
738353.47631038527470082045,-6.93004140344452,-0.972421440270191,343.350932340465
738353.47631056385580450296,-6.90542313913388,-0.947803175959553,343.36324147262
738353.47631074243690818548,-6.93004140344452,-1.00934883673615,343.264768415377
738353.47631092101801186800,-6.9177322712892,-0.972421440270191,343.264768415377
738353.47631109959911555052,-6.9177322712892,-0.947803175959553,343.277077547533
738353.47631127818021923304,-6.93004140344452,-0.947803175959553,343.252459283222
738353.47631145687773823738,-6.93004140344452,-0.984730572425509,343.277077547533
738353.47631163545884191990,-6.93004140344452,-0.935494043804234,343.301695811843
738353.47631181403994560242,-6.9177322712892,-0.947803175959553,343.338623208309
738353.47631199262104928493,-6.9177322712892,-0.947803175959553,343.36324147262
738353.47631217120215296745,-6.9177322712892,-0.997039704580828,343.350932340465
738353.47631234978325664997,-6.9177322712892,-0.997039704580828,343.350932340465
738353.47631252836436033249,-6.90542313913388,-0.947803175959553,343.153986225979
738353.47631270694546401501,-6.90542313913388,-1.02165796889147,343.227841018911
738353.47631288552656769753,-6.88080487482325,-0.935494043804234,343.338623208309
738353.47631306410767138004,-6.89311400697857,-0.898566647338277,343.277077547533
738353.47631324280519038439,-6.86849574266793,-0.910875779493596,343.215531886756
738353.47631342138629406691,-6.88080487482325,-0.910875779493596,343.36324147262
738353.47631359996739774942,-6.89311400697857,-0.935494043804234,343.350932340465
738353.47631377854850143194,-6.9177322712892,-0.923184911648915,343.289386679688
738353.47631395712960511446,-6.95465966775516,-1.0462762332021,343.350932340465
738353.47631413571070879698,-6.95465966775516,-0.935494043804234,343.338623208309
738353.47631431429181247950,-6.95465966775516,-0.997039704580828,343.277077547533
738353.47631449287291616201,-6.95465966775516,-0.972421440270191,343.252459283222
738353.47631467145401984453,-6.94235053559984,-1.00934883673615,343.338623208309
738353.47631485003512352705,-6.95465966775516,-1.00934883673615,343.338623208309
738353.47631502873264253139,-6.96696879991048,-1.00934883673615,343.338623208309
738353.47631520731374621391,-6.96696879991048,-1.03396710104678,343.227841018911
738353.47631538589484989643,-6.95465966775516,-0.972421440270191,343.166295358135
738353.47631556447595357895,-6.95465966775516,-1.0462762332021,343.203222754601
738353.47631574305705726147,-6.9792779320658,-1.15705842259997,343.326314076154
738353.47631592163816094398,-6.94235053559984,-1.09551276182338,343.523260190639
738353.47631610021926462650,-6.7823318175807,-0.775475325785089,343.609424115726
738353.47631627880036830902,-6.51153091016368,-0.295419171727653,343.092440565203
738353.47631645738147199154,-6.22842087059135,0.381583096814885,343.030894904426
738353.47631663596257567406,-6.523840042319,0.480056154057436,343.129367961669
738353.47631681466009467840,-6.83156834620197,-0.0615456607765943,342.932421847184
738353.47631699324119836092,-6.93004140344452,-0.615456607765943,343.055513168737
738353.47631717182230204344,-6.9177322712892,-0.812402722251045,343.301695811843
738353.47631735040340572596,-6.9177322712892,-0.910875779493596,343.375550604775
738353.47631752898450940847,-6.93004140344452,-0.972421440270191,343.264768415377
738353.47631770756561309099,-6.93004140344452,-0.960112308114872,343.326314076154
738353.47631788614671677351,-6.93004140344452,-0.984730572425509,343.38785973693
738353.47631806472782045603,-6.93004140344452,-1.03396710104678,343.412478001241
738353.47631824330892413855,-6.93004140344452,-0.984730572425509,343.314004943999
738353.47631842189002782106,-6.93004140344452,-0.947803175959553,343.227841018911
738353.47631860058754682541,-6.9177322712892,-0.960112308114872,343.38785973693
738353.47631877916865050793,-6.93004140344452,-0.984730572425509,343.400168869086
738353.47631895774975419044,-6.9177322712892,-1.00934883673615,343.338623208309
738353.47631913633085787296,-6.90542313913388,-0.997039704580828,343.350932340465
738353.47631931491196155548,-6.9177322712892,-0.997039704580828,343.289386679688
738353.47631949349306523800,-6.9177322712892,-0.910875779493596,343.289386679688
738353.47631967207416892052,-6.90542313913388,-0.923184911648915,343.252459283222
738353.47631985065527260303,-6.90542313913388,-0.910875779493596,343.400168869086
738353.47632002923637628555,-6.89311400697857,-0.947803175959553,343.461714529862
738353.47632020793389528990,-6.90542313913388,-0.947803175959553,343.474023662018
738353.47632038651499897242,-6.89311400697857,-0.87394838302764,343.412478001241
738353.47632056509610265493,-6.88080487482325,-0.87394838302764,343.498641926328
738353.47632074367720633745,-6.86849574266793,-0.861639250872321,343.54787845495
738353.47632092225831001997,-6.85618661051261,-0.886257515182958,343.560187587105
738353.47632110083941370249,-6.84387747835729,-0.800093590095726,343.437096265552
738353.47632127942051738501,-6.81925921404665,-0.713929665008494,343.474023662018
738353.47632145800162106752,-6.79464094973601,-0.701620532853175,343.621733247881
738353.47632163658272475004,-6.77002268542538,-0.6523840042319,343.621733247881
738353.47632181516382843256,-6.74540442111474,-0.566220079144668,343.658660644347
738353.47632199386134743690,-6.73309528895942,-0.553910946989349,343.584805851416
738353.47632217244245111942,-6.73309528895942,-0.553910946989349,343.683278908658
738353.47632235102355480194,-6.7207861568041,-0.54160181483403,343.621733247881
738353.47632252960465848446,-6.7207861568041,-0.504674418368074,343.658660644347
738353.47632270818576216698,-6.73309528895942,-0.590838343455306,343.634042380037
738353.47632288676686584949,-6.7823318175807,-0.701620532853175,343.375550604775
738353.47632306534796953201,-6.80695008189133,-0.701620532853175,343.375550604775
738353.47632324392907321453,-6.83156834620197,-0.76316619362977,343.338623208309
738353.47632342251017689705,-6.86849574266793,-0.837020986561683,343.461714529862
738353.47632360109128057957,-6.89311400697857,-0.910875779493596,343.449405397707
738353.47632377978879958391,-6.9177322712892,-0.935494043804234,343.38785973693
738353.47632395836990326643,-6.9177322712892,-0.910875779493596,343.412478001241
738353.47632413695100694895,-6.93004140344452,-0.935494043804234,343.424787133396
738353.47632431553211063147,-6.94235053559984,-0.947803175959553,343.412478001241
738353.47632449411321431398,-6.94235053559984,-0.972421440270191,343.289386679688
738353.47632467269431799650,-6.94235053559984,-0.935494043804234,343.252459283222
738353.47632485127542167902,-6.94235053559984,-0.972421440270191,343.38785973693
738353.47632502985652536154,-6.94235053559984,-0.972421440270191,343.424787133396
738353.47632520843762904406,-6.94235053559984,-0.997039704580828,343.424787133396
738353.47632538701873272657,-6.95465966775516,-0.997039704580828,343.338623208309
738353.47632556571625173092,-6.94235053559984,-0.935494043804234,343.412478001241
738353.47632574429735541344,-6.94235053559984,-0.960112308114872,343.424787133396
738353.47632592287845909595,-6.94235053559984,-0.984730572425509,343.375550604775
738353.47632610145956277847,-6.94235053559984,-0.935494043804234,343.314004943999
738353.47632628004066646099,-6.95465966775516,-0.972421440270191,343.215531886756
738353.47632645862177014351,-6.95465966775516,-0.997039704580828,343.301695811843
738353.47632663720287382603,-6.94235053559984,-0.960112308114872,343.227841018911
738353.47632681578397750854,-6.95465966775516,-1.03396710104678,343.36324147262
738353.47632699436508119106,-6.9177322712892,-0.910875779493596,343.424787133396
738353.47632717294618487358,-6.93004140344452,-0.947803175959553,343.314004943999
738353.47632735164370387793,-6.95465966775516,-0.960112308114872,343.277077547533
738353.47632753022480756044,-6.95465966775516,-0.997039704580828,343.252459283222
738353.47632770880591124296,-6.94235053559984,-0.960112308114872,343.326314076154
738353.47632788738701492548,-6.94235053559984,-0.947803175959553,343.424787133396
738353.47632806596811860800,-6.95465966775516,-0.935494043804234,343.437096265552
738353.47632824454922229052,-6.96696879991048,-1.00934883673615,343.301695811843
738353.47632842313032597303,-6.9177322712892,-0.972421440270191,343.412478001241
738353.47632860171142965555,-6.94235053559984,-0.960112308114872,343.412478001241
738353.47632878029253333807,-6.94235053559984,-0.960112308114872,343.424787133396
738353.47632895887363702059,-6.94235053559984,-0.947803175959553,343.277077547533
738353.47632913757115602493,-6.93004140344452,-0.947803175959553,343.412478001241
738353.47632931615225970745,-6.9177322712892,-0.984730572425509,343.424787133396
738353.47632949473336338997,-6.93004140344452,-0.972421440270191,343.437096265552
738353.47632967331446707249,-6.95465966775516,-0.947803175959553,343.252459283222
738353.47632985189557075500,-6.96696879991048,-0.960112308114872,343.412478001241
738353.47633003047667443752,-6.9792779320658,-0.960112308114872,343.437096265552
738353.47633020905777812004,-6.96696879991048,-0.972421440270191,343.412478001241
738353.47633038763888180256,-6.96696879991048,-0.972421440270191,343.203222754601
738353.47633056621998548508,-6.99158706422112,-1.00934883673615,343.412478001241
738353.47633074480108916759,-6.95465966775516,-0.972421440270191,343.424787133396
738353.47633092349860817194,-6.9177322712892,-0.923184911648915,343.424787133396
738353.47633110207971185446,-6.95465966775516,-0.972421440270191,343.252459283222
738353.47633128066081553698,-6.9792779320658,-0.997039704580828,343.240150151067
738353.47633145924191921949,-6.96696879991048,-0.997039704580828,343.437096265552
738353.47633163782302290201,-6.96696879991048,-0.997039704580828,343.437096265552
738353.47633181640412658453,-6.9792779320658,-0.997039704580828,343.424787133396
738353.47633199498523026705,-6.96696879991048,-0.984730572425509,343.203222754601
738353.47633217356633394957,-6.95465966775516,-0.984730572425509,343.314004943999
738353.47633235214743763208,-6.96696879991048,-0.984730572425509,343.264768415377
738353.47633253072854131460,-6.93004140344452,-0.960112308114872,343.264768415377
738353.47633270942606031895,-6.9792779320658,-1.00934883673615,343.215531886756
738353.47633288800716400146,-6.96696879991048,-1.00934883673615,343.203222754601
738353.47633306658826768398,-6.96696879991048,-1.00934883673615,343.301695811843
738353.47633324516937136650,-6.93004140344452,-0.984730572425509,343.326314076154
738353.47633342375047504902,-6.96696879991048,-1.03396710104678,343.314004943999
738353.47633360233157873154,-6.95465966775516,-1.02165796889147,343.215531886756
738353.47633378091268241405,-6.96696879991048,-1.00934883673615,343.252459283222
738353.47633395949378609657,-6.9177322712892,-0.984730572425509,343.400168869086
738353.47633413807488977909,-6.94235053559984,-0.984730572425509,343.412478001241
738353.47633431677240878344,-6.93004140344452,-0.960112308114872,343.338623208309
738353.47633449535351246595,-6.89311400697857,-0.935494043804234,343.437096265552
738353.47633467393461614847,-6.61000396740623,-0.947803175959553,343.424787133396
738353.47633485251571983099,-6.59769483525091,-0.923184911648915,343.486332794173
738353.47633503109682351351,-6.59769483525091,-0.910875779493596,343.449405397707
738353.47633520967792719603,-6.61000396740623,-0.898566647338277,343.437096265552
738353.47633538825903087854,-6.59769483525091,-0.87394838302764,343.437096265552
738353.47633556684013456106,-6.59769483525091,-0.886257515182958,343.498641926328
738353.47633574542123824358,-6.64693136387219,-0.898566647338277,343.277077547533
738353.47633592400234192610,-6.68385876033815,-0.972421440270191,343.289386679688
738353.47633610269986093044,-6.68385876033815,-0.972421440270191,343.350932340465
738353.47633628128096461296,-6.67154962818283,-0.960112308114872,343.412478001241
738353.47633645986206829548,-6.68385876033815,-0.947803175959553,343.424787133396
738353.47633663844317197800,-6.69616789249346,-0.960112308114872,343.412478001241
738353.47633681702427566051,-6.70847702464878,-0.947803175959553,343.461714529862
738353.47633699560537934303,-6.70847702464878,-0.960112308114872,343.510951058484
738353.47633717418648302555,-6.70847702464878,-0.947803175959553,343.498641926328
738353.47633735276758670807,-6.69616789249346,-0.960112308114872,343.424787133396
738353.47633753134869039059,-6.70847702464878,-0.972421440270191,343.523260190639
738353.47633770992979407310,-6.75771355327006,-1.13244015828934,343.523260190639
738353.47633788862731307745,-6.74540442111474,-1.1078218939787,343.658660644347
738353.47633806720841675997,-6.62231309956155,-0.76316619362977,343.781751965901
738353.47633824578952044249,-6.33920305998922,-0.196946114485102,343.437096265552
738353.47633842437062412500,-6.0684021525722,0.455437889746798,343.227841018911
738353.47633860295172780752,-6.36382132429985,0.43081962543616,343.326314076154
738353.47633878153283149004,-6.57307657094027,-0.184636982329783,343.141677093824
738353.47633896011393517256,-6.73309528895942,-0.76316619362977,343.215531886756
738353.47633913869503885508,-6.74540442111474,-0.886257515182958,343.412478001241
738353.47633931727614253759,-6.70847702464878,-0.898566647338277,343.523260190639
738353.47633949585724622011,-6.70847702464878,-0.898566647338277,343.54787845495
738353.47633967455476522446,-6.7207861568041,-0.923184911648915,343.54787845495
738353.47633985313586890697,-6.7207861568041,-0.923184911648915,343.57249671926
738353.47634003171697258949,-6.7207861568041,-0.923184911648915,343.584805851416
738353.47634021029807627201,-6.7207861568041,-0.923184911648915,343.535569322794
738353.47634038887917995453,-6.7207861568041,-0.910875779493596,343.597114983571
738353.47634056746028363705,-6.73309528895942,-0.910875779493596,343.609424115726
738353.47634074604138731956,-6.73309528895942,-0.935494043804234,343.609424115726
738353.47634092462249100208,-6.73309528895942,-0.910875779493596,343.57249671926
738353.47634110320359468460,-6.7207861568041,-0.898566647338277,343.634042380037
738353.47634128178469836712,-6.73309528895942,-0.898566647338277,343.634042380037
738353.47634146048221737146,-6.73309528895942,-0.898566647338277,343.609424115726
738353.47634163906332105398,-6.73309528895942,-0.87394838302764,343.658660644347
738353.47634181764442473650,-6.73309528895942,-0.886257515182958,343.670969776503
738353.47634199622552841902,-6.7207861568041,-0.861639250872321,343.658660644347
738353.47634217480663210154,-6.7207861568041,-0.849330118717002,343.670969776503
738353.47634235338773578405,-6.70847702464878,-0.837020986561683,343.695588040813
738353.47634253196883946657,-6.70847702464878,-0.812402722251045,343.720206305124
738353.47634271054994314909,-6.70847702464878,-0.775475325785089,343.535569322794
738353.47634288913104683161,-6.69616789249346,-0.775475325785089,343.670969776503
738353.47634306771215051413,-6.67154962818283,-0.701620532853175,343.781751965901
738353.47634324640966951847,-6.67154962818283,-0.677002268542538,343.769442833745
738353.47634342499077320099,-6.64693136387219,-0.627765739921262,343.769442833745
738353.47634360357187688351,-6.63462223171687,-0.603147475610625,343.855606758833
738353.47634378215298056602,-6.62231309956155,-0.54160181483403,343.867915890988
738353.47634396073408424854,-6.61000396740623,-0.492365286212755,343.855606758833
738353.47634413931518793106,-6.59769483525091,-0.443128757591479,343.855606758833
738353.47634431789629161358,-6.59769483525091,-0.443128757591479,343.843297626677
738353.47634449647739529610,-6.58538570309559,-0.406201361125523,343.818679362367
738353.47634467505849897861,-6.58538570309559,-0.43081962543616,343.781751965901
738353.47634485363960266113,-6.62231309956155,-0.529292682678711,343.744824569435
738353.47634503233712166548,-6.64693136387219,-0.603147475610625,343.769442833745
738353.47634521091822534800,-6.69616789249346,-0.701620532853175,343.634042380037
738353.47634538949932903051,-6.73309528895942,-0.76316619362977,343.670969776503
738353.47634556808043271303,-6.73309528895942,-0.837020986561683,343.658660644347
738353.47634574666153639555,-6.77002268542538,-0.861639250872321,343.634042380037
738353.47634592524264007807,-6.7823318175807,-0.886257515182958,343.621733247881
738353.47634610382374376059,-6.79464094973601,-0.898566647338277,343.498641926328
738353.47634628240484744310,-6.80695008189133,-0.923184911648915,343.609424115726
738353.47634646098595112562,-6.80695008189133,-0.935494043804234,343.609424115726
738353.47634663956705480814,-6.81925921404665,-0.935494043804234,343.523260190639
738353.47634681826457381248,-6.80695008189133,-0.935494043804234,343.609424115726
738353.47634699684567749500,-6.80695008189133,-0.947803175959553,343.597114983571
738353.47634717542678117752,-6.80695008189133,-0.947803175959553,343.609424115726
738353.47634735400788486004,-6.80695008189133,-0.935494043804234,343.54787845495
738353.47634753258898854256,-6.80695008189133,-0.947803175959553,343.597114983571
738353.47634771117009222507,-6.80695008189133,-0.935494043804234,343.609424115726
738353.47634788975119590759,-6.83156834620197,-0.947803175959553,343.57249671926
738353.47634806833229959011,-6.81925921404665,-0.960112308114872,343.609424115726
738353.47634824691340327263,-6.81925921404665,-0.960112308114872,343.634042380037
738353.47634842549450695515,-6.81925921404665,-0.947803175959553,343.584805851416
738353.47634860419202595949,-6.81925921404665,-0.960112308114872,343.621733247881
738353.47634878277312964201,-6.80695008189133,-0.960112308114872,343.621733247881
738353.47634896135423332453,-6.80695008189133,-0.923184911648915,343.584805851416
738353.47634913993533700705,-6.80695008189133,-0.935494043804234,343.621733247881
738353.47634931851644068956,-6.81925921404665,-0.947803175959553,343.621733247881
738353.47634949709754437208,-6.81925921404665,-0.960112308114872,343.609424115726
738353.47634967567864805460,-6.83156834620197,-0.960112308114872,343.449405397707
738353.47634985425975173712,-6.81925921404665,-0.960112308114872,343.523260190639
738353.47635003284085541964,-6.81925921404665,-0.960112308114872,343.609424115726
738353.47635021153837442398,-6.80695008189133,-0.960112308114872,343.597114983571
738353.47635039011947810650,-6.81925921404665,-0.972421440270191,343.609424115726
738353.47635056870058178902,-6.81925921404665,-0.960112308114872,343.609424115726
738353.47635074728168547153,-6.81925921404665,-0.960112308114872,343.634042380037
738353.47635092586278915405,-6.83156834620197,-0.960112308114872,343.54787845495
738353.47635110444389283657,-6.81925921404665,-0.984730572425509,343.609424115726
738353.47635128302499651909,-6.80695008189133,-0.984730572425509,343.621733247881
738353.47635146160610020161,-6.81925921404665,-0.984730572425509,343.597114983571
738353.47635164018720388412,-6.80695008189133,-0.984730572425509,343.535569322794
738353.47635181876830756664,-6.81925921404665,-0.984730572425509,343.597114983571
738353.47635199746582657099,-6.80695008189133,-0.984730572425509,343.597114983571
738353.47635217604693025351,-6.81925921404665,-0.997039704580828,343.584805851416
738353.47635235462803393602,-6.81925921404665,-0.984730572425509,343.523260190639
738353.47635253320913761854,-6.80695008189133,-0.997039704580828,343.57249671926
738353.47635271179024130106,-6.80695008189133,-0.984730572425509,343.584805851416
738353.47635289037134498358,-6.80695008189133,-0.984730572425509,343.57249671926
738353.47635306895244866610,-6.80695008189133,-0.997039704580828,343.535569322794
738353.47635324753355234861,-6.7823318175807,-0.984730572425509,343.523260190639
738353.47635342611465603113,-6.79464094973601,-0.997039704580828,343.523260190639
738353.47635360469575971365,-6.79464094973601,-0.984730572425509,343.523260190639
738353.47635378339327871799,-6.79464094973601,-0.997039704580828,343.375550604775
738353.47635396197438240051,-6.79464094973601,-0.997039704580828,343.437096265552
738353.47635414055548608303,-6.79464094973601,-1.00934883673615,343.57249671926
738353.47635431913658976555,-6.7823318175807,-0.997039704580828,343.584805851416
738353.47635449771769344807,-6.7823318175807,-0.997039704580828,343.449405397707
738353.47635467629879713058,-6.7823318175807,-0.997039704580828,343.461714529862
738353.47635485487990081310,-6.79464094973601,-0.997039704580828,343.597114983571
738353.47635503346100449562,-6.7823318175807,-0.997039704580828,343.597114983571
738353.47635521204210817814,-6.77002268542538,-0.997039704580828,343.424787133396
738353.47635539062321186066,-6.7823318175807,-0.997039704580828,343.584805851416
738353.47635556932073086500,-6.74540442111474,-0.984730572425509,343.584805851416
738353.47635574790183454752,-6.77002268542538,-1.00934883673615,343.314004943999
738353.47635592648293823004,-6.75771355327006,-1.00934883673615,343.314004943999
738353.47635610506404191256,-6.74540442111474,-0.997039704580828,343.36324147262
738353.47635628364514559507,-6.73309528895942,-0.984730572425509,343.560187587105
738353.47635646222624927759,-6.73309528895942,-0.984730572425509,343.560187587105
738353.47635664080735296011,-6.73309528895942,-0.960112308114872,343.326314076154
738353.47635681938845664263,-6.70847702464878,-0.947803175959553,343.36324147262
738353.47635699796956032515,-6.73309528895942,-0.935494043804234,343.584805851416
738353.47635717655066400766,-6.77002268542538,-0.972421440270191,343.597114983571
738353.47635735524818301201,-6.7823318175807,-1.03396710104678,343.510951058484
738353.47635753382928669453,-6.77002268542538,-1.03396710104678,343.510951058484
738353.47635771241039037704,-6.77002268542538,-1.03396710104678,343.57249671926
738353.47635789099149405956,-6.77002268542538,-1.02165796889147,343.57249671926
738353.47635806957259774208,-6.77002268542538,-1.03396710104678,343.560187587105
738353.47635824815370142460,-6.77002268542538,-1.03396710104678,343.277077547533
738353.47635842673480510712,-6.77002268542538,-1.0462762332021,343.474023662018
738353.47635860531590878963,-6.75771355327006,-1.0462762332021,343.584805851416
738353.47635878389701247215,-6.75771355327006,-1.05858536535742,343.584805851416
738353.47635896247811615467,-6.77002268542538,-1.1078218939787,343.36324147262
738353.47635914117563515902,-6.79464094973601,-1.23091321553189,343.621733247881
738353.47635931975673884153,-6.67154962818283,-0.972421440270191,343.929461551764
738353.47635949833784252405,-6.48691264585304,-0.553910946989349,343.670969776503
738353.47635967691894620657,-6.0684021525722,0.160018718019145,343.067822300892
738353.47635985550004988909,-6.15456607765943,0.480056154057436,343.264768415377
738353.47636003408115357161,-6.47460351369772,0.135400453708508,343.240150151067
738353.47636021266225725412,-6.65924049602751,-0.578529211299987,343.092440565203
738353.47636039124336093664,-6.73309528895942,-0.87394838302764,343.17860449029
738353.47636056982446461916,-6.70847702464878,-0.960112308114872,343.498641926328
738353.47636074840556830168,-6.69616789249346,-0.997039704580828,343.584805851416
738353.47636092710308730602,-6.69616789249346,-1.00934883673615,343.424787133396
738353.47636110568419098854,-6.69616789249346,-1.00934883673615,343.326314076154
738353.47636128426529467106,-6.69616789249346,-1.02165796889147,343.597114983571
738353.47636146284639835358,-6.69616789249346,-1.03396710104678,343.609424115726
738353.47636164142750203609,-6.68385876033815,-1.02165796889147,343.609424115726
738353.47636182000860571861,-6.67154962818283,-1.00934883673615,343.486332794173
738353.47636199858970940113,-6.68385876033815,-1.02165796889147,343.621733247881
738353.47636217717081308365,-6.68385876033815,-1.03396710104678,343.621733247881
738353.47636235575191676617,-6.67154962818283,-1.03396710104678,343.338623208309
738353.47636253433302044868,-6.65924049602751,-1.02165796889147,343.621733247881
738353.47636271303053945303,-6.65924049602751,-1.02165796889147,343.646351512192
738353.47636289161164313555,-6.64693136387219,-0.997039704580828,343.634042380037
738353.47636307019274681807,-6.65924049602751,-1.00934883673615,343.338623208309
738353.47636324877385050058,-5.79760124515519,-0.209255246640421,342.797021393475
738353.47636342735495418310,-5.80991037731051,0.172327850174464,342.932421847184
738353.47636360593605786562,-6.14225694550411,-0.0984730572425509,342.907803582873
738353.47636378451716154814,-6.3268939278339,-0.775475325785089,342.637002675456
738353.47636396309826523066,-6.40074872076581,-1.02165796889147,342.710857468388
738353.47636414167936891317,-6.38843958861049,-1.15705842259997,343.117058829513
738353.47636432037688791752,-6.38843958861049,-1.23091321553189,343.203222754601
738353.47636449895799160004,-6.38843958861049,-1.24322234768721,343.203222754601
738353.47636467753909528255,-6.38843958861049,-1.26784061199784,343.252459283222
738353.47636485612019896507,-6.40074872076581,-1.25553147984252,343.252459283222
738353.47636503470130264759,-6.40074872076581,-1.25553147984252,343.203222754601
738353.47636521328240633011,-6.38843958861049,-1.25553147984252,343.277077547533
738353.47636539186351001263,-6.37613045645517,-1.24322234768721,343.289386679688
738353.47636557044461369514,-6.38843958861049,-1.25553147984252,343.277077547533
738353.47636574902571737766,-6.38843958861049,-1.28014974415316,343.289386679688
738353.47636592760682106018,-6.40074872076581,-1.24322234768721,343.301695811843
738353.47636610630434006453,-6.40074872076581,-1.23091321553189,343.301695811843
738353.47636628488544374704,-6.36382132429985,-1.20629495122125,343.252459283222
738353.47636646346654742956,-6.40074872076581,-1.23091321553189,343.314004943999
738353.47636664204765111208,-6.38843958861049,-1.21860408337657,343.338623208309
738353.47636682062875479460,-6.37613045645517,-1.20629495122125,343.277077547533
738353.47636699920985847712,-6.37613045645517,-1.18167668691061,343.277077547533
738353.47636717779096215963,-6.37613045645517,-1.18167668691061,343.289386679688
738353.47636735637206584215,-6.36382132429985,-1.15705842259997,343.301695811843
738353.47636753495316952467,-6.33920305998922,-1.1078218939787,343.264768415377
738353.47636771353427320719,-6.35151219214454,-1.1078218939787,343.36324147262
738353.47636789223179221153,-6.36382132429985,-1.09551276182338,343.437096265552
738353.47636807081289589405,-6.33920305998922,-1.0462762332021,343.36324147262
738353.47636824939399957657,-6.3268939278339,-1.00934883673615,343.498641926328
738353.47636842797510325909,-6.28996653136794,-0.972421440270191,343.535569322794
738353.47636860655620694160,-6.30227566352326,-0.923184911648915,343.54787845495
738353.47636878513731062412,-6.28996653136794,-0.886257515182958,343.326314076154
738353.47636896371841430664,-6.27765739921262,-0.849330118717002,343.498641926328
738353.47636914229951798916,-6.25303913490198,-0.800093590095726,343.498641926328
738353.47636932088062167168,-6.25303913490198,-0.76316619362977,343.535569322794
738353.47636949946172535419,-6.22842087059135,-0.738547929319132,343.584805851416
738353.47636967815924435854,-6.2653482670573,-0.812402722251045,343.54787845495
738353.47636985674034804106,-6.30227566352326,-0.87394838302764,343.461714529862
738353.47637003532145172358,-6.33920305998922,-0.960112308114872,343.350932340465
738353.47637021390255540609,-6.36382132429985,-1.02165796889147,343.412478001241
738353.47637039248365908861,-6.41305785292113,-1.07089449751274,343.38785973693
738353.47637057106476277113,-6.42536698507645,-1.09551276182338,343.36324147262
738353.47637074964586645365,-6.44998524938709,-1.12013102613402,343.36324147262
738353.47637092822697013617,-6.47460351369772,-1.15705842259997,343.36324147262
738353.47637110680807381868,-6.46229438154241,-1.15705842259997,343.350932340465
738353.47637128538917750120,-6.47460351369772,-1.16936755475529,343.301695811843
738353.47637146408669650555,-6.48691264585304,-1.19398581906593,343.350932340465
738353.47637164266780018806,-6.523840042319,-1.20629495122125,343.350932340465
738353.47637182124890387058,-6.48691264585304,-1.18167668691061,343.350932340465
738353.47637199983000755310,-6.49922177800836,-1.18167668691061,343.375550604775
738353.47637217841111123562,-6.51153091016368,-1.15705842259997,343.36324147262
738353.47637235699221491814,-6.49922177800836,-1.15705842259997,343.375550604775
738353.47637253557331860065,-6.51153091016368,-1.18167668691061,343.326314076154
738353.47637271415442228317,-6.49922177800836,-1.15705842259997,343.400168869086
738353.47637289273552596569,-6.523840042319,-1.16936755475529,343.400168869086
738353.47637307131662964821,-6.53614917447432,-1.18167668691061,343.314004943999
738353.47637325001414865255,-6.523840042319,-1.15705842259997,343.375550604775
738353.47637342859525233507,-6.54845830662964,-1.16936755475529,343.338623208309
738353.47637360717635601759,-6.54845830662964,-1.16936755475529,343.326314076154
738353.47637378575745970011,-6.53614917447432,-1.16936755475529,343.301695811843
738353.47637396433856338263,-6.53614917447432,-1.16936755475529,343.338623208309
738353.47637414291966706514,-6.53614917447432,-1.15705842259997,343.412478001241
738353.47637432150077074766,-6.54845830662964,-1.15705842259997,343.375550604775
738353.47637450008187443018,-6.56076743878496,-1.15705842259997,343.400168869086
738353.47637467866297811270,-6.54845830662964,-1.15705842259997,343.400168869086
738353.47637485724408179522,-6.56076743878496,-1.16936755475529,343.400168869086
738353.47637503594160079956,-6.57307657094027,-1.15705842259997,343.338623208309
738353.47637521452270448208,-6.57307657094027,-1.15705842259997,343.424787133396
738353.47637539310380816460,-6.57307657094027,-1.16936755475529,343.424787133396
738353.47637557168491184711,-6.57307657094027,-1.15705842259997,343.338623208309
738353.47637575026601552963,-6.58538570309559,-1.15705842259997,343.437096265552
738353.47637592884711921215,-6.61000396740623,-1.18167668691061,343.36324147262
738353.47637610742822289467,-6.59769483525091,-1.16936755475529,343.264768415377
738353.47637628600932657719,-6.59769483525091,-1.15705842259997,343.424787133396
738353.47637646459043025970,-6.59769483525091,-1.15705842259997,343.38785973693
738353.47637664317153394222,-6.62231309956155,-1.16936755475529,343.38785973693
738353.47637682186905294657,-6.62231309956155,-1.15705842259997,343.412478001241
738353.47637700045015662909,-6.61000396740623,-1.15705842259997,343.449405397707
738353.47637717903126031160,-6.63462223171687,-1.16936755475529,343.412478001241
738353.47637735761236399412,-6.62231309956155,-1.15705842259997,343.449405397707
738353.47637753619346767664,-6.62231309956155,-1.14474929044465,343.437096265552
738353.47637771477457135916,-6.63462223171687,-1.14474929044465,343.461714529862
738353.47637789335567504168,-6.63462223171687,-1.15705842259997,343.449405397707
738353.47637807193677872419,-6.63462223171687,-1.14474929044465,343.449405397707
738353.47637825051788240671,-6.64693136387219,-1.15705842259997,343.474023662018
738353.47637842921540141106,-6.62231309956155,-1.14474929044465,343.510951058484
738353.47637860779650509357,-6.63462223171687,-1.14474929044465,343.449405397707
738353.47637878637760877609,-6.64693136387219,-1.14474929044465,343.449405397707
738353.47637896495871245861,-6.64693136387219,-1.14474929044465,343.535569322794
738353.47637914353981614113,-6.63462223171687,-1.13244015828934,343.474023662018
738353.47637932212091982365,-6.64693136387219,-1.14474929044465,343.437096265552
738353.47637950070202350616,-6.65924049602751,-1.14474929044465,343.523260190639
738353.47637967928312718868,-6.65924049602751,-1.14474929044465,343.474023662018
738353.47637985786423087120,-6.65924049602751,-1.14474929044465,343.449405397707
738353.47638003644533455372,-6.65924049602751,-1.15705842259997,343.38785973693
738353.47638021514285355806,-6.64693136387219,-1.12013102613402,343.486332794173
738353.47638039372395724058,-6.67154962818283,-1.14474929044465,343.486332794173
738353.47638057230506092310,-6.67154962818283,-1.13244015828934,343.437096265552
738353.47638075088616460562,-6.69616789249346,-1.15705842259997,343.498641926328
738353.47638092946726828814,-6.68385876033815,-1.14474929044465,343.461714529862
738353.47638110804837197065,-6.69616789249346,-1.13244015828934,343.412478001241
738353.47638128662947565317,-6.68385876033815,-1.12013102613402,343.400168869086
738353.47638146521057933569,-6.69616789249346,-1.13244015828934,343.412478001241
738353.47638164379168301821,-6.69616789249346,-1.14474929044465,343.412478001241
738353.47638182237278670073,-6.69616789249346,-1.14474929044465,343.400168869086
738353.47638200107030570507,-6.69616789249346,-1.13244015828934,343.498641926328
738353.47638217965140938759,-6.68385876033815,-1.13244015828934,343.498641926328
738353.47638235823251307011,-6.67154962818283,-1.12013102613402,343.498641926328
738353.47638253681361675262,-6.67154962818283,-1.13244015828934,343.437096265552
738353.47638271539472043514,-6.68385876033815,-1.13244015828934,343.498641926328
738353.47638289397582411766,-6.67154962818283,-1.1078218939787,343.437096265552
738353.47638307255692780018,-6.67154962818283,-1.1078218939787,343.252459283222
738353.47638325113803148270,-6.67154962818283,-1.09551276182338,343.375550604775
738353.47638342971913516521,-6.67154962818283,-1.07089449751274,343.486332794173
738353.47638360830023884773,-6.65924049602751,-1.07089449751274,343.486332794173
738353.47638378699775785208,-6.69616789249346,-1.07089449751274,343.461714529862
738353.47638396557886153460,-6.70847702464878,-1.1078218939787,343.486332794173
738353.47638414415996521711,-6.7207861568041,-1.14474929044465,343.486332794173
738353.47638432274106889963,-6.73309528895942,-1.15705842259997,343.498641926328
738353.47638450132217258215,-6.73309528895942,-1.13244015828934,343.437096265552
738353.47638467990327626467,-6.73309528895942,-1.13244015828934,343.486332794173
738353.47638485848437994719,-6.73309528895942,-1.13244015828934,343.486332794173
738353.47638503706548362970,-6.73309528895942,-1.14474929044465,343.412478001241
738353.47638521564658731222,-6.73309528895942,-1.13244015828934,343.424787133396
738353.47638539422769099474,-6.73309528895942,-1.15705842259997,343.498641926328
738353.47638557292520999908,-6.74540442111474,-1.15705842259997,343.498641926328
738353.47638575150631368160,-6.77002268542538,-1.31707714061912,343.498641926328
738353.47638593008741736412,-6.7823318175807,-1.32938627277444,343.498641926328
738353.47638610866852104664,-6.65924049602751,-1.05858536535742,343.843297626677
738353.47638628724962472916,-6.44998524938709,-0.615456607765943,343.560187587105
738353.47638646583072841167,-6.11763868119348,0.0615456607765943,343.129367961669
738353.47638664441183209419,-6.22842087059135,0.356964832504247,343.240150151067
738353.47638682299293577671,-6.523840042319,-0.0246182643106377,343.117058829513
738353.47638700157403945923,-6.65924049602751,-0.701620532853175,343.043204036582
738353.47638718015514314175,-6.73309528895942,-0.984730572425509,343.227841018911
738353.47638735885266214609,-6.69616789249346,-1.02165796889147,343.412478001241
738353.47638753743376582861,-6.69616789249346,-1.05858536535742,343.449405397707
738353.47638771601486951113,-6.70847702464878,-1.1078218939787,343.437096265552
738353.47638789459597319365,-6.70847702464878,-1.09551276182338,343.54787845495
738353.47638807317707687616,-6.69616789249346,-1.1078218939787,343.535569322794
738353.47638825175818055868,-6.70847702464878,-1.1078218939787,343.474023662018
738353.47638843033928424120,-6.70847702464878,-1.13244015828934,343.54787845495
738353.47638860892038792372,-6.70847702464878,-1.12013102613402,343.535569322794
738353.47638878750149160624,-6.70847702464878,-1.1078218939787,343.54787845495
738353.47638896608259528875,-6.68385876033815,-1.08320362966806,343.54787845495
738353.47638914478011429310,-6.68385876033815,-1.09551276182338,343.560187587105
738353.47638932336121797562,-6.69616789249346,-1.1078218939787,343.57249671926
738353.47638950194232165813,-6.68385876033815,-1.09551276182338,343.523260190639
738353.47638968052342534065,-6.63462223171687,-1.05858536535742,343.584805851416
738353.47638985910452902317,-6.67154962818283,-1.05858536535742,343.54787845495
738353.47639003768563270569,-6.67154962818283,-1.07089449751274,343.437096265552
738353.47639021626673638821,-6.68385876033815,-1.07089449751274,343.560187587105
738353.47639039484784007072,-6.67154962818283,-1.0462762332021,343.609424115726
738353.47639057342894375324,-6.64693136387219,-1.03396710104678,343.621733247881
738353.47639075201004743576,-6.64693136387219,-0.997039704580828,343.597114983571
738353.47639093070756644011,-6.63462223171687,-0.972421440270191,343.670969776503
738353.47639110928867012262,-6.61000396740623,-0.935494043804234,343.683278908658
738353.47639128786977380514,-6.59769483525091,-0.910875779493596,343.634042380037
738353.47639146645087748766,-6.59769483525091,-0.886257515182958,343.732515437279
738353.47639164503198117018,-6.57307657094027,-0.824711854406364,343.769442833745
738353.47639182361308485270,-6.523840042319,-0.76316619362977,343.732515437279
738353.47639200219418853521,-6.523840042319,-0.701620532853175,343.75713370159
738353.47639218077529221773,-6.53614917447432,-0.701620532853175,343.806370230211
738353.47639235935639590025,-6.49922177800836,-0.677002268542538,343.806370230211
738353.47639253793749958277,-6.49922177800836,-0.6523840042319,343.732515437279
738353.47639271663501858711,-6.49922177800836,-0.677002268542538,343.75713370159
738353.47639289521612226963,-6.51153091016368,-0.738547929319132,343.720206305124
738353.47639307379722595215,-6.53614917447432,-0.812402722251045,343.695588040813
738353.47639325237832963467,-6.54845830662964,-0.861639250872321,343.609424115726
738353.47639343095943331718,-6.58538570309559,-0.910875779493596,343.609424115726
738353.47639360954053699970,-6.61000396740623,-0.984730572425509,343.57249671926
738353.47639378812164068222,-6.62231309956155,-1.00934883673615,343.523260190639
738353.47639396670274436474,-6.63462223171687,-1.03396710104678,343.54787845495
738353.47639414528384804726,-6.67154962818283,-1.08320362966806,343.523260190639
738353.47639432398136705160,-6.67154962818283,-1.1078218939787,343.474023662018
738353.47639450256247073412,-6.67154962818283,-1.1078218939787,343.510951058484
738353.47639468114357441664,-6.65924049602751,-1.1078218939787,343.510951058484
738353.47639485972467809916,-6.65924049602751,-1.1078218939787,343.510951058484
738353.47639503830578178167,-6.65924049602751,-1.1078218939787,343.474023662018
738353.47639521688688546419,-6.68385876033815,-1.13244015828934,343.486332794173
738353.47639539546798914671,-6.65924049602751,-1.09551276182338,343.486332794173
738353.47639557404909282923,-6.65924049602751,-1.12013102613402,343.449405397707
738353.47639575263019651175,-6.67154962818283,-1.12013102613402,343.498641926328
738353.47639593121130019426,-6.65924049602751,-1.09551276182338,343.498641926328
738353.47639610990881919861,-6.65924049602751,-1.12013102613402,343.498641926328
738353.47639628848992288113,-6.64693136387219,-1.12013102613402,343.560187587105
738353.47639646707102656364,-6.67154962818283,-1.12013102613402,343.535569322794
738353.47639664565213024616,-6.65924049602751,-1.13244015828934,343.523260190639
738353.47639682423323392868,-6.65924049602751,-1.12013102613402,343.424787133396
738353.47639700281433761120,-6.64693136387219,-1.1078218939787,343.350932340465
738353.47639718139544129372,-6.65924049602751,-1.13244015828934,343.486332794173
738353.47639735997654497623,-6.65924049602751,-1.13244015828934,343.461714529862
738353.47639753855764865875,-6.64693136387219,-1.13244015828934,343.486332794173
738353.47639771713875234127,-6.64693136387219,-1.14474929044465,343.498641926328
738353.47639789583627134562,-6.64693136387219,-1.13244015828934,343.461714529862
738353.47639807441737502813,-6.65924049602751,-1.14474929044465,343.424787133396
738353.47639825299847871065,-6.64693136387219,-1.14474929044465,343.424787133396
738353.47639843157958239317,-6.64693136387219,-1.14474929044465,343.412478001241
738353.47639861016068607569,-6.64693136387219,-1.14474929044465,343.38785973693
738353.47639878874178975821,-6.63462223171687,-1.14474929044465,343.338623208309
738353.47639896732289344072,-6.63462223171687,-1.14474929044465,343.437096265552
738353.47639914590399712324,-6.64693136387219,-1.14474929044465,343.449405397707
738353.47639932448510080576,-6.64693136387219,-1.15705842259997,343.461714529862
738353.47639950306620448828,-6.64693136387219,-1.14474929044465,343.424787133396
738353.47639968176372349262,-6.63462223171687,-1.15705842259997,343.412478001241
738353.47639986034482717514,-6.63462223171687,-1.15705842259997,343.424787133396
738353.47640003892593085766,-6.62231309956155,-1.15705842259997,343.424787133396
738353.47640021750703454018,-6.63462223171687,-1.16936755475529,343.437096265552
738353.47640039608813822269,-6.63462223171687,-1.15705842259997,343.437096265552
738353.47640057466924190521,-6.62231309956155,-1.14474929044465,343.424787133396
738353.47640075325034558773,-6.62231309956155,-1.15705842259997,343.461714529862
738353.47640093183144927025,-6.62231309956155,-1.15705842259997,343.510951058484
738353.47640111041255295277,-6.61000396740623,-1.15705842259997,343.461714529862
738353.47640128899365663528,-6.62231309956155,-1.18167668691061,343.437096265552
738353.47640146769117563963,-6.62231309956155,-1.16936755475529,343.424787133396
738353.47640164627227932215,-6.58538570309559,-1.14474929044465,343.461714529862
738353.47640182485338300467,-6.61000396740623,-1.16936755475529,343.461714529862
738353.47640200343448668718,-6.62231309956155,-1.18167668691061,343.424787133396
738353.47640218201559036970,-6.61000396740623,-1.15705842259997,343.461714529862
738353.47640236059669405222,-6.59769483525091,-1.15705842259997,343.461714529862
738353.47640253917779773474,-6.61000396740623,-1.16936755475529,343.424787133396
738353.47640271775890141726,-6.58538570309559,-1.15705842259997,343.449405397707
738353.47640289634000509977,-6.59769483525091,-1.16936755475529,343.449405397707
738353.47640307492110878229,-6.58538570309559,-1.16936755475529,343.437096265552
738353.47640325361862778664,-6.58538570309559,-1.15705842259997,343.461714529862
738353.47640343219973146915,-6.59769483525091,-1.18167668691061,343.437096265552
738353.47640361078083515167,-6.58538570309559,-1.18167668691061,343.38785973693
738353.47640378936193883419,-6.59769483525091,-1.18167668691061,343.17860449029
738353.47640396794304251671,-6.58538570309559,-1.15705842259997,343.203222754601
738353.47640414652414619923,-6.56076743878496,-1.15705842259997,343.424787133396
738353.47640432510524988174,-6.56076743878496,-1.15705842259997,343.400168869086
738353.47640450368635356426,-6.57307657094027,-1.16936755475529,343.38785973693
738353.47640468226745724678,-6.58538570309559,-1.16936755475529,343.449405397707
738353.47640486084856092930,-6.57307657094027,-1.16936755475529,343.486332794173
738353.47640503954607993364,-6.57307657094027,-1.18167668691061,343.486332794173
738353.47640521812718361616,-6.57307657094027,-1.18167668691061,343.449405397707
738353.47640539670828729868,-6.56076743878496,-1.18167668691061,343.498641926328
738353.47640557528939098120,-6.53614917447432,-1.16936755475529,343.486332794173
738353.47640575387049466372,-6.53614917447432,-1.18167668691061,343.424787133396
738353.47640593245159834623,-6.53614917447432,-1.18167668691061,343.523260190639
738353.47640611103270202875,-6.523840042319,-1.16936755475529,343.437096265552
738353.47640628961380571127,-6.51153091016368,-1.14474929044465,343.38785973693
738353.47640646819490939379,-6.49922177800836,-1.15705842259997,343.400168869086
738353.47640664677601307631,-6.49922177800836,-1.12013102613402,343.412478001241
738353.47640682547353208065,-6.48691264585304,-1.1078218939787,343.375550604775
738353.47640700405463576317,-6.523840042319,-1.13244015828934,343.424787133396
738353.47640718263573944569,-6.54845830662964,-1.18167668691061,343.412478001241
738353.47640736121684312820,-6.54845830662964,-1.20629495122125,343.350932340465
738353.47640753979794681072,-6.54845830662964,-1.19398581906593,343.326314076154
738353.47640771837905049324,-6.56076743878496,-1.19398581906593,343.326314076154
738353.47640789696015417576,-6.54845830662964,-1.20629495122125,343.326314076154
738353.47640807554125785828,-6.53614917447432,-1.20629495122125,343.338623208309
738353.47640825412236154079,-6.54845830662964,-1.19398581906593,343.350932340465
738353.47640843281988054514,-6.54845830662964,-1.23091321553189,343.400168869086
738353.47640861140098422766,-6.54845830662964,-1.21860408337657,343.326314076154
738353.47640878998208791018,-6.49922177800836,-1.19398581906593,343.400168869086
738353.47640896856319159269,-6.57307657094027,-1.34169540492976,343.326314076154
738353.47640914714429527521,-6.57307657094027,-1.36631366924039,343.510951058484
738353.47640932572539895773,-6.44998524938709,-1.05858536535742,343.769442833745
738353.47640950430650264025,-6.22842087059135,-0.603147475610625,343.437096265552
738353.47640968288760632277,-5.8714560380871,0.0984730572425509,343.129367961669
738353.47640986146871000528,-6.05609302041688,0.307728303882972,343.166295358135
738353.47641004004981368780,-6.31458479567858,-0.22156437879574,343.030894904426
738353.47641021874733269215,-6.47460351369772,-0.923184911648915,342.99396750796
738353.47641039732843637466,-6.51153091016368,-1.1078218939787,343.240150151067
738353.47641057590954005718,-6.48691264585304,-1.12013102613402,343.375550604775
738353.47641075449064373970,-6.48691264585304,-1.15705842259997,343.129367961669
738353.47641093307174742222,-6.48691264585304,-1.16936755475529,343.326314076154
738353.47641111165285110474,-6.49922177800836,-1.19398581906593,343.424787133396
738353.47641129023395478725,-6.48691264585304,-1.19398581906593,343.424787133396
738353.47641146881505846977,-6.48691264585304,-1.18167668691061,343.38785973693
738353.47641164739616215229,-6.48691264585304,-1.20629495122125,343.437096265552
738353.47641182597726583481,-6.47460351369772,-1.19398581906593,343.437096265552
738353.47641200467478483915,-6.47460351369772,-1.18167668691061,343.350932340465
738353.47641218325588852167,-6.48691264585304,-1.19398581906593,343.38785973693
738353.47641236183699220419,-6.46229438154241,-1.18167668691061,343.437096265552
738353.47641254041809588671,-6.44998524938709,-1.16936755475529,343.449405397707
738353.47641271899919956923,-6.46229438154241,-1.18167668691061,343.437096265552
738353.47641289758030325174,-6.44998524938709,-1.16936755475529,343.437096265552
738353.47641307616140693426,-6.43767611723177,-1.14474929044465,343.474023662018
738353.47641325474251061678,-6.44998524938709,-1.14474929044465,343.474023662018
738353.47641343332361429930,-6.43767611723177,-1.14474929044465,343.449405397707
738353.47641361190471798182,-6.41305785292113,-1.13244015828934,343.486332794173
738353.47641379060223698616,-6.40074872076581,-1.08320362966806,343.510951058484
738353.47641396918334066868,-6.41305785292113,-1.07089449751274,343.486332794173
738353.47641414776444435120,-6.41305785292113,-1.07089449751274,343.54787845495
738353.47641432634554803371,-6.37613045645517,-1.02165796889147,343.54787845495
738353.47641450492665171623,-6.35151219214454,-0.984730572425509,343.560187587105
738353.47641468350775539875,-6.35151219214454,-0.935494043804234,343.609424115726
738353.47641486208885908127,-6.31458479567858,-0.886257515182958,343.621733247881
738353.47641504066996276379,-6.31458479567858,-0.861639250872321,343.658660644347
738353.47641521925106644630,-6.27765739921262,-0.812402722251045,343.634042380037
738353.47641539783217012882,-6.27765739921262,-0.787784457940408,343.683278908658
738353.47641557652968913317,-6.27765739921262,-0.738547929319132,343.695588040813
738353.47641575511079281569,-6.25303913490198,-0.713929665008494,343.670969776503
738353.47641593369189649820,-6.25303913490198,-0.750857061474451,343.634042380037
738353.47641611227300018072,-6.25303913490198,-0.800093590095726,343.584805851416
738353.47641629085410386324,-6.30227566352326,-0.87394838302764,343.54787845495
738353.47641646943520754576,-6.3268939278339,-0.947803175959553,343.510951058484
738353.47641664801631122828,-6.35151219214454,-1.02165796889147,343.375550604775
738353.47641682659741491079,-6.38843958861049,-1.08320362966806,343.437096265552
738353.47641700517851859331,-6.41305785292113,-1.13244015828934,343.36324147262
738353.47641718375962227583,-6.42536698507645,-1.15705842259997,343.338623208309
738353.47641736245714128017,-6.43767611723177,-1.16936755475529,343.350932340465
738353.47641754103824496269,-6.43767611723177,-1.18167668691061,343.350932340465
738353.47641771961934864521,-6.43767611723177,-1.19398581906593,343.141677093824
738353.47641789820045232773,-6.44998524938709,-1.23091321553189,343.215531886756
738353.47641807678155601025,-6.44998524938709,-1.20629495122125,343.338623208309
738353.47641825536265969276,-6.43767611723177,-1.19398581906593,343.326314076154
738353.47641843394376337528,-6.44998524938709,-1.21860408337657,343.338623208309
738353.47641861252486705780,-6.44998524938709,-1.21860408337657,343.375550604775
738353.47641879110597074032,-6.43767611723177,-1.20629495122125,343.424787133396
738353.47641896968707442284,-6.43767611723177,-1.20629495122125,343.338623208309
738353.47641914838459342718,-6.44998524938709,-1.21860408337657,343.350932340465
738353.47641932696569710970,-6.44998524938709,-1.23091321553189,343.350932340465
738353.47641950554680079222,-6.44998524938709,-1.21860408337657,343.326314076154
738353.47641968412790447474,-6.43767611723177,-1.24322234768721,343.326314076154
738353.47641986270900815725,-6.44998524938709,-1.23091321553189,343.350932340465
738353.47642004129011183977,-6.43767611723177,-1.21860408337657,343.350932340465
738353.47642021987121552229,-6.42536698507645,-1.20629495122125,343.289386679688
738353.47642039845231920481,-6.44998524938709,-1.23091321553189,343.350932340465
738353.47642057703342288733,-6.44998524938709,-1.21860408337657,343.350932340465
738353.47642075561452656984,-6.44998524938709,-1.23091321553189,343.301695811843
738353.47642093431204557419,-6.43767611723177,-1.23091321553189,343.338623208309
738353.47642111289314925671,-6.43767611723177,-1.21860408337657,343.338623208309
738353.47642129147425293922,-6.43767611723177,-1.21860408337657,343.326314076154
738353.47642147005535662174,-6.44998524938709,-1.23091321553189,343.326314076154
738353.47642164863646030426,-6.43767611723177,-1.21860408337657,343.350932340465
738353.47642182721756398678,-6.43767611723177,-1.24322234768721,343.301695811843
738353.47642200579866766930,-6.43767611723177,-1.24322234768721,343.326314076154
738353.47642218437977135181,-6.44998524938709,-1.25553147984252,343.326314076154
738353.47642236296087503433,-6.44998524938709,-1.25553147984252,343.314004943999
738353.47642254165839403868,-6.44998524938709,-1.26784061199784,343.252459283222
738353.47642272023949772120,-6.44998524938709,-1.25553147984252,343.314004943999
738353.47642289882060140371,-6.44998524938709,-1.24322234768721,343.314004943999
738353.47642307740170508623,-6.44998524938709,-1.24322234768721,343.289386679688
738353.47642325598280876875,-6.44998524938709,-1.25553147984252,343.289386679688
738353.47642343456391245127,-6.44998524938709,-1.25553147984252,343.314004943999
738353.47642361314501613379,-6.44998524938709,-1.25553147984252,343.314004943999
738353.47642379172611981630,-6.44998524938709,-1.25553147984252,343.240150151067
738353.47642397030722349882,-6.43767611723177,-1.25553147984252,343.301695811843
738353.47642414888832718134,-6.46229438154241,-1.26784061199784,343.289386679688
738353.47642432758584618568,-6.42536698507645,-1.25553147984252,343.215531886756
738353.47642450616694986820,-6.43767611723177,-1.26784061199784,343.301695811843
738353.47642468474805355072,-6.43767611723177,-1.25553147984252,343.067822300892
738353.47642486332915723324,-6.43767611723177,-1.24322234768721,343.190913622445
738353.47642504191026091576,-6.46229438154241,-1.28014974415316,343.289386679688
738353.47642522049136459827,-6.44998524938709,-1.26784061199784,343.264768415377
738353.47642539907246828079,-6.43767611723177,-1.25553147984252,343.252459283222
738353.47642557765357196331,-6.43767611723177,-1.25553147984252,343.301695811843
738353.47642575623467564583,-6.43767611723177,-1.26784061199784,343.264768415377
738353.47642593481577932835,-6.43767611723177,-1.26784061199784,343.227841018911
738353.47642611351329833269,-6.43767611723177,-1.26784061199784,343.203222754601
738353.47642629209440201521,-6.42536698507645,-1.24322234768721,343.227841018911
738353.47642647067550569773,-6.44998524938709,-1.28014974415316,343.215531886756
738353.47642664925660938025,-6.43767611723177,-1.26784061199784,343.166295358135
738353.47642682783771306276,-6.42536698507645,-1.25553147984252,343.289386679688
738353.47642700641881674528,-6.42536698507645,-1.24322234768721,343.277077547533
738353.47642718499992042780,-6.42536698507645,-1.25553147984252,343.190913622445
738353.47642736358102411032,-6.42536698507645,-1.25553147984252,343.289386679688
738353.47642754216212779284,-6.42536698507645,-1.28014974415316,343.264768415377
738353.47642772074323147535,-6.42536698507645,-1.26784061199784,343.190913622445
738353.47642789944075047970,-6.42536698507645,-1.26784061199784,343.203222754601
738353.47642807802185416222,-6.43767611723177,-1.26784061199784,343.227841018911
738353.47642825660295784473,-6.41305785292113,-1.25553147984252,343.277077547533
738353.47642843518406152725,-6.41305785292113,-1.25553147984252,343.240150151067
738353.47642861376516520977,-6.40074872076581,-1.26784061199784,343.252459283222
738353.47642879234626889229,-6.40074872076581,-1.26784061199784,343.252459283222
738353.47642897092737257481,-6.38843958861049,-1.24322234768721,343.240150151067
738353.47642914950847625732,-6.38843958861049,-1.25553147984252,343.240150151067
738353.47642932808957993984,-6.37613045645517,-1.24322234768721,343.17860449029
738353.47642950667068362236,-6.36382132429985,-1.20629495122125,343.166295358135
738353.47642968536820262671,-6.36382132429985,-1.19398581906593,343.129367961669
738353.47642986394930630922,-6.37613045645517,-1.21860408337657,343.227841018911
738353.47643004253040999174,-6.40074872076581,-1.23091321553189,343.289386679688
738353.47643022111151367426,-6.42536698507645,-1.28014974415316,343.264768415377
738353.47643039969261735678,-6.42536698507645,-1.28014974415316,343.215531886756
738353.47643057827372103930,-6.42536698507645,-1.28014974415316,343.277077547533
738353.47643075685482472181,-6.42536698507645,-1.26784061199784,343.277077547533
738353.47643093543592840433,-6.42536698507645,-1.26784061199784,343.215531886756
738353.47643111401703208685,-6.41305785292113,-1.28014974415316,343.277077547533
738353.47643129259813576937,-6.42536698507645,-1.28014974415316,343.277077547533
738353.47643147129565477371,-6.43767611723177,-1.28014974415316,343.277077547533
738353.47643164987675845623,-6.43767611723177,-1.28014974415316,343.129367961669
738353.47643182845786213875,-6.43767611723177,-1.37862280139571,343.104749697358
738353.47643200703896582127,-6.46229438154241,-1.45247759432763,343.38785973693
738353.47643218562006950378,-6.35151219214454,-1.14474929044465,343.621733247881
738353.47643236420117318630,-6.1299478133488,-0.664693136387219,343.264768415377
738353.47643254278227686882,-5.73605558437859,0.0492365286212755,342.907803582873
738353.47643272136338055134,-5.93300169886369,0.258491775261696,342.932421847184
738353.47643289994448423386,-6.21611173843603,-0.270800907417015,342.846257922096
738353.47643307852558791637,-6.35151219214454,-0.960112308114872,342.821639657786
738353.47643325722310692072,-6.40074872076581,-1.09551276182338,343.006276640116
738353.47643343580421060324,-6.41305785292113,-1.20629495122125,343.190913622445
738353.47643361438531428576,-6.38843958861049,-1.19398581906593,343.264768415377
738353.47643379296641796827,-6.41305785292113,-1.25553147984252,343.240150151067
738353.47643397154752165079,-6.38843958861049,-1.24322234768721,343.252459283222
738353.47643415012862533331,-6.40074872076581,-1.26784061199784,343.190913622445
738353.47643432870972901583,-6.40074872076581,-1.25553147984252,343.289386679688
738353.47643450729083269835,-6.38843958861049,-1.25553147984252,343.252459283222
738353.47643468587193638086,-6.37613045645517,-1.24322234768721,343.240150151067
738353.47643486445304006338,-6.36382132429985,-1.24322234768721,343.277077547533
738353.47643504315055906773,-6.37613045645517,-1.24322234768721,343.277077547533
738353.47643522173166275024,-6.37613045645517,-1.23091321553189,343.277077547533
738353.47643540031276643276,-6.35151219214454,-1.23091321553189,343.289386679688
738353.47643557889387011528,-6.37613045645517,-1.24322234768721,343.301695811843
738353.47643575747497379780,-6.37613045645517,-1.21860408337657,343.301695811843
738353.47643593605607748032,-6.36382132429985,-1.23091321553189,343.289386679688
738353.47643611463718116283,-6.35151219214454,-1.19398581906593,343.338623208309
738353.47643629321828484535,-6.33920305998922,-1.19398581906593,343.338623208309
738353.47643647179938852787,-6.3268939278339,-1.14474929044465,343.277077547533
738353.47643665049690753222,-6.36382132429985,-1.19398581906593,343.350932340465
738353.47643682907801121473,-6.35151219214454,-1.16936755475529,343.36324147262
738353.47643700765911489725,-6.24073000274667,-1.05858536535742,343.400168869086
738353.47643718624021857977,-6.33920305998922,-1.12013102613402,343.301695811843
738353.47643736482132226229,-6.30227566352326,-1.05858536535742,343.437096265552
738353.47643754340242594481,-6.27765739921262,-1.0462762332021,343.461714529862
738353.47643772198352962732,-6.25303913490198,-0.960112308114872,343.498641926328
738353.47643790056463330984,-6.22842087059135,-0.910875779493596,343.461714529862
738353.47643807914573699236,-6.20380260628071,-0.861639250872321,343.510951058484
738353.47643825772684067488,-6.17918434197007,-0.812402722251045,343.523260190639
738353.47643843642435967922,-6.20380260628071,-0.800093590095726,343.54787845495
738353.47643861500546336174,-6.15456607765943,-0.76316619362977,343.400168869086
738353.47643879358656704426,-6.17918434197007,-0.800093590095726,343.277077547533
738353.47643897216767072678,-6.17918434197007,-0.837020986561683,343.38785973693
738353.47643915074877440929,-6.19149347412539,-0.898566647338277,343.350932340465
738353.47643932932987809181,-6.2653482670573,-1.02165796889147,343.289386679688
738353.47643950791098177433,-6.30227566352326,-1.09551276182338,343.240150151067
738353.47643968649208545685,-6.28996653136794,-1.13244015828934,343.289386679688
738353.47643986507318913937,-6.31458479567858,-1.16936755475529,343.277077547533
738353.47644004365429282188,-6.3268939278339,-1.18167668691061,343.240150151067
738353.47644022235181182623,-6.36382132429985,-1.24322234768721,343.240150151067
738353.47644040093291550875,-6.36382132429985,-1.23091321553189,343.227841018911
738353.47644057951401919127,-6.35151219214454,-1.21860408337657,343.203222754601
738353.47644075809512287378,-6.37613045645517,-1.25553147984252,343.227841018911
738353.47644093667622655630,-6.37613045645517,-1.25553147984252,343.240150151067
738353.47644111525733023882,-6.37613045645517,-1.24322234768721,343.215531886756
738353.47644129383843392134,-6.36382132429985,-1.24322234768721,343.141677093824
738353.47644147241953760386,-6.35151219214454,-1.24322234768721,343.203222754601
738353.47644165100064128637,-6.36382132429985,-1.25553147984252,343.240150151067
738353.47644182958174496889,-6.36382132429985,-1.25553147984252,343.240150151067
738353.47644200827926397324,-6.38843958861049,-1.28014974415316,343.17860449029
738353.47644218686036765575,-6.37613045645517,-1.28014974415316,343.215531886756
738353.47644236544147133827,-6.33920305998922,-1.24322234768721,343.240150151067
738353.47644254402257502079,-6.33920305998922,-1.24322234768721,343.141677093824
738353.47644272260367870331,-6.40074872076581,-1.29245887630848,343.215531886756
738353.47644290118478238583,-6.37613045645517,-1.26784061199784,343.215531886756
738353.47644307976588606834,-6.33920305998922,-1.23091321553189,343.190913622445
738353.47644325834698975086,-6.37613045645517,-1.26784061199784,343.129367961669
738353.47644343692809343338,-6.37613045645517,-1.26784061199784,343.215531886756
738353.47644361550919711590,-6.38843958861049,-1.29245887630848,343.227841018911
738353.47644379420671612024,-6.40074872076581,-1.29245887630848,343.227841018911
738353.47644397278781980276,-6.37613045645517,-1.28014974415316,343.141677093824
738353.47644415136892348528,-6.37613045645517,-1.28014974415316,343.203222754601
738353.47644432995002716780,-6.38843958861049,-1.28014974415316,343.215531886756
738353.47644450853113085032,-6.36382132429985,-1.26784061199784,343.203222754601
738353.47644468711223453283,-6.38843958861049,-1.29245887630848,343.141677093824
738353.47644486569333821535,-6.37613045645517,-1.28014974415316,343.203222754601
738353.47644504427444189787,-6.38843958861049,-1.28014974415316,343.203222754601
738353.47644522285554558039,-6.40074872076581,-1.29245887630848,343.117058829513
738353.47644540143664926291,-6.38843958861049,-1.3047680084638,343.117058829513
738353.47644558013416826725,-6.40074872076581,-1.29245887630848,343.018585772271
738353.47644575871527194977,-6.38843958861049,-1.29245887630848,343.006276640116
738353.47644593729637563229,-6.36382132429985,-1.26784061199784,343.080131433047
738353.47644611587747931480,-6.38843958861049,-1.3047680084638,343.141677093824
738353.47644629445858299732,-6.40074872076581,-1.32938627277444,343.190913622445
738353.47644647303968667984,-6.38843958861049,-1.29245887630848,343.141677093824
738353.47644665162079036236,-6.41305785292113,-1.3047680084638,343.190913622445
738353.47644683020189404488,-6.40074872076581,-1.31707714061912,343.190913622445
738353.47644700878299772739,-6.37613045645517,-1.3047680084638,343.166295358135
738353.47644718736410140991,-6.38843958861049,-1.29245887630848,343.17860449029
738353.47644736606162041426,-6.38843958861049,-1.3047680084638,343.17860449029
738353.47644754464272409678,-6.35151219214454,-1.26784061199784,343.190913622445
738353.47644772322382777929,-6.37613045645517,-1.29245887630848,343.129367961669
738353.47644790180493146181,-6.37613045645517,-1.29245887630848,343.190913622445
738353.47644808038603514433,-6.40074872076581,-1.3047680084638,343.17860449029
738353.47644825896713882685,-6.41305785292113,-1.31707714061912,343.17860449029
738353.47644843754824250937,-6.41305785292113,-1.32938627277444,343.17860449029
738353.47644861612934619188,-6.40074872076581,-1.31707714061912,343.166295358135
738353.47644879471044987440,-6.40074872076581,-1.3047680084638,343.166295358135
738353.47644897329155355692,-6.38843958861049,-1.31707714061912,343.141677093824
738353.47644915198907256126,-6.37613045645517,-1.29245887630848,343.17860449029
738353.47644933057017624378,-6.38843958861049,-1.3047680084638,343.166295358135
738353.47644950915127992630,-6.38843958861049,-1.3047680084638,343.092440565203
738353.47644968773238360882,-6.37613045645517,-1.28014974415316,343.17860449029
738353.47644986631348729134,-6.38843958861049,-1.3047680084638,343.17860449029
738353.47645004489459097385,-6.35151219214454,-1.26784061199784,343.104749697358
738353.47645022347569465637,-6.38843958861049,-1.31707714061912,343.17860449029
738353.47645040205679833889,-6.37613045645517,-1.28014974415316,343.166295358135
738353.47645058063790202141,-6.41305785292113,-1.34169540492976,343.166295358135
738353.47645075921900570393,-6.38843958861049,-1.3047680084638,343.043204036582
738353.47645093791652470827,-6.38843958861049,-1.29245887630848,343.153986225979
738353.47645111649762839079,-6.40074872076581,-1.32938627277444,343.153986225979
738353.47645129507873207331,-6.37613045645517,-1.28014974415316,343.141677093824
738353.47645147365983575583,-6.36382132429985,-1.28014974415316,343.080131433047
738353.47645165224093943834,-6.38843958861049,-1.31707714061912,343.166295358135
738353.47645183082204312086,-6.38843958861049,-1.29245887630848,343.153986225979
738353.47645200940314680338,-6.38843958861049,-1.3047680084638,343.153986225979
738353.47645218798425048590,-6.36382132429985,-1.29245887630848,343.129367961669
738353.47645236656535416842,-6.36382132429985,-1.29245887630848,343.166295358135
738353.47645254526287317276,-6.36382132429985,-1.3047680084638,343.067822300892
738353.47645272384397685528,-6.36382132429985,-1.3047680084638,342.96934924365
738353.47645290242508053780,-6.33920305998922,-1.26784061199784,343.141677093824
738353.47645308100618422031,-6.3268939278339,-1.29245887630848,343.117058829513
738353.47645325958728790283,-6.3268939278339,-1.25553147984252,343.092440565203
738353.47645343816839158535,-6.3268939278339,-1.24322234768721,343.141677093824
738353.47645361674949526787,-6.3268939278339,-1.24322234768721,343.030894904426
738353.47645379533059895039,-6.31458479567858,-1.20629495122125,343.129367961669
738353.47645397391170263290,-6.36382132429985,-1.29245887630848,343.092440565203
738353.47645415249280631542,-6.38843958861049,-1.34169540492976,343.055513168737
738353.47645433119032531977,-6.38843958861049,-1.31707714061912,343.080131433047
738353.47645450977142900229,-6.38843958861049,-1.31707714061912,343.067822300892
738353.47645468835253268480,-6.38843958861049,-1.31707714061912,343.080131433047
738353.47645486693363636732,-6.38843958861049,-1.3047680084638,343.043204036582
738353.47645504551474004984,-6.38843958861049,-1.31707714061912,343.006276640116
738353.47645522409584373236,-6.38843958861049,-1.31707714061912,343.153986225979
738353.47645540267694741488,-6.36382132429985,-1.29245887630848,343.153986225979
738353.47645558125805109739,-6.36382132429985,-1.28014974415316,343.166295358135
738353.47645575983915477991,-6.40074872076581,-1.42785933001699,343.092440565203
738353.47645593842025846243,-6.42536698507645,-1.46478672648295,343.326314076154
738353.47645611711777746677,-6.28996653136794,-1.12013102613402,343.461714529862
738353.47645629569888114929,-5.99454735964029,-0.603147475610625,343.092440565203
738353.47645647427998483181,-5.63758252713604,0.0738547929319132,342.833948789941
738353.47645665286108851433,-5.90838343455306,0.172327850174464,342.932421847184
738353.47645683144219219685,-6.17918434197007,-0.356964832504247,342.821639657786
738353.47645701002329587936,-6.35151219214454,-0.997039704580828,342.895494450718
738353.47645718860439956188,-6.33920305998922,-1.14474929044465,343.067822300892
738353.47645736718550324440,-6.31458479567858,-1.19398581906593,343.117058829513
738353.47645754576660692692,-6.37613045645517,-1.28014974415316,343.166295358135
738353.47645772434771060944,-6.35151219214454,-1.26784061199784,343.190913622445
738353.47645790304522961378,-6.36382132429985,-1.29245887630848,343.203222754601
738353.47645808162633329630,-6.35151219214454,-1.29245887630848,343.190913622445
738353.47645826020743697882,-6.38843958861049,-1.32938627277444,343.203222754601
738353.47645843878854066133,-6.37613045645517,-1.32938627277444,343.190913622445
738353.47645861736964434385,-6.37613045645517,-1.31707714061912,343.141677093824
738353.47645879595074802637,-6.35151219214454,-1.3047680084638,343.166295358135
738353.47645897453185170889,-6.33920305998922,-1.29245887630848,343.215531886756
738353.47645915311295539141,-6.31458479567858,-1.28014974415316,343.227841018911
738353.47645933169405907393,-6.36382132429985,-1.31707714061912,343.203222754601
738353.47645951027516275644,-6.35151219214454,-1.3047680084638,343.166295358135
738353.47645968897268176079,-6.35151219214454,-1.29245887630848,343.117058829513
738353.47645986755378544331,-6.35151219214454,-1.29245887630848,343.240150151067
738353.47646004613488912582,-6.35151219214454,-1.29245887630848,343.264768415377
738353.47646022471599280834,-6.35151219214454,-1.26784061199784,343.301695811843
738353.47646040329709649086,-6.3268939278339,-1.25553147984252,343.301695811843
738353.47646058187820017338,-6.31458479567858,-1.24322234768721,343.289386679688
738353.47646076045930385590,-6.31458479567858,-1.21860408337657,343.326314076154
738353.47646093904040753841,-6.30227566352326,-1.19398581906593,343.36324147262
738353.47646111762151122093,-6.27765739921262,-1.15705842259997,343.38785973693
738353.47646129620261490345,-6.25303913490198,-1.1078218939787,343.350932340465
738353.47646147490013390779,-6.24073000274667,-1.07089449751274,343.437096265552
738353.47646165348123759031,-6.22842087059135,-1.02165796889147,343.437096265552
738353.47646183206234127283,-6.19149347412539,-0.960112308114872,343.412478001241
738353.47646201064344495535,-6.17918434197007,-0.935494043804234,343.424787133396
738353.47646218922454863787,-6.17918434197007,-0.910875779493596,343.424787133396
738353.47646236780565232038,-6.16687520981475,-0.898566647338277,343.437096265552
738353.47646254638675600290,-6.16687520981475,-0.861639250872321,343.400168869086
738353.47646272496785968542,-6.16687520981475,-0.87394838302764,343.437096265552
738353.47646290354896336794,-6.16687520981475,-0.910875779493596,343.412478001241
738353.47646308213006705046,-6.19149347412539,-0.972421440270191,343.314004943999
738353.47646326082758605480,-6.22842087059135,-1.05858536535742,343.240150151067
738353.47646343940868973732,-6.24073000274667,-1.1078218939787,343.277077547533
738353.47646361798979341984,-6.2653482670573,-1.16936755475529,343.264768415377
738353.47646379657089710236,-6.30227566352326,-1.21860408337657,343.129367961669
738353.47646397515200078487,-6.31458479567858,-1.24322234768721,343.215531886756
738353.47646415373310446739,-6.31458479567858,-1.25553147984252,343.215531886756
738353.47646433231420814991,-6.3268939278339,-1.28014974415316,343.080131433047
738353.47646451089531183243,-6.3268939278339,-1.25553147984252,343.203222754601
738353.47646468947641551495,-6.3268939278339,-1.26784061199784,343.203222754601
738353.47646486805751919746,-6.31458479567858,-1.26784061199784,343.080131433047
738353.47646504675503820181,-6.3268939278339,-1.26784061199784,343.190913622445
738353.47646522533614188433,-6.3268939278339,-1.29245887630848,343.17860449029
738353.47646540391724556684,-6.3268939278339,-1.26784061199784,343.092440565203
738353.47646558249834924936,-6.31458479567858,-1.26784061199784,343.17860449029
738353.47646576107945293188,-6.3268939278339,-1.26784061199784,343.17860449029
738353.47646593966055661440,-6.31458479567858,-1.28014974415316,343.190913622445
738353.47646611824166029692,-6.31458479567858,-1.26784061199784,343.166295358135
738353.47646629682276397943,-6.31458479567858,-1.25553147984252,343.190913622445
738353.47646647540386766195,-6.31458479567858,-1.26784061199784,343.129367961669
738353.47646665410138666630,-6.31458479567858,-1.26784061199784,342.981658375805
738353.47646683268249034882,-6.31458479567858,-1.25553147984252,343.166295358135
738353.47646701126359403133,-6.31458479567858,-1.26784061199784,343.17860449029
738353.47646718984469771385,-6.31458479567858,-1.26784061199784,343.166295358135
738353.47646736842580139637,-6.31458479567858,-1.25553147984252,343.17860449029
738353.47646754700690507889,-6.30227566352326,-1.25553147984252,343.17860449029
738353.47646772558800876141,-6.30227566352326,-1.25553147984252,343.17860449029
738353.47646790416911244392,-6.30227566352326,-1.25553147984252,343.153986225979
738353.47646808275021612644,-6.30227566352326,-1.25553147984252,343.17860449029
738353.47646826133131980896,-6.28996653136794,-1.25553147984252,343.166295358135
738353.47646844002883881330,-6.30227566352326,-1.26784061199784,343.129367961669
738353.47646861860994249582,-6.28996653136794,-1.25553147984252,343.17860449029
738353.47646879719104617834,-6.28996653136794,-1.25553147984252,343.166295358135
738353.47646897577214986086,-6.28996653136794,-1.25553147984252,343.117058829513
738353.47646915435325354338,-6.28996653136794,-1.25553147984252,343.129367961669
738353.47646933293435722589,-6.27765739921262,-1.25553147984252,343.166295358135
738353.47646951151546090841,-6.27765739921262,-1.24322234768721,343.17860449029
738353.47646969009656459093,-6.27765739921262,-1.24322234768721,343.153986225979
738353.47646986867766827345,-6.27765739921262,-1.25553147984252,343.166295358135
738353.47647004725877195597,-6.28996653136794,-1.24322234768721,343.166295358135
738353.47647022595629096031,-6.27765739921262,-1.24322234768721,343.153986225979
738353.47647040453739464283,-6.27765739921262,-1.24322234768721,343.129367961669
738353.47647058311849832535,-6.28996653136794,-1.25553147984252,343.166295358135
738353.47647076169960200787,-6.28996653136794,-1.24322234768721,343.166295358135
738353.47647094028070569038,-6.27765739921262,-1.23091321553189,343.153986225979
738353.47647111886180937290,-6.28996653136794,-1.25553147984252,343.117058829513
738353.47647129744291305542,-6.28996653136794,-1.25553147984252,343.17860449029
738353.47647147602401673794,-6.28996653136794,-1.25553147984252,343.166295358135
738353.47647165460512042046,-6.28996653136794,-1.23091321553189,343.092440565203
738353.47647183318622410297,-6.28996653136794,-1.24322234768721,343.117058829513
738353.47647201188374310732,-6.28996653136794,-1.23091321553189,343.166295358135
738353.47647219046484678984,-6.28996653136794,-1.24322234768721,343.166295358135
738353.47647236904595047235,-6.27765739921262,-1.24322234768721,342.99396750796
738353.47647254762705415487,-6.30227566352326,-1.24322234768721,343.153986225979
738353.47647272620815783739,-6.28996653136794,-1.23091321553189,343.166295358135
738353.47647290478926151991,-6.28996653136794,-1.24322234768721,343.141677093824
738353.47647308337036520243,-6.28996653136794,-1.23091321553189,343.141677093824
738353.47647326195146888494,-6.30227566352326,-1.24322234768721,343.166295358135
738353.47660749137867242098,-6.28996653136794,-1.25553147984252,343.129367961669
738353.47660763724707067013,-6.28996653136794,-1.23091321553189,342.957040111494
738353.47660778299905359745,-6.28996653136794,-1.24322234768721,343.141677093824
738353.47660792886745184660,-6.28996653136794,-1.23091321553189,343.166295358135
738353.47660807473585009575,-6.27765739921262,-1.24322234768721,343.141677093824
738353.47660822060424834490,-6.27765739921262,-1.23091321553189,343.166295358135
738353.47660836647264659405,-6.27765739921262,-1.23091321553189,343.166295358135
738353.47660851234104484320,-6.28996653136794,-1.24322234768721,343.17860449029
738353.47660865820944309235,-6.28996653136794,-1.25553147984252,343.129367961669
738353.47660880407784134150,-6.27765739921262,-1.24322234768721,343.153986225979
738353.47660894994623959064,-6.27765739921262,-1.23091321553189,343.17860449029
738353.47660909581463783979,-6.27765739921262,-1.23091321553189,343.153986225979
738353.47660924168303608894,-6.28996653136794,-1.24322234768721,343.141677093824
738353.47660938755143433809,-6.27765739921262,-1.23091321553189,343.166295358135
738353.47660953341983258724,-6.27765739921262,-1.23091321553189,343.141677093824
738353.47660967928823083639,-6.27765739921262,-1.23091321553189,343.080131433047
738353.47660982515662908554,-6.27765739921262,-1.23091321553189,343.166295358135
738353.47660997102502733469,-6.2653482670573,-1.23091321553189,343.166295358135
738353.47661011689342558384,-6.2653482670573,-1.23091321553189,343.092440565203
738353.47661026276182383299,-6.25303913490198,-1.24322234768721,343.153986225979
738353.47661040863022208214,-6.25303913490198,-1.23091321553189,343.166295358135
738353.47661055449862033129,-6.22842087059135,-1.19398581906593,343.153986225979
738353.47661070036701858044,-6.22842087059135,-1.20629495122125,343.080131433047
738353.47661084623541682959,-6.22842087059135,-1.18167668691061,343.153986225979
738353.47661099210381507874,-6.22842087059135,-1.16936755475529,343.166295358135
738353.47661113797221332788,-6.25303913490198,-1.18167668691061,343.080131433047
738353.47661128384061157703,-6.2653482670573,-1.19398581906593,343.153986225979
738353.47661142970900982618,-6.30227566352326,-1.25553147984252,343.153986225979
738353.47661157557740807533,-6.28996653136794,-1.25553147984252,343.153986225979
738353.47661172144580632448,-6.30227566352326,-1.25553147984252,343.092440565203
738353.47661186731420457363,-6.28996653136794,-1.24322234768721,343.166295358135
738353.47661201318260282278,-6.28996653136794,-1.24322234768721,343.17860449029
738353.47661215905100107193,-6.28996653136794,-1.24322234768721,343.104749697358
738353.47661230491939932108,-6.27765739921262,-1.24322234768721,343.104749697358
738353.47661245078779757023,-6.28996653136794,-1.24322234768721,343.153986225979
738353.47661259665619581938,-6.28996653136794,-1.25553147984252,343.153986225979
738353.47661274252459406853,-6.3268939278339,-1.39093193355103,343.067822300892
738353.47661288839299231768,-6.28996653136794,-1.36631366924039,343.326314076154
738353.47661303426139056683,-6.16687520981475,-1.07089449751274,343.461714529862
738353.47661318012978881598,-5.89607430239774,-0.553910946989349,342.846257922096
738353.47661332599818706512,-5.69912818791264,-0.184636982329783,342.698548336233
738353.47661347186658531427,-5.674509923602,0.233873510951058,342.895494450718
738353.47661361773498356342,-6.03147475610625,0,342.932421847184
738353.47661376360338181257,-6.17918434197007,-0.6523840042319,342.735475732699
738353.47661390947178006172,-6.2653482670573,-1.02165796889147,342.99396750796
738353.47661405534017831087,-6.22842087059135,-1.12013102613402,343.153986225979
738353.47661420120857656002,-6.25303913490198,-1.16936755475529,343.141677093824
738353.47661434707697480917,-6.25303913490198,-1.19398581906593,343.166295358135
738353.47661449294537305832,-6.2653482670573,-1.21860408337657,343.117058829513
738353.47661463881377130747,-6.25303913490198,-1.23091321553189,343.141677093824
738353.47661478468216955662,-6.2653482670573,-1.24322234768721,343.141677093824
738353.47661493055056780577,-6.2653482670573,-1.23091321553189,343.141677093824
738353.47661507641896605492,-6.22842087059135,-1.21860408337657,343.215531886756
738353.47661522228736430407,-6.24073000274667,-1.20629495122125,343.17860449029
738353.47661536815576255322,-6.25303913490198,-1.23091321553189,343.227841018911
738353.47661551402416080236,-6.25303913490198,-1.20629495122125,343.227841018911
738353.47661565989255905151,-6.22842087059135,-1.19398581906593,343.166295358135
738353.47661580576095730066,-6.24073000274667,-1.21860408337657,343.240150151067
738353.47661595162935554981,-6.22842087059135,-1.18167668691061,343.240150151067
738353.47661609749775379896,-6.21611173843603,-1.18167668691061,343.240150151067
738353.47661624336615204811,-6.20380260628071,-1.16936755475529,343.190913622445
738353.47661638923455029726,-6.22842087059135,-1.16936755475529,343.252459283222
738353.47661653510294854641,-6.24073000274667,-1.19398581906593,343.289386679688
738353.47661668097134679556,-6.20380260628071,-1.13244015828934,343.240150151067
738353.47661682683974504471,-6.19149347412539,-1.1078218939787,343.314004943999
738353.47661697270814329386,-6.15456607765943,-1.05858536535742,343.338623208309
738353.47661711857654154301,-6.16687520981475,-1.07089449751274,343.350932340465
738353.47661726444493979216,-6.16687520981475,-1.0462762332021,343.375550604775
738353.47661741031333804131,-6.15456607765943,-0.997039704580828,343.424787133396
738353.47661755618173629045,-6.14225694550411,-0.984730572425509,343.437096265552
738353.47661770205013453960,-6.14225694550411,-0.947803175959553,343.38785973693
738353.47661784791853278875,-6.10532954903816,-0.886257515182958,343.498641926328
738353.47661799378693103790,-6.10532954903816,-0.861639250872321,343.510951058484
738353.47661813953891396523,-6.03147475610625,-0.76316619362977,343.498641926328
738353.47661828540731221437,-6.0684021525722,-0.800093590095726,343.474023662018
738353.47661843127571046352,-6.04378388826156,-0.775475325785089,343.461714529862
738353.47661857714410871267,-6.05609302041688,-0.824711854406364,343.375550604775
738353.47661872301250696182,-6.11763868119348,-0.923184911648915,343.36324147262
738353.47661886888090521097,-6.14225694550411,-0.997039704580828,343.104749697358
738353.47661901474930346012,-6.15456607765943,-1.05858536535742,343.153986225979
738353.47661916061770170927,-6.16687520981475,-1.08320362966806,343.203222754601
738353.47661930648609995842,-6.20380260628071,-1.13244015828934,343.215531886756
738353.47661945235449820757,-6.21611173843603,-1.16936755475529,343.190913622445
738353.47661959822289645672,-6.24073000274667,-1.19398581906593,343.166295358135
738353.47661974409129470587,-6.21611173843603,-1.18167668691061,343.190913622445
738353.47661988995969295502,-6.22842087059135,-1.20629495122125,343.17860449029
738353.47662003582809120417,-6.19149347412539,-1.15705842259997,343.17860449029
738353.47662018169648945332,-6.24073000274667,-1.21860408337657,343.055513168737
738353.47662032756488770247,-6.28996653136794,-1.26784061199784,343.17860449029
738353.47662047343328595161,-6.27765739921262,-1.24322234768721,343.17860449029
738353.47662061930168420076,-6.25303913490198,-1.23091321553189,343.080131433047
738353.47662076517008244991,-6.2653482670573,-1.24322234768721,343.166295358135
738353.47662091103848069906,-6.2653482670573,-1.23091321553189,343.166295358135
738353.47662105690687894821,-6.24073000274667,-1.20629495122125,343.17860449029
738353.47662120277527719736,-6.24073000274667,-1.23091321553189,343.129367961669
738353.47662134864367544651,-6.22842087059135,-1.21860408337657,343.153986225979
738353.47662149451207369566,-6.25303913490198,-1.24322234768721,343.166295358135
738353.47662164038047194481,-6.24073000274667,-1.21860408337657,343.166295358135
738353.47662178624887019396,-6.17918434197007,-1.16936755475529,343.153986225979
738353.47662193211726844311,-6.28996653136794,-1.26784061199784,343.153986225979
738353.47662207798566669226,-6.2653482670573,-1.26784061199784,343.166295358135
738353.47662222385406494141,-6.25303913490198,-1.24322234768721,343.166295358135
738353.47662236972246319056,-6.25303913490198,-1.24322234768721,343.104749697358
738353.47662251559086143970,-6.25303913490198,-1.24322234768721,343.166295358135
738353.47662266145925968885,-6.25303913490198,-1.24322234768721,343.141677093824
738353.47662280732765793800,-6.2653482670573,-1.24322234768721,343.067822300892
738353.47662295319605618715,-6.25303913490198,-1.24322234768721,343.080131433047
738353.47662309906445443630,-6.24073000274667,-1.24322234768721,343.080131433047
738353.47662324493285268545,-6.2653482670573,-1.24322234768721,343.080131433047
738353.47662339080125093460,-6.2653482670573,-1.24322234768721,343.080131433047
738353.47662353666964918375,-6.2653482670573,-1.24322234768721,343.141677093824
738353.47662368253804743290,-6.2653482670573,-1.25553147984252,343.153986225979
738353.47662382840644568205,-6.25303913490198,-1.24322234768721,343.104749697358
738353.47662397427484393120,-6.25303913490198,-1.25553147984252,343.153986225979
738353.47662412014324218035,-6.27765739921262,-1.25553147984252,343.141677093824
738353.47662426601164042950,-6.2653482670573,-1.26784061199784,343.104749697358
738353.47662441188003867865,-6.25303913490198,-1.24322234768721,343.141677093824
738353.47662455774843692780,-6.2653482670573,-1.26784061199784,342.944730979339
738353.47662470361683517694,-6.2653482670573,-1.26784061199784,342.981658375805
738353.47662484948523342609,-6.2653482670573,-1.26784061199784,343.129367961669
738353.47662499535363167524,-6.2653482670573,-1.26784061199784,343.153986225979
738353.47662514122202992439,-6.25303913490198,-1.25553147984252,343.141677093824
738353.47662528709042817354,-6.25303913490198,-1.25553147984252,343.080131433047
738353.47662543295882642269,-6.2653482670573,-1.26784061199784,343.055513168737
738353.47662557882722467184,-6.27765739921262,-1.25553147984252,343.067822300892
738353.47662572469562292099,-6.2653482670573,-1.25553147984252,343.080131433047
738353.47662587056402117014,-6.2653482670573,-1.26784061199784,343.141677093824
738353.47662601643241941929,-6.27765739921262,-1.26784061199784,343.129367961669
738353.47662616230081766844,-6.2653482670573,-1.25553147984252,343.104749697358
738353.47662630816921591759,-6.2653482670573,-1.25553147984252,343.141677093824
738353.47662645403761416674,-6.2653482670573,-1.25553147984252,343.141677093824
738353.47662659990601241589,-6.2653482670573,-1.25553147984252,343.104749697358
738353.47662674577441066504,-6.2653482670573,-1.26784061199784,343.080131433047
738353.47662689164280891418,-6.25303913490198,-1.25553147984252,343.141677093824
738353.47662703751120716333,-6.2653482670573,-1.25553147984252,343.153986225979
738353.47662718337960541248,-6.2653482670573,-1.25553147984252,343.117058829513
738353.47662732924800366163,-6.2653482670573,-1.26784061199784,343.153986225979
738353.47662747511640191078,-6.2653482670573,-1.26784061199784,343.141677093824
738353.47662762098480015993,-6.2653482670573,-1.24322234768721,343.129367961669
738353.47662776685319840908,-6.25303913490198,-1.24322234768721,343.153986225979
738353.47662791272159665823,-6.2653482670573,-1.25553147984252,343.141677093824
738353.47662805858999490738,-6.27765739921262,-1.26784061199784,343.141677093824
738353.47662820445839315653,-6.27765739921262,-1.26784061199784,343.080131433047
738353.47662835032679140568,-6.2653482670573,-1.25553147984252,343.153986225979
738353.47662849619518965483,-6.2653482670573,-1.25553147984252,343.141677093824
738353.47662864194717258215,-6.2653482670573,-1.25553147984252,343.153986225979
738353.47662878781557083130,-6.2653482670573,-1.24322234768721,343.104749697358
738353.47662893368396908045,-6.25303913490198,-1.25553147984252,343.153986225979
738353.47662907955236732960,-6.25303913490198,-1.24322234768721,343.166295358135
738353.47662922542076557875,-6.24073000274667,-1.24322234768721,343.067822300892
738353.47662937128916382790,-6.22842087059135,-1.24322234768721,343.153986225979
738353.47662951715756207705,-6.22842087059135,-1.23091321553189,343.166295358135
738353.47662966302596032619,-6.20380260628071,-1.19398581906593,343.129367961669
738353.47662980889435857534,-6.21611173843603,-1.20629495122125,343.067822300892
738353.47662995476275682449,-6.20380260628071,-1.18167668691061,343.129367961669
738353.47663010063115507364,-6.20380260628071,-1.16936755475529,343.153986225979
738353.47663024649955332279,-6.21611173843603,-1.16936755475529,342.957040111494
738353.47663039236795157194,-6.24073000274667,-1.19398581906593,343.030894904426
738353.47663053823634982109,-6.2653482670573,-1.24322234768721,343.141677093824
738353.47663068410474807024,-6.2653482670573,-1.26784061199784,343.104749697358
738353.47663082997314631939,-6.2653482670573,-1.26784061199784,343.043204036582
738353.47663097584154456854,-6.2653482670573,-1.25553147984252,343.080131433047
738353.47663112170994281769,-6.25303913490198,-1.25553147984252,343.080131433047
738353.47663126757834106684,-6.2653482670573,-1.25553147984252,343.092440565203
738353.47663141344673931599,-6.27765739921262,-1.26784061199784,343.080131433047
738353.47663155931513756514,-6.2653482670573,-1.23091321553189,343.153986225979
738353.47663170518353581429,-6.2653482670573,-1.24322234768721,343.153986225979
738353.47663185105193406343,-6.2653482670573,-1.26784061199784,343.080131433047
738353.47663199692033231258,-6.31458479567858,-1.44016846217231,343.203222754601
738353.47663214278873056173,-6.25303913490198,-1.29245887630848,343.424787133396
738353.47663228865712881088,-6.11763868119348,-0.923184911648915,343.400168869086
738353.47663243452552706003,-5.77298298084455,-0.283110039572334,342.957040111494
738353.47663258039392530918,-5.66220079144668,0.209255246640421,342.920112715028
738353.47663272626232355833,-5.99454735964029,0.0123091321553189,342.920112715028
738353.47663287213072180748,-6.14225694550411,-0.603147475610625,342.637002675456
738353.47663301799912005663,-6.24073000274667,-1.02165796889147,342.944730979339
738353.47663316386751830578,-6.22842087059135,-1.13244015828934,343.117058829513
738353.47663330973591655493,-6.24073000274667,-1.18167668691061,343.166295358135
738353.47663345560431480408,-6.24073000274667,-1.21860408337657,343.092440565203
738353.47663360147271305323,-6.24073000274667,-1.21860408337657,343.190913622445
738353.47663374734111130238,-6.24073000274667,-1.23091321553189,343.203222754601
738353.47663389320950955153,-6.24073000274667,-1.24322234768721,343.190913622445
738353.47663403907790780067,-6.24073000274667,-1.23091321553189,343.203222754601
738353.47663418494630604982,-6.24073000274667,-1.24322234768721,343.203222754601
738353.47663433081470429897,-6.22842087059135,-1.23091321553189,343.190913622445
738353.47663447668310254812,-6.22842087059135,-1.23091321553189,343.215531886756
738353.47663462255150079727,-6.22842087059135,-1.23091321553189,343.240150151067
738353.47663476841989904642,-6.21611173843603,-1.21860408337657,343.240150151067
738353.47663491428829729557,-6.24073000274667,-1.23091321553189,343.203222754601
738353.47663506015669554472,-6.21611173843603,-1.21860408337657,343.252459283222
738353.47663520602509379387,-6.21611173843603,-1.19398581906593,343.252459283222
738353.47663535189349204302,-6.21611173843603,-1.19398581906593,343.264768415377
738353.47663549776189029217,-6.20380260628071,-1.18167668691061,343.252459283222
738353.47663564363028854132,-6.20380260628071,-1.15705842259997,343.301695811843
738353.47663578949868679047,-6.19149347412539,-1.14474929044465,343.326314076154
738353.47663593536708503962,-6.19149347412539,-1.13244015828934,343.104749697358
738353.47663608123548328876,-6.16687520981475,-1.12013102613402,343.252459283222
738353.47663622710388153791,-6.15456607765943,-1.09551276182338,343.38785973693
738353.47663637297227978706,-6.15456607765943,-1.05858536535742,343.36324147262
738353.47663651884067803621,-6.1299478133488,-1.02165796889147,343.326314076154
738353.47663666470907628536,-6.11763868119348,-0.972421440270191,343.412478001241
738353.47663681057747453451,-6.10532954903816,-0.923184911648915,343.424787133396
738353.47663695644587278366,-6.10532954903816,-0.886257515182958,343.498641926328
738353.47663710231427103281,-6.08071128472752,-0.837020986561683,343.474023662018
738353.47663724818266928196,-6.08071128472752,-0.837020986561683,343.535569322794
738353.47663739405106753111,-6.0684021525722,-0.800093590095726,343.535569322794
738353.47663753991946578026,-6.0684021525722,-0.787784457940408,343.474023662018
738353.47663768578786402941,-6.05609302041688,-0.787784457940408,343.461714529862
738353.47663783165626227856,-6.0684021525722,-0.837020986561683,343.437096265552
738353.47663797752466052771,-6.09302041688284,-0.910875779493596,343.38785973693
738353.47663812339305877686,-6.1299478133488,-0.997039704580828,343.252459283222
738353.47663826926145702600,-6.22842087059135,-1.19398581906593,343.067822300892
738353.47663841512985527515,-6.25303913490198,-1.21860408337657,343.215531886756
738353.47663856099825352430,-6.24073000274667,-1.21860408337657,343.215531886756
738353.47663870686665177345,-6.25303913490198,-1.21860408337657,343.129367961669
738353.47663885273505002260,-6.25303913490198,-1.21860408337657,343.203222754601
738353.47663899860344827175,-6.24073000274667,-1.21860408337657,343.240150151067
738353.47663914435543119907,-6.2653482670573,-1.23091321553189,343.227841018911
738353.47663929022382944822,-6.20380260628071,-1.16936755475529,343.190913622445
738353.47663943609222769737,-6.27765739921262,-1.23091321553189,343.252459283222
738353.47663958196062594652,-6.24073000274667,-1.19398581906593,343.264768415377
738353.47663972782902419567,-6.24073000274667,-1.20629495122125,343.166295358135
