time_dn,ecg_projection_ll_ra_mV,ecg_projection_la_ra_mV,ecg_projection_vx_rl_mV
738353.50293881329707801342,-6.58538570309559,-3.13882869960631,344.261808119958
738353.50293890491593629122,-6.57307657094027,-3.12651956745099,344.163335062716
738353.50293899665120989084,-6.58538570309559,-3.13882869960631,344.286426384269
738353.50293908827006816864,-6.58538570309559,-3.13882869960631,344.274117252113
738353.50293917988892644644,-6.59769483525091,-3.11421043529567,344.237189855647
738353.50293927162420004606,-6.58538570309559,-3.10190130314035,344.237189855647
738353.50293936324305832386,-6.59769483525091,-3.10190130314035,344.237189855647
738353.50293945497833192348,-6.58538570309559,-3.0649739066744,344.224880723492
738353.50293954659719020128,-6.58538570309559,-3.05266477451908,344.114098534094
738353.50293963833246380091,-6.59769483525091,-3.04035564236376,344.274117252113
738353.50293972995132207870,-6.62231309956155,-3.05266477451908,344.286426384269
738353.50293982168659567833,-6.67154962818283,-3.11421043529567,344.187953327026
738353.50293991330545395613,-6.68385876033815,-3.13882869960631,344.274117252113
738353.50294000504072755575,-6.67154962818283,-3.10190130314035,344.286426384269
738353.50294009665958583355,-6.67154962818283,-3.10190130314035,344.237189855647
738353.50294018827844411135,-6.68385876033815,-3.10190130314035,344.200262459181
738353.50294028001371771097,-6.69616789249346,-3.10190130314035,344.249498987803
738353.50294037163257598877,-6.70847702464878,-3.10190130314035,344.224880723492
738353.50294046336784958839,-6.70847702464878,-3.10190130314035,344.163335062716
738353.50294055498670786619,-6.70847702464878,-3.10190130314035,344.274117252113
738353.50294064672198146582,-6.7207861568041,-3.10190130314035,344.311044648579
738353.50294073834083974361,-6.75771355327006,-3.2619200211595,344.311044648579
738353.50294083007611334324,-6.7207861568041,-3.17575609607227,344.52029989522
738353.50294092169497162104,-6.56076743878496,-2.81879126356802,344.52029989522
738353.50294101331382989883,-6.28996653136794,-2.25257118442335,344.114098534094
738353.50294110504910349846,-6.04378388826156,-1.64942370881273,343.892534155299
738353.50294119666796177626,-6.33920305998922,-1.58787804803613,344.064862005473
738353.50294128840323537588,-6.58538570309559,-2.17871639149144,343.818679362367
738353.50294138002209365368,-6.70847702464878,-2.73262733848079,343.892534155299
738353.50294147175736725330,-6.7207861568041,-2.84340952787866,344.175644194871
738353.50294156337622553110,-6.7207861568041,-2.91726432081057,344.286426384269
738353.50294165511149913073,-6.73309528895942,-2.97880998158717,344.323353780735
738353.50294174673035740852,-6.74540442111474,-2.99111911374248,344.33566291289
738353.50294183846563100815,-6.74540442111474,-3.0034282458978,344.298735516424
738353.50294193008448928595,-6.74540442111474,-3.01573737805312,344.397208573667
738353.50294202170334756374,-6.75771355327006,-3.01573737805312,344.409517705822
738353.50294211343862116337,-6.75771355327006,-3.01573737805312,344.434135970133
738353.50294220505747944117,-6.77002268542538,-3.01573737805312,344.286426384269
738353.50294229679275304079,-6.77002268542538,-3.0034282458978,344.298735516424
738353.50294238841161131859,-6.77002268542538,-3.0034282458978,344.434135970133
738353.50294248014688491821,-6.77002268542538,-2.99111911374248,344.372590309356
738353.50294257176574319601,-6.77002268542538,-2.97880998158717,344.471063366599
738353.50294266350101679564,-6.77002268542538,-2.96650084943185,344.471063366599
738353.50294275511987507343,-6.75771355327006,-2.95419171727653,344.446445102288
738353.50294284673873335123,-6.77002268542538,-2.95419171727653,344.446445102288
738353.50294293847400695086,-6.77002268542538,-2.94188258512121,344.495681630909
738353.50294303009286522865,-6.75771355327006,-2.91726432081057,344.458754234443
738353.50294312182813882828,-6.74540442111474,-2.89264605649993,344.532609027375
738353.50294321344699710608,-6.74540442111474,-2.8680277921893,344.507990763064
738353.50294330518227070570,-6.73309528895942,-2.8680277921893,344.557227291686
738353.50294339680112898350,-6.73309528895942,-2.84340952787866,344.581845555996
738353.50294348853640258312,-6.7207861568041,-2.8064821314127,344.606463820307
738353.50294358015526086092,-6.70847702464878,-2.78186386710206,344.606463820307
738353.50294367189053446054,-6.69616789249346,-2.73262733848079,344.655700348928
738353.50294376350939273834,-6.67154962818283,-2.68339080985951,344.680318613239
738353.50294385512825101614,-6.64693136387219,-2.62184514908292,344.668009481084
738353.50294394686352461576,-6.63462223171687,-2.56029948830632,344.72955514186
738353.50294403848238289356,-6.62231309956155,-2.51106295968505,344.766482538326
738353.50294413021765649319,-6.59769483525091,-2.46182643106377,344.692627745394
738353.50294422183651477098,-6.58538570309559,-2.42489903459782,344.754173406171
738353.50294431357178837061,-6.58538570309559,-2.4125899024425,344.754173406171
738353.50294440519064664841,-6.59769483525091,-2.43720816675314,344.72955514186
738353.50294449692592024803,-6.61000396740623,-2.49875382752973,344.668009481084
738353.50294458854477852583,-6.64693136387219,-2.57260862046164,344.643391216773
738353.50294468016363680363,-6.68385876033815,-2.67108167770419,344.594154688152
738353.50294477189891040325,-6.7207861568041,-2.73262733848079,344.557227291686
738353.50294486351776868105,-6.75771355327006,-2.79417299925738,344.495681630909
738353.50294495525304228067,-6.77002268542538,-2.84340952787866,344.52029989522
738353.50294504687190055847,-6.7823318175807,-2.85571866003398,344.52029989522
738353.50294513860717415810,-6.79464094973601,-2.88033692434461,344.495681630909
738353.50294523022603243589,-6.81925921404665,-2.90495518865525,344.495681630909
738353.50294532196130603552,-6.81925921404665,-2.91726432081057,344.495681630909
738353.50294541358016431332,-6.81925921404665,-2.91726432081057,344.507990763064
738353.50294550531543791294,-6.81925921404665,-2.91726432081057,344.507990763064
738353.50294559693429619074,-6.81925921404665,-2.91726432081057,344.483372498754
738353.50294568855315446854,-6.81925921404665,-2.91726432081057,344.458754234443
738353.50294578028842806816,-6.81925921404665,-2.90495518865525,344.409517705822
738353.50294587190728634596,-6.80695008189133,-2.90495518865525,344.372590309356
738353.50294596364255994558,-6.81925921404665,-2.91726432081057,344.483372498754
738353.50294605526141822338,-6.81925921404665,-2.92957345296589,344.507990763064
738353.50294614699669182301,-6.83156834620197,-2.91726432081057,344.52029989522
738353.50294623861555010080,-6.81925921404665,-2.91726432081057,344.434135970133
738353.50294633035082370043,-6.81925921404665,-2.91726432081057,344.507990763064
738353.50294642196968197823,-6.80695008189133,-2.91726432081057,344.52029989522
738353.50294651358854025602,-6.81925921404665,-2.91726432081057,344.458754234443
738353.50294660532381385565,-6.81925921404665,-2.92957345296589,344.397208573667
738353.50294669694267213345,-6.80695008189133,-2.91726432081057,344.507990763064
738353.50294678867794573307,-6.80695008189133,-2.92957345296589,344.52029989522
738353.50294688029680401087,-6.80695008189133,-2.91726432081057,344.446445102288
738353.50294697203207761049,-6.80695008189133,-2.91726432081057,344.471063366599
738353.50294706365093588829,-6.80695008189133,-2.92957345296589,344.507990763064
738353.50294715538620948792,-6.80695008189133,-2.92957345296589,344.52029989522
738353.50294724700506776571,-6.80695008189133,-2.92957345296589,344.458754234443
738353.50294733874034136534,-6.80695008189133,-2.92957345296589,344.52029989522
738353.50294743035919964314,-6.79464094973601,-2.91726432081057,344.495681630909
738353.50294752197805792093,-6.79464094973601,-2.91726432081057,344.507990763064
738353.50294761371333152056,-6.80695008189133,-2.92957345296589,344.409517705822
738353.50294770533218979836,-6.79464094973601,-2.92957345296589,344.495681630909
738353.50294779706746339798,-6.79464094973601,-2.92957345296589,344.52029989522
738353.50294788868632167578,-6.79464094973601,-2.92957345296589,344.495681630909
738353.50294798042159527540,-6.79464094973601,-2.92957345296589,344.483372498754
738353.50294807204045355320,-6.79464094973601,-2.94188258512121,344.52029989522
738353.50294816377572715282,-6.79464094973601,-2.91726432081057,344.507990763064
738353.50294825539458543062,-6.79464094973601,-2.92957345296589,344.458754234443
738353.50294834701344370842,-6.80695008189133,-2.94188258512121,344.507990763064
738353.50294843874871730804,-6.79464094973601,-2.94188258512121,344.52029989522
738353.50294853036757558584,-6.7823318175807,-2.92957345296589,344.495681630909
738353.50294862210284918547,-6.7823318175807,-2.91726432081057,344.495681630909
738353.50294871372170746326,-6.79464094973601,-2.92957345296589,344.507990763064
738353.50294880545698106289,-6.79464094973601,-2.92957345296589,344.507990763064
738353.50294889707583934069,-6.7823318175807,-2.94188258512121,344.507990763064
738353.50294898881111294031,-6.7823318175807,-2.94188258512121,344.471063366599
738353.50294908042997121811,-6.77002268542538,-2.92957345296589,344.507990763064
738353.50294917216524481773,-6.7823318175807,-2.92957345296589,344.507990763064
738353.50294926378410309553,-6.77002268542538,-2.92957345296589,344.360281177201
738353.50294935540296137333,-6.77002268542538,-2.92957345296589,344.372590309356
738353.50294944713823497295,-6.74540442111474,-2.91726432081057,344.323353780735
738353.50294953875709325075,-6.75771355327006,-2.92957345296589,344.446445102288
738353.50294963049236685038,-6.77002268542538,-2.94188258512121,344.421826837977
738353.50294972211122512817,-6.75771355327006,-2.94188258512121,344.52029989522
738353.50294981384649872780,-6.75771355327006,-2.94188258512121,344.507990763064
738353.50294990546535700560,-6.74540442111474,-2.92957345296589,344.421826837977
738353.50294999720063060522,-6.75771355327006,-2.94188258512121,344.52029989522
738353.50295008881948888302,-6.75771355327006,-2.94188258512121,344.495681630909
738353.50295018043834716082,-6.74540442111474,-2.92957345296589,344.471063366599
738353.50295027217362076044,-6.74540442111474,-2.92957345296589,344.507990763064
738353.50295036379247903824,-6.74540442111474,-2.92957345296589,344.507990763064
738353.50295045552775263786,-6.74540442111474,-2.92957345296589,344.483372498754
738353.50295054714661091566,-6.73309528895942,-2.94188258512121,344.421826837977
738353.50295063888188451529,-6.73309528895942,-2.92957345296589,344.483372498754
738353.50295073050074279308,-6.73309528895942,-2.92957345296589,344.495681630909
738353.50295082223601639271,-6.7207861568041,-2.92957345296589,344.507990763064
738353.50295091385487467051,-6.7207861568041,-2.92957345296589,344.446445102288
738353.50295100559014827013,-6.7207861568041,-2.91726432081057,344.495681630909
738353.50295109720900654793,-6.7207861568041,-2.92957345296589,344.458754234443
738353.50295118882786482573,-6.7207861568041,-2.92957345296589,344.483372498754
738353.50295128056313842535,-6.70847702464878,-2.92957345296589,344.495681630909
738353.50295137218199670315,-6.70847702464878,-2.92957345296589,344.483372498754
738353.50295146391727030277,-6.70847702464878,-2.94188258512121,344.421826837977
738353.50295155553612858057,-6.69616789249346,-2.92957345296589,344.483372498754
738353.50295164727140218019,-6.70847702464878,-2.94188258512121,344.483372498754
738353.50295173889026045799,-6.69616789249346,-2.92957345296589,344.446445102288
738353.50295183062553405762,-6.69616789249346,-2.92957345296589,344.495681630909
738353.50295192224439233541,-6.67154962818283,-2.91726432081057,344.507990763064
738353.50295201386325061321,-6.67154962818283,-2.91726432081057,344.495681630909
738353.50295210559852421284,-6.65924049602751,-2.92957345296589,344.458754234443
738353.50295219721738249063,-6.67154962818283,-2.94188258512121,344.495681630909
738353.50295228895265609026,-6.65924049602751,-2.91726432081057,344.495681630909
738353.50295238057151436806,-6.64693136387219,-2.91726432081057,344.446445102288
738353.50295247230678796768,-6.65924049602751,-2.92957345296589,344.446445102288
738353.50295256392564624548,-6.63462223171687,-2.90495518865525,344.471063366599
738353.50295265566091984510,-6.62231309956155,-2.88033692434461,344.483372498754
738353.50295274727977812290,-6.62231309956155,-2.88033692434461,344.458754234443
738353.50295283901505172253,-6.64693136387219,-2.88033692434461,344.507990763064
738353.50295293063391000032,-6.67154962818283,-2.91726432081057,344.434135970133
738353.50295302225276827812,-6.67154962818283,-2.96650084943185,344.286426384269
738353.50295311398804187775,-6.67154962818283,-2.95419171727653,344.483372498754
738353.50295320560690015554,-6.67154962818283,-2.95419171727653,344.495681630909
738353.50295329734217375517,-6.65924049602751,-2.95419171727653,344.384899441511
738353.50295338896103203297,-6.67154962818283,-2.95419171727653,344.495681630909
738353.50295348069630563259,-6.67154962818283,-2.96650084943185,344.507990763064
738353.50295357231516391039,-6.65924049602751,-2.95419171727653,344.483372498754
738353.50295366405043751001,-6.64693136387219,-2.95419171727653,344.483372498754
738353.50295375566929578781,-6.64693136387219,-2.95419171727653,344.507990763064
738353.50295384728815406561,-6.67154962818283,-3.07728303882972,344.507990763064
738353.50295393902342766523,-6.67154962818283,-3.11421043529567,344.594154688152
738353.50295403064228594303,-6.51153091016368,-2.79417299925738,344.754173406171
738353.50295412237755954266,-6.28996653136794,-2.31411684519995,344.384899441511
738353.50295421399641782045,-5.96992909532965,-1.63711457665741,344.064862005473
738353.50295430573169142008,-6.15456607765943,-1.44016846217231,344.089480269784
738353.50295439735054969788,-6.33920305998922,-1.62480544450209,344.15102593056
738353.50295448908582329750,-6.49922177800836,-2.28949858088931,344.064862005473
738353.50295458070468157530,-6.58538570309559,-2.70800907417015,344.249498987803
738353.50295467243995517492,-6.57307657094027,-2.8064821314127,344.458754234443
738353.50295476405881345272,-6.57307657094027,-2.8680277921893,344.495681630909
738353.50295485567767173052,-6.58538570309559,-2.90495518865525,344.483372498754
738353.50295494741294533014,-6.57307657094027,-2.91726432081057,344.52029989522
738353.50295503903180360794,-6.58538570309559,-2.92957345296589,344.483372498754
738353.50295513076707720757,-6.58538570309559,-2.92957345296589,344.483372498754
738353.50295522238593548536,-6.57307657094027,-2.92957345296589,344.495681630909
738353.50295531412120908499,-6.57307657094027,-2.94188258512121,344.532609027375
738353.50295540574006736279,-6.57307657094027,-2.94188258512121,344.532609027375
738353.50295549747534096241,-6.56076743878496,-2.92957345296589,344.507990763064
738353.50295558909419924021,-6.54845830662964,-2.92957345296589,344.557227291686
738353.50295568071305751801,-6.54845830662964,-2.91726432081057,344.569536423841
738353.50295577244833111763,-6.53614917447432,-2.91726432081057,344.52029989522
738353.50295586406718939543,-6.53614917447432,-2.90495518865525,344.54491815953
738353.50295595580246299505,-6.523840042319,-2.89264605649993,344.581845555996
738353.50295604742132127285,-6.523840042319,-2.89264605649993,344.581845555996
738353.50295613915659487247,-6.51153091016368,-2.89264605649993,344.581845555996
738353.50295623077545315027,-6.49922177800836,-2.88033692434461,344.581845555996
738353.50295632251072674990,-6.48691264585304,-2.8680277921893,344.618772952462
738353.50295641412958502769,-6.47460351369772,-2.83110039572334,344.594154688152
738353.50295650586485862732,-6.46229438154241,-2.81879126356802,344.581845555996
738353.50295659748371690512,-6.43767611723177,-2.79417299925738,344.507990763064
738353.50295668910257518291,-6.42536698507645,-2.75724560279143,344.643391216773
738353.50295678083784878254,-6.41305785292113,-2.72031820632547,344.692627745394
738353.50295687245670706034,-6.40074872076581,-2.67108167770419,344.717246009705
738353.50295696419198065996,-6.36382132429985,-2.62184514908292,344.668009481084
738353.50295705581083893776,-6.33920305998922,-2.57260862046164,344.778791670481
738353.50295714754611253738,-6.3268939278339,-2.52337209184037,344.791100802637
738353.50295723916497081518,-6.30227566352326,-2.47413556321909,344.803409934792
738353.50295733090024441481,-6.28996653136794,-2.43720816675314,344.791100802637
738353.50295742251910269260,-6.27765739921262,-2.4125899024425,344.791100802637
738353.50295751413796097040,-6.27765739921262,-2.42489903459782,344.766482538326
738353.50295760587323457003,-6.27765739921262,-2.47413556321909,344.680318613239
738353.50295769749209284782,-6.31458479567858,-2.56029948830632,344.668009481084
738353.50295778922736644745,-6.35151219214454,-2.64646341339356,344.618772952462
738353.50295788084622472525,-6.38843958861049,-2.73262733848079,344.495681630909
738353.50295797258149832487,-6.41305785292113,-2.8064821314127,344.557227291686
738353.50295806420035660267,-6.42536698507645,-2.83110039572334,344.532609027375
738353.50295815593563020229,-6.43767611723177,-2.8680277921893,344.52029989522
738353.50295824755448848009,-6.46229438154241,-2.91726432081057,344.409517705822
738353.50295833928976207972,-6.47460351369772,-2.92957345296589,344.434135970133
738353.50295843090862035751,-6.47460351369772,-2.94188258512121,344.409517705822
738353.50295852252747863531,-6.47460351369772,-2.95419171727653,344.372590309356
738353.50295861426275223494,-6.47460351369772,-2.95419171727653,344.397208573667
738353.50295870588161051273,-6.47460351369772,-2.95419171727653,344.421826837977
738353.50295879761688411236,-6.46229438154241,-2.95419171727653,344.471063366599
738353.50295888923574239016,-6.46229438154241,-2.95419171727653,344.458754234443
738353.50295898097101598978,-6.46229438154241,-2.96650084943185,344.446445102288
738353.50295907258987426758,-6.47460351369772,-2.97880998158717,344.347972045045
738353.50295916432514786720,-6.46229438154241,-2.96650084943185,344.347972045045
738353.50295925594400614500,-6.46229438154241,-2.96650084943185,344.384899441511
738353.50295934756286442280,-6.44998524938709,-2.96650084943185,344.458754234443
738353.50295943929813802242,-6.46229438154241,-2.97880998158717,344.446445102288
738353.50295953091699630022,-6.46229438154241,-2.97880998158717,344.409517705822
738353.50295962265226989985,-6.46229438154241,-2.97880998158717,344.323353780735
738353.50295971427112817764,-6.44998524938709,-2.97880998158717,344.446445102288
738353.50295980600640177727,-6.44998524938709,-2.97880998158717,344.421826837977
738353.50295989762526005507,-6.44998524938709,-2.97880998158717,344.458754234443
738353.50295998936053365469,-6.44998524938709,-2.99111911374248,344.397208573667
738353.50296008097939193249,-6.44998524938709,-2.97880998158717,344.372590309356
738353.50296017271466553211,-6.44998524938709,-2.99111911374248,344.274117252113
738353.50296026433352380991,-6.44998524938709,-3.0034282458978,344.434135970133
738353.50296035595238208771,-6.44998524938709,-3.0034282458978,344.434135970133
738353.50296044768765568733,-6.44998524938709,-3.01573737805312,344.446445102288
738353.50296053930651396513,-6.44998524938709,-3.01573737805312,344.434135970133
738353.50296063104178756475,-6.43767611723177,-3.01573737805312,344.421826837977
738353.50296072266064584255,-6.43767611723177,-3.01573737805312,344.434135970133
738353.50296081439591944218,-6.44998524938709,-3.01573737805312,344.434135970133
738353.50296090601477771997,-6.43767611723177,-3.01573737805312,344.421826837977
738353.50296099775005131960,-6.43767611723177,-3.01573737805312,344.409517705822
738353.50296108936890959740,-6.43767611723177,-3.02804651020844,344.434135970133
738353.50296118098776787519,-6.43767611723177,-3.02804651020844,344.421826837977
738353.50296127272304147482,-6.43767611723177,-3.02804651020844,344.347972045045
738353.50296136434189975262,-6.42536698507645,-3.02804651020844,344.434135970133
738353.50296145607717335224,-6.44998524938709,-3.04035564236376,344.434135970133
738353.50296154769603163004,-6.43767611723177,-3.04035564236376,344.384899441511
738353.50296163943130522966,-6.42536698507645,-3.02804651020844,344.409517705822
738353.50296173105016350746,-6.43767611723177,-3.02804651020844,344.421826837977
738353.50296182278543710709,-6.43767611723177,-3.04035564236376,344.409517705822
738353.50296191440429538488,-6.43767611723177,-3.05266477451908,344.323353780735
738353.50296200613956898451,-6.43767611723177,-3.05266477451908,344.397208573667
738353.50296209775842726231,-6.43767611723177,-3.04035564236376,344.397208573667
738353.50296218937728554010,-6.43767611723177,-3.05266477451908,344.384899441511
738353.50296228111255913973,-6.42536698507645,-3.05266477451908,344.384899441511
738353.50296237273141741753,-6.42536698507645,-3.04035564236376,344.409517705822
738353.50296246446669101715,-6.42536698507645,-3.05266477451908,344.372590309356
738353.50296255608554929495,-6.42536698507645,-3.05266477451908,344.384899441511
738353.50296264782082289457,-6.42536698507645,-3.05266477451908,344.347972045045
738353.50296273943968117237,-6.42536698507645,-3.05266477451908,344.33566291289
738353.50296283117495477200,-6.42536698507645,-3.05266477451908,344.397208573667
738353.50296292279381304979,-6.41305785292113,-3.04035564236376,344.33566291289
738353.50296301441267132759,-6.42536698507645,-3.0649739066744,344.311044648579
738353.50296310614794492722,-6.42536698507645,-3.05266477451908,344.323353780735
738353.50296319776680320501,-6.42536698507645,-3.0649739066744,344.261808119958
738353.50296328950207680464,-6.42536698507645,-3.0649739066744,344.237189855647
738353.50296338112093508244,-6.42536698507645,-3.07728303882972,344.311044648579
738353.50296347285620868206,-6.41305785292113,-3.0649739066744,344.33566291289
738353.50296356447506695986,-6.42536698507645,-3.0649739066744,344.384899441511
738353.50296365621034055948,-6.42536698507645,-3.0649739066744,344.274117252113
738353.50296374782919883728,-6.42536698507645,-3.0649739066744,344.212571591337
738353.50296383956447243690,-6.42536698507645,-3.0649739066744,344.384899441511
738353.50296393118333071470,-6.41305785292113,-3.0649739066744,344.347972045045
738353.50296402280218899250,-6.42536698507645,-3.0649739066744,344.384899441511
738353.50296411453746259212,-6.41305785292113,-3.07728303882972,344.397208573667
738353.50296420615632086992,-6.41305785292113,-3.0649739066744,344.372590309356
738353.50296429789159446955,-6.42536698507645,-3.0649739066744,344.397208573667
738353.50296438951045274734,-6.41305785292113,-3.0649739066744,344.347972045045
738353.50296448124572634697,-6.41305785292113,-3.0649739066744,344.397208573667
738353.50296457286458462477,-6.42536698507645,-3.07728303882972,344.360281177201
738353.50296466459985822439,-6.41305785292113,-3.0649739066744,344.347972045045
738353.50296475621871650219,-6.42536698507645,-3.0649739066744,344.347972045045
738353.50296484783757477999,-6.42536698507645,-3.07728303882972,344.360281177201
738353.50296493957284837961,-6.41305785292113,-3.07728303882972,344.372590309356
738353.50296503119170665741,-6.41305785292113,-3.07728303882972,344.397208573667
738353.50296512292698025703,-6.42536698507645,-3.08959217098504,344.384899441511
738353.50296521454583853483,-6.41305785292113,-3.08959217098504,344.360281177201
738353.50296530628111213446,-6.42536698507645,-3.08959217098504,344.397208573667
738353.50296539789997041225,-6.41305785292113,-3.07728303882972,344.397208573667
738353.50296548963524401188,-6.40074872076581,-3.07728303882972,344.372590309356
738353.50296558125410228968,-6.40074872076581,-3.07728303882972,344.372590309356
738353.50296567298937588930,-6.40074872076581,-3.08959217098504,344.384899441511
738353.50296576460823416710,-6.38843958861049,-3.07728303882972,344.372590309356
738353.50296585622709244490,-6.38843958861049,-3.07728303882972,344.347972045045
738353.50296594796236604452,-6.40074872076581,-3.08959217098504,344.347972045045
738353.50296603958122432232,-6.37613045645517,-3.05266477451908,344.347972045045
738353.50296613131649792194,-6.37613045645517,-3.02804651020844,344.33566291289
738353.50296622293535619974,-6.38843958861049,-3.02804651020844,344.372590309356
738353.50296631467062979937,-6.41305785292113,-3.05266477451908,344.372590309356
738353.50296640628948807716,-6.44998524938709,-3.11421043529567,344.323353780735
738353.50296649802476167679,-6.43767611723177,-3.11421043529567,344.372590309356
738353.50296658964361995459,-6.43767611723177,-3.11421043529567,344.311044648579
738353.50296668126247823238,-6.43767611723177,-3.11421043529567,344.298735516424
738353.50296677299775183201,-6.43767611723177,-3.11421043529567,344.298735516424
738353.50296686461661010981,-6.43767611723177,-3.10190130314035,344.261808119958
738353.50296695635188370943,-6.43767611723177,-3.11421043529567,344.33566291289
738353.50296704797074198723,-6.43767611723177,-3.10190130314035,344.33566291289
738353.50296713970601558685,-6.43767611723177,-3.11421043529567,344.347972045045
738353.50296723132487386465,-6.44998524938709,-3.13882869960631,344.12640766625
738353.50296732306014746428,-6.46229438154241,-3.22499262469354,344.175644194871
738353.50296741467900574207,-6.47460351369772,-3.28653828547014,344.434135970133
738353.50296750641427934170,-6.33920305998922,-2.99111911374248,344.717246009705
738353.50296759803313761950,-6.1299478133488,-2.53568122399569,344.397208573667
738353.50296768965199589729,-5.79760124515519,-1.85867895545315,344.101789401939
738353.50296778138726949692,-5.93300169886369,-1.58787804803613,344.12640766625
738353.50296787300612777472,-6.24073000274667,-2.04331593778293,344.015625476852
738353.50296796474140137434,-6.37613045645517,-2.72031820632547,343.929461551764
738353.50296805636025965214,-6.41305785292113,-2.94188258512121,344.15102593056
738353.50296814809553325176,-6.38843958861049,-2.99111911374248,344.286426384269
738353.50296823971439152956,-6.40074872076581,-3.04035564236376,344.298735516424
738353.50296833144966512918,-6.41305785292113,-3.0649739066744,344.298735516424
738353.50296842306852340698,-6.41305785292113,-3.07728303882972,344.360281177201
738353.50296851468738168478,-6.40074872076581,-3.07728303882972,344.360281177201
738353.50296860642265528440,-6.41305785292113,-3.08959217098504,344.421826837977
738353.50296869804151356220,-6.42536698507645,-3.10190130314035,344.421826837977
738353.50296878977678716183,-6.41305785292113,-3.10190130314035,344.360281177201
738353.50296888139564543962,-6.42536698507645,-3.10190130314035,344.434135970133
738353.50296897313091903925,-6.41305785292113,-3.08959217098504,344.434135970133
738353.50296906474977731705,-6.40074872076581,-3.07728303882972,344.409517705822
738353.50296915648505091667,-6.40074872076581,-3.07728303882972,344.360281177201
738353.50296924810390919447,-6.40074872076581,-3.07728303882972,344.458754234443
738353.50296933983918279409,-6.40074872076581,-3.0649739066744,344.458754234443
738353.50296943145804107189,-6.40074872076581,-3.0649739066744,344.409517705822
738353.50296952307689934969,-6.38843958861049,-3.04035564236376,344.471063366599
738353.50296961481217294931,-6.38843958861049,-3.04035564236376,344.471063366599
738353.50296970643103122711,-6.36382132429985,-3.01573737805312,344.458754234443
738353.50296979816630482674,-6.36382132429985,-3.0034282458978,344.495681630909
738353.50296988978516310453,-6.35151219214454,-2.99111911374248,344.52029989522
738353.50296998152043670416,-6.33920305998922,-2.96650084943185,344.532609027375
738353.50297007313929498196,-6.33920305998922,-2.94188258512121,344.532609027375
738353.50297016487456858158,-6.3268939278339,-2.90495518865525,344.569536423841
738353.50297025649342685938,-6.30227566352326,-2.85571866003398,344.631082084618
738353.50297034811228513718,-6.27765739921262,-2.81879126356802,344.643391216773
738353.50297043984755873680,-6.2653482670573,-2.76955473494675,344.668009481084
738353.50297053146641701460,-6.25303913490198,-2.72031820632547,344.70493687755
738353.50297062320169061422,-6.24073000274667,-2.65877254554888,344.72955514186
738353.50297071482054889202,-6.21611173843603,-2.62184514908292,344.692627745394
738353.50297080655582249165,-6.20380260628071,-2.58491775261696,344.52029989522
738353.50297089817468076944,-6.19149347412539,-2.56029948830632,344.618772952462
738353.50297098990995436907,-6.17918434197007,-2.56029948830632,344.668009481084
738353.50297108152881264687,-6.21611173843603,-2.62184514908292,344.54491815953
738353.50297117326408624649,-6.24073000274667,-2.69569994201483,344.606463820307
738353.50297126488294452429,-6.27765739921262,-2.78186386710206,344.557227291686
738353.50297135650180280209,-6.30227566352326,-2.8680277921893,344.507990763064
738353.50297144823707640171,-6.33920305998922,-2.94188258512121,344.446445102288
738353.50297153985593467951,-6.37613045645517,-3.0034282458978,344.458754234443
738353.50297163159120827913,-6.40074872076581,-3.04035564236376,344.409517705822
738353.50297172321006655693,-6.41305785292113,-3.0649739066744,344.397208573667
738353.50297181494534015656,-6.42536698507645,-3.07728303882972,344.33566291289
738353.50297190656419843435,-6.42536698507645,-3.08959217098504,344.323353780735
738353.50297199829947203398,-6.42536698507645,-3.08959217098504,344.311044648579
738353.50297208991833031178,-6.43767611723177,-3.10190130314035,344.347972045045
738353.50297218153718858957,-6.43767611723177,-3.11421043529567,344.347972045045
738353.50297227327246218920,-6.43767611723177,-3.10190130314035,344.311044648579
738353.50297236489132046700,-6.43767611723177,-3.11421043529567,344.286426384269
738353.50297245662659406662,-6.43767611723177,-3.11421043529567,344.421826837977
738353.50297254824545234442,-6.43767611723177,-3.10190130314035,344.421826837977
738353.50297263998072594404,-6.43767611723177,-3.11421043529567,344.384899441511
738353.50297273159958422184,-6.43767611723177,-3.11421043529567,344.372590309356
738353.50297282333485782146,-6.43767611723177,-3.11421043529567,344.397208573667
738353.50297291495371609926,-6.43767611723177,-3.12651956745099,344.384899441511
738353.50297300668898969889,-6.44998524938709,-3.12651956745099,344.347972045045
738353.50297309830784797668,-6.43767611723177,-3.12651956745099,344.397208573667
738353.50297318992670625448,-6.43767611723177,-3.12651956745099,344.397208573667
738353.50297328166197985411,-6.44998524938709,-3.12651956745099,344.409517705822
738353.50297337328083813190,-6.43767611723177,-3.12651956745099,344.372590309356
738353.50297346501611173153,-6.43767611723177,-3.13882869960631,344.397208573667
738353.50297355663497000933,-6.44998524938709,-3.12651956745099,344.397208573667
738353.50297364837024360895,-6.43767611723177,-3.12651956745099,344.397208573667
738353.50297373998910188675,-6.44998524938709,-3.13882869960631,344.397208573667
738353.50297383172437548637,-6.44998524938709,-3.15113783176163,344.384899441511
738353.50297392334323376417,-6.44998524938709,-3.13882869960631,344.397208573667
738353.50297401496209204197,-6.44998524938709,-3.15113783176163,344.298735516424
738353.50297410669736564159,-6.46229438154241,-3.15113783176163,344.384899441511
738353.50297419831622391939,-6.46229438154241,-3.15113783176163,344.384899441511
738353.50297429005149751902,-6.46229438154241,-3.15113783176163,344.397208573667
738353.50297438167035579681,-6.46229438154241,-3.15113783176163,344.15102593056
738353.50297447340562939644,-6.46229438154241,-3.15113783176163,344.286426384269
738353.50297456502448767424,-6.46229438154241,-3.16344696391695,344.384899441511
738353.50297465675976127386,-6.46229438154241,-3.15113783176163,344.384899441511
738353.50297474837861955166,-6.46229438154241,-3.15113783176163,344.360281177201
738353.50297484011389315128,-6.46229438154241,-3.16344696391695,344.224880723492
738353.50297493173275142908,-6.47460351369772,-3.16344696391695,344.384899441511
738353.50297502335160970688,-6.47460351369772,-3.17575609607227,344.372590309356
738353.50297511508688330650,-6.47460351369772,-3.17575609607227,344.347972045045
738353.50297520670574158430,-6.47460351369772,-3.17575609607227,344.372590309356
738353.50297529844101518393,-6.46229438154241,-3.17575609607227,344.384899441511
738353.50297539005987346172,-6.46229438154241,-3.17575609607227,344.372590309356
738353.50297548179514706135,-6.46229438154241,-3.16344696391695,344.323353780735
738353.50297557341400533915,-6.48691264585304,-3.17575609607227,344.372590309356
738353.50297566514927893877,-6.47460351369772,-3.17575609607227,344.360281177201
738353.50297575676813721657,-6.46229438154241,-3.16344696391695,344.311044648579
738353.50297584838699549437,-6.47460351369772,-3.16344696391695,344.372590309356
738353.50297594012226909399,-6.47460351369772,-3.17575609607227,344.360281177201
738353.50297603174112737179,-6.47460351369772,-3.17575609607227,344.323353780735
738353.50297612347640097141,-6.48691264585304,-3.17575609607227,344.360281177201
738353.50297621509525924921,-6.48691264585304,-3.18806522822759,344.360281177201
738353.50297630683053284883,-6.48691264585304,-3.17575609607227,344.311044648579
738353.50297639844939112663,-6.47460351369772,-3.17575609607227,344.360281177201
738353.50297649018466472626,-6.48691264585304,-3.18806522822759,344.360281177201
738353.50297658180352300406,-6.47460351369772,-3.18806522822759,344.347972045045
738353.50297667353879660368,-6.47460351369772,-3.18806522822759,344.311044648579
738353.50297676515765488148,-6.47460351369772,-3.18806522822759,344.360281177201
738353.50297685677651315928,-6.48691264585304,-3.18806522822759,344.384899441511
738353.50297694851178675890,-6.47460351369772,-3.18806522822759,344.286426384269
738353.50297704013064503670,-6.46229438154241,-3.17575609607227,344.372590309356
738353.50297713186591863632,-6.47460351369772,-3.17575609607227,344.372590309356
738353.50297722348477691412,-6.47460351369772,-3.18806522822759,344.311044648579
738353.50297731522005051374,-6.47460351369772,-3.18806522822759,344.347972045045
738353.50297740683890879154,-6.47460351369772,-3.17575609607227,344.311044648579
738353.50297749857418239117,-6.46229438154241,-3.18806522822759,344.360281177201
738353.50297759019304066896,-6.47460351369772,-3.18806522822759,344.360281177201
738353.50297768181189894676,-6.48691264585304,-3.18806522822759,344.347972045045
738353.50297777354717254639,-6.47460351369772,-3.20037436038291,344.323353780735
738353.50297786516603082418,-6.48691264585304,-3.20037436038291,344.360281177201
738353.50297795690130442381,-6.47460351369772,-3.18806522822759,344.175644194871
738353.50297804852016270161,-6.46229438154241,-3.18806522822759,344.274117252113
738353.50297814025543630123,-6.47460351369772,-3.20037436038291,344.347972045045
738353.50297823187429457903,-6.47460351369772,-3.18806522822759,344.360281177201
738353.50297832360956817865,-6.47460351369772,-3.18806522822759,344.360281177201
738353.50297841522842645645,-6.47460351369772,-3.18806522822759,344.360281177201
738353.50297850696370005608,-6.47460351369772,-3.18806522822759,344.311044648579
738353.50297859858255833387,-6.47460351369772,-3.18806522822759,344.286426384269
738353.50297869020141661167,-6.47460351369772,-3.18806522822759,344.286426384269
738353.50297878193669021130,-6.48691264585304,-3.20037436038291,344.298735516424
738353.50297887355554848909,-6.47460351369772,-3.18806522822759,344.286426384269
738353.50297896529082208872,-6.47460351369772,-3.18806522822759,344.360281177201
738353.50297905690968036652,-6.46229438154241,-3.18806522822759,344.347972045045
738353.50297914864495396614,-6.46229438154241,-3.20037436038291,344.347972045045
738353.50297924026381224394,-6.46229438154241,-3.20037436038291,344.360281177201
738353.50297933199908584356,-6.44998524938709,-3.17575609607227,344.347972045045
738353.50297942361794412136,-6.44998524938709,-3.18806522822759,344.298735516424
738353.50297951523680239916,-6.42536698507645,-3.13882869960631,344.323353780735
738353.50297960697207599878,-6.43767611723177,-3.12651956745099,344.33566291289
738353.50297969859093427658,-6.43767611723177,-3.13882869960631,344.187953327026
738353.50297979032620787621,-6.46229438154241,-3.15113783176163,344.347972045045
738353.50297988194506615400,-6.49922177800836,-3.22499262469354,344.347972045045
738353.50297997368033975363,-6.49922177800836,-3.22499262469354,344.323353780735
738353.50298006529919803143,-6.48691264585304,-3.21268349253822,344.33566291289
738353.50298015703447163105,-6.49922177800836,-3.21268349253822,344.33566291289
738353.50298024865332990885,-6.49922177800836,-3.22499262469354,344.33566291289
738353.50298034038860350847,-6.49922177800836,-3.22499262469354,344.298735516424
738353.50298043200746178627,-6.48691264585304,-3.22499262469354,344.224880723492
738353.50298052362632006407,-6.48691264585304,-3.22499262469354,344.347972045045
738353.50298061536159366369,-6.48691264585304,-3.21268349253822,344.347972045045
738353.50298070698045194149,-6.49922177800836,-3.22499262469354,344.323353780735
738353.50298079871572554111,-6.51153091016368,-3.33577481409141,344.347972045045
738353.50298089033458381891,-6.523840042319,-3.38501134271269,344.471063366599
738353.50298098206985741854,-6.38843958861049,-3.0649739066744,344.70493687755
738353.50298107368871569633,-6.17918434197007,-2.59722688477228,344.311044648579
738353.50298116542398929596,-5.83452864162114,-1.92022461622974,343.991007212541
738353.50298125704284757376,-5.99454735964029,-1.698660237434,344.040243741162
738353.50298134866170585155,-6.28996653136794,-2.17871639149144,343.917152419609
738353.50298144039697945118,-6.44998524938709,-2.85571866003398,343.96638894823
738353.50298153201583772898,-6.47460351369772,-3.0649739066744,344.015625476852
738353.50298162375111132860,-6.44998524938709,-3.10190130314035,344.12640766625
738353.50298171536996960640,-6.46229438154241,-3.15113783176163,344.360281177201
738353.50298180710524320602,-6.46229438154241,-3.17575609607227,344.372590309356
738353.50298189872410148382,-6.47460351369772,-3.18806522822759,344.360281177201
738353.50298199045937508345,-6.48691264585304,-3.20037436038291,344.360281177201
738353.50298208207823336124,-6.47460351369772,-3.20037436038291,344.372590309356
738353.50298217369709163904,-6.47460351369772,-3.18806522822759,344.384899441511
738353.50298226543236523867,-6.46229438154241,-3.18806522822759,344.397208573667
738353.50298235705122351646,-6.48691264585304,-3.20037436038291,344.372590309356
738353.50298244878649711609,-6.47460351369772,-3.20037436038291,344.409517705822
738353.50298254040535539389,-6.46229438154241,-3.18806522822759,344.397208573667
738353.50298263214062899351,-6.47460351369772,-3.17575609607227,344.384899441511
738353.50298272375948727131,-6.46229438154241,-3.17575609607227,344.397208573667
738353.50298281549476087093,-6.44998524938709,-3.15113783176163,344.397208573667
738353.50298290711361914873,-6.44998524938709,-3.15113783176163,344.409517705822
738353.50298299884889274836,-6.46229438154241,-3.15113783176163,344.409517705822
738353.50298309046775102615,-6.44998524938709,-3.15113783176163,344.434135970133
738353.50298318208660930395,-6.43767611723177,-3.11421043529567,344.458754234443
738353.50298327382188290358,-6.43767611723177,-3.11421043529567,344.384899441511
738353.50298336544074118137,-6.42536698507645,-3.08959217098504,344.397208573667
738353.50298345717601478100,-6.41305785292113,-3.0649739066744,344.421826837977
738353.50298354879487305880,-6.40074872076581,-3.02804651020844,344.409517705822
738353.50298364053014665842,-6.40074872076581,-2.99111911374248,344.471063366599
738353.50298373214900493622,-6.36382132429985,-2.95419171727653,344.569536423841
738353.50298382388427853584,-6.35151219214454,-2.91726432081057,344.557227291686
738353.50298391550313681364,-6.35151219214454,-2.8680277921893,344.54491815953
738353.50298400712199509144,-6.3268939278339,-2.83110039572334,344.631082084618
738353.50298409885726869106,-6.30227566352326,-2.76955473494675,344.581845555996
738353.50298419047612696886,-6.28996653136794,-2.73262733848079,344.643391216773
738353.50298428221140056849,-6.2653482670573,-2.68339080985951,344.655700348928
738353.50298437383025884628,-6.27765739921262,-2.67108167770419,344.581845555996
738353.50298446556553244591,-6.2653482670573,-2.65877254554888,344.606463820307
738353.50298455718439072371,-6.2653482670573,-2.70800907417015,344.581845555996
738353.50298464891966432333,-6.30227566352326,-2.76955473494675,344.507990763064
738353.50298474053852260113,-6.35151219214454,-2.88033692434461,344.458754234443
738353.50298483227379620075,-6.36382132429985,-2.94188258512121,344.421826837977
738353.50298492389265447855,-6.38843958861049,-3.02804651020844,344.360281177201
738353.50298501551151275635,-6.42536698507645,-3.08959217098504,344.311044648579
738353.50298510724678635597,-6.43767611723177,-3.11421043529567,344.163335062716
738353.50298519886564463377,-6.44998524938709,-3.15113783176163,344.237189855647
738353.50298529060091823339,-6.46229438154241,-3.16344696391695,344.323353780735
738353.50298538221977651119,-6.46229438154241,-3.16344696391695,344.212571591337
738353.50298547395505011082,-6.48691264585304,-3.18806522822759,344.323353780735
738353.50298556557390838861,-6.48691264585304,-3.18806522822759,344.311044648579
738353.50298565730918198824,-6.47460351369772,-3.18806522822759,344.249498987803
738353.50298574892804026604,-6.46229438154241,-3.17575609607227,344.249498987803
738353.50298584054689854383,-6.46229438154241,-3.18806522822759,344.311044648579
738353.50298593228217214346,-6.48691264585304,-3.20037436038291,344.311044648579
738353.50298602390103042126,-6.47460351369772,-3.20037436038291,344.286426384269
738353.50298611563630402088,-6.47460351369772,-3.18806522822759,344.298735516424
738353.50298620725516229868,-6.47460351369772,-3.20037436038291,344.311044648579
738353.50298629899043589830,-6.47460351369772,-3.20037436038291,344.298735516424
738353.50298639060929417610,-6.48691264585304,-3.20037436038291,344.311044648579
738353.50298648234456777573,-6.47460351369772,-3.18806522822759,344.298735516424
738353.50298657396342605352,-6.48691264585304,-3.18806522822759,344.323353780735
738353.50298666569869965315,-6.46229438154241,-3.17575609607227,344.323353780735
738353.50298675731755793095,-6.47460351369772,-3.18806522822759,344.261808119958
738353.50298684893641620874,-6.44998524938709,-3.18806522822759,344.323353780735
738353.50298694067168980837,-6.48691264585304,-3.18806522822759,344.311044648579
738353.50298703229054808617,-6.43767611723177,-3.18806522822759,344.298735516424
738353.50298712402582168579,-6.44998524938709,-3.17575609607227,344.298735516424
738353.50298721564467996359,-6.47460351369772,-3.18806522822759,344.237189855647
738353.50298730737995356321,-6.48691264585304,-3.21268349253822,344.224880723492
738353.50298739899881184101,-6.48691264585304,-3.20037436038291,344.200262459181
738353.50298749073408544064,-6.47460351369772,-3.20037436038291,344.224880723492
738353.50298758235294371843,-6.47460351369772,-3.18806522822759,344.311044648579
738353.50298767397180199623,-6.47460351369772,-3.18806522822759,344.311044648579
738353.50298776570707559586,-6.47460351369772,-3.18806522822759,344.298735516424
738353.50298785732593387365,-6.48691264585304,-3.20037436038291,344.200262459181
738353.50298794906120747328,-6.48691264585304,-3.21268349253822,344.249498987803
738353.50298804068006575108,-6.47460351369772,-3.20037436038291,344.311044648579
738353.50298813241533935070,-6.47460351369772,-3.20037436038291,344.212571591337
738353.50298822403419762850,-6.47460351369772,-3.20037436038291,344.212571591337
738353.50298831576947122812,-6.49922177800836,-3.21268349253822,344.224880723492
738353.50298840738832950592,-6.48691264585304,-3.20037436038291,344.261808119958
738353.50298849912360310555,-6.47460351369772,-3.20037436038291,344.249498987803
738353.50298859074246138334,-6.49922177800836,-3.22499262469354,344.323353780735
738353.50298868236131966114,-6.49922177800836,-3.21268349253822,344.224880723492
738353.50298877409659326077,-6.49922177800836,-3.21268349253822,344.187953327026
738353.50298886571545153856,-6.49922177800836,-3.22499262469354,344.200262459181
738353.50298895745072513819,-6.49922177800836,-3.22499262469354,344.286426384269
738353.50298904906958341599,-6.49922177800836,-3.22499262469354,344.372590309356
738353.50298914080485701561,-6.49922177800836,-3.22499262469354,344.249498987803
738353.50298923242371529341,-6.51153091016368,-3.23730175684886,344.274117252113
738353.50298932415898889303,-6.523840042319,-3.23730175684886,344.311044648579
738353.50298941577784717083,-6.53614917447432,-3.24961088900418,344.286426384269
738353.50298950739670544863,-6.523840042319,-3.23730175684886,344.224880723492
738353.50298959913197904825,-6.523840042319,-3.23730175684886,344.298735516424
738353.50298969075083732605,-6.523840042319,-3.24961088900418,344.286426384269
738353.50298978248611092567,-6.523840042319,-3.24961088900418,344.286426384269
738353.50298987410496920347,-6.53614917447432,-3.24961088900418,344.274117252113
738353.50298996584024280310,-6.54845830662964,-3.24961088900418,344.175644194871
738353.50299005745910108089,-6.54845830662964,-3.24961088900418,344.187953327026
738353.50299014919437468052,-6.523840042319,-3.24961088900418,344.286426384269
738353.50299024081323295832,-6.53614917447432,-3.2619200211595,344.311044648579
738353.50299033254850655794,-6.54845830662964,-3.2619200211595,344.286426384269
738353.50299042416736483574,-6.54845830662964,-3.27422915331482,344.224880723492
738353.50299051578622311354,-6.53614917447432,-3.2619200211595,344.323353780735
738353.50299060752149671316,-6.54845830662964,-3.2619200211595,344.33566291289
738353.50299069914035499096,-6.54845830662964,-3.2619200211595,344.212571591337
738353.50299079087562859058,-6.54845830662964,-3.28653828547014,344.286426384269
738353.50299088249448686838,-6.54845830662964,-3.2619200211595,344.311044648579
738353.50299097422976046801,-6.56076743878496,-3.27422915331482,344.237189855647
738353.50299106584861874580,-6.54845830662964,-3.27422915331482,344.261808119958
738353.50299115758389234543,-6.56076743878496,-3.2619200211595,344.360281177201
738353.50299124920275062323,-6.56076743878496,-3.28653828547014,344.372590309356
738353.50299134082160890102,-6.57307657094027,-3.27422915331482,344.323353780735
738353.50299143255688250065,-6.56076743878496,-3.28653828547014,344.274117252113
738353.50299152417574077845,-6.56076743878496,-3.27422915331482,344.286426384269
738353.50299161591101437807,-6.57307657094027,-3.28653828547014,344.274117252113
738353.50299170752987265587,-6.56076743878496,-3.28653828547014,344.249498987803
738353.50299179926514625549,-6.53614917447432,-3.27422915331482,344.274117252113
738353.50299189088400453329,-6.56076743878496,-3.29884741762546,344.261808119958
738353.50299198261927813292,-6.58538570309559,-3.29884741762546,344.212571591337
738353.50299207423813641071,-6.54845830662964,-3.2619200211595,344.175644194871
738353.50299216597341001034,-6.54845830662964,-3.27422915331482,344.187953327026
738353.50299225759226828814,-6.53614917447432,-3.24961088900418,344.052552873318
738353.50299234921112656593,-6.53614917447432,-3.23730175684886,344.064862005473
738353.50299244094640016556,-6.56076743878496,-3.24961088900418,344.200262459181
738353.50299253256525844336,-6.58538570309559,-3.2619200211595,344.261808119958
738353.50299262430053204298,-6.61000396740623,-3.32346568193609,344.200262459181
738353.50299271591939032078,-6.59769483525091,-3.33577481409141,344.212571591337
738353.50299280765466392040,-6.62231309956155,-3.32346568193609,344.163335062716
738353.50299289927352219820,-6.61000396740623,-3.32346568193609,344.187953327026
738353.50299299100879579782,-6.61000396740623,-3.33577481409141,344.15102593056
738353.50299308262765407562,-6.62231309956155,-3.32346568193609,344.187953327026
738353.50299317424651235342,-6.62231309956155,-3.33577481409141,344.175644194871
738353.50299326598178595304,-6.62231309956155,-3.32346568193609,344.224880723492
738353.50299335760064423084,-6.61000396740623,-3.31115654978078,344.224880723492
738353.50299344933591783047,-6.62231309956155,-3.33577481409141,344.212571591337
738353.50299354095477610826,-6.64693136387219,-3.48348439995524,344.175644194871
738353.50299363269004970789,-6.67154962818283,-3.50810266426588,344.360281177201
738353.50299372430890798569,-6.53614917447432,-3.16344696391695,344.655700348928
738353.50299381604418158531,-6.27765739921262,-2.64646341339356,344.249498987803
738353.50299390766303986311,-5.94531083101901,-1.96946114485102,343.929461551764
738353.50299399939831346273,-6.20380260628071,-1.90791548407442,343.954079816075
738353.50299409101717174053,-6.41305785292113,-2.48644469537441,343.843297626677
738353.50299418263603001833,-6.58538570309559,-3.08959217098504,343.880225023143
738353.50299427437130361795,-6.64693136387219,-3.27422915331482,344.114098534094
738353.50299436599016189575,-6.61000396740623,-3.2619200211595,344.249498987803
738353.50299445772543549538,-6.58538570309559,-3.2619200211595,344.224880723492
738353.50299454934429377317,-6.58538570309559,-3.27422915331482,344.224880723492
738353.50299464107956737280,-6.59769483525091,-3.28653828547014,344.274117252113
738353.50299473269842565060,-6.61000396740623,-3.28653828547014,344.274117252113
738353.50299482443369925022,-6.57307657094027,-3.28653828547014,344.311044648579
738353.50299491605255752802,-6.57307657094027,-3.28653828547014,344.286426384269
738353.50299500767141580582,-6.59769483525091,-3.28653828547014,344.298735516424
738353.50299509940668940544,-6.57307657094027,-3.27422915331482,344.261808119958
738353.50299519102554768324,-6.56076743878496,-3.27422915331482,344.360281177201
738353.50299528276082128286,-6.54845830662964,-3.27422915331482,344.323353780735
738353.50299537437967956066,-6.53614917447432,-3.22499262469354,344.311044648579
738353.50299546611495316029,-6.58538570309559,-3.2619200211595,344.33566291289
738353.50299555773381143808,-6.57307657094027,-3.27422915331482,344.33566291289
738353.50299564946908503771,-6.57307657094027,-3.2619200211595,344.360281177201
738353.50299574108794331551,-6.54845830662964,-3.23730175684886,344.286426384269
738353.50299583282321691513,-6.56076743878496,-3.22499262469354,344.163335062716
738353.50299592444207519293,-6.56076743878496,-3.21268349253822,344.163335062716
738353.50299601606093347073,-6.54845830662964,-3.18806522822759,344.298735516424
738353.50299610779620707035,-6.53614917447432,-3.16344696391695,344.311044648579
738353.50299619941506534815,-6.523840042319,-3.13882869960631,344.384899441511
738353.50299629115033894777,-6.47460351369772,-3.10190130314035,344.446445102288
738353.50299638276919722557,-6.51153091016368,-3.08959217098504,344.446445102288
738353.50299647450447082520,-6.46229438154241,-3.02804651020844,344.458754234443
738353.50299656612332910299,-6.42536698507645,-2.97880998158717,344.507990763064
738353.50299665785860270262,-6.41305785292113,-2.96650084943185,344.495681630909
738353.50299674947746098042,-6.38843958861049,-2.83110039572334,344.483372498754
738353.50299684109631925821,-6.38843958861049,-2.81879126356802,344.507990763064
738353.50299693283159285784,-6.38843958861049,-2.81879126356802,344.495681630909
738353.50299702445045113564,-6.35151219214454,-2.78186386710206,344.54491815953
738353.50299711618572473526,-6.3268939278339,-2.75724560279143,344.54491815953
738353.50299720780458301306,-6.3268939278339,-2.75724560279143,344.495681630909
738353.50299729953985661268,-6.35151219214454,-2.8064821314127,344.471063366599
738353.50299739115871489048,-6.37613045645517,-2.89264605649993,344.409517705822
738353.50299748289398849010,-6.42536698507645,-2.99111911374248,344.360281177201
738353.50299757451284676790,-6.46229438154241,-3.07728303882972,344.360281177201
738353.50299766624812036753,-6.47460351369772,-3.12651956745099,344.347972045045
738353.50299775786697864532,-6.49922177800836,-3.21268349253822,344.347972045045
738353.50299784948583692312,-6.53614917447432,-3.22499262469354,344.298735516424
738353.50299794122111052275,-6.53614917447432,-3.22499262469354,344.237189855647
738353.50299803283996880054,-6.57307657094027,-3.27422915331482,344.286426384269
738353.50299812457524240017,-6.53614917447432,-3.28653828547014,344.323353780735
738353.50299821619410067797,-6.56076743878496,-3.29884741762546,344.200262459181
738353.50299830792937427759,-6.56076743878496,-3.27422915331482,344.323353780735
738353.50299839954823255539,-6.56076743878496,-3.27422915331482,344.237189855647
738353.50299849128350615501,-6.56076743878496,-3.28653828547014,344.200262459181
738353.50299858290236443281,-6.56076743878496,-3.31115654978078,344.212571591337
738353.50299867452122271061,-6.57307657094027,-3.31115654978078,344.163335062716
738353.50299876625649631023,-6.57307657094027,-3.28653828547014,344.224880723492
738353.50299885787535458803,-6.57307657094027,-3.28653828547014,344.224880723492
738353.50299894961062818766,-6.58538570309559,-3.31115654978078,344.249498987803
738353.50299904122948646545,-6.58538570309559,-3.29884741762546,344.237189855647
738353.50299913296476006508,-6.57307657094027,-3.32346568193609,344.286426384269
738353.50299922458361834288,-6.59769483525091,-3.33577481409141,344.187953327026
738353.50299931631889194250,-6.61000396740623,-3.31115654978078,344.261808119958
738353.50299940793775022030,-6.58538570309559,-3.31115654978078,344.114098534094
738353.50299949967302381992,-6.58538570309559,-3.32346568193609,344.12640766625
738353.50299959129188209772,-6.59769483525091,-3.33577481409141,344.224880723492
738353.50299968291074037552,-6.62231309956155,-3.33577481409141,344.101789401939
738353.50299977464601397514,-6.61000396740623,-3.31115654978078,344.064862005473
738353.50299986626487225294,-6.59769483525091,-3.33577481409141,344.114098534094
738353.50299995800014585257,-6.61000396740623,-3.32346568193609,344.077171137628
738353.50300004961900413036,-6.59769483525091,-3.32346568193609,344.052552873318
738353.50300014135427772999,-6.58538570309559,-3.31115654978078,344.212571591337
738353.50300023297313600779,-6.59769483525091,-3.33577481409141,344.224880723492
738353.50300032470840960741,-6.64693136387219,-3.34808394624673,344.15102593056
738353.50300041632726788521,-6.62231309956155,-3.34808394624673,344.138716798405
738353.50300050794612616301,-6.64693136387219,-3.34808394624673,344.15102593056
738353.50300059968139976263,-6.63462223171687,-3.36039307840205,344.15102593056
738353.50300069130025804043,-6.64693136387219,-3.36039307840205,344.187953327026
738353.50300078303553164005,-6.63462223171687,-3.40962960702333,344.249498987803
738353.50300087465438991785,-6.67154962818283,-3.39732047486801,344.261808119958
738353.50300096638966351748,-6.62231309956155,-3.38501134271269,344.274117252113
738353.50300105800852179527,-6.63462223171687,-3.39732047486801,344.200262459181
738353.50300114974379539490,-6.62231309956155,-3.42193873917865,344.261808119958
738353.50300124136265367270,-6.64693136387219,-3.40962960702333,344.298735516424
738353.50300133309792727232,-6.62231309956155,-3.42193873917865,344.224880723492
738353.50300142471678555012,-6.65924049602751,-3.4588661356446,344.224880723492
738353.50300151633564382792,-6.64693136387219,-3.44655700348928,344.224880723492
738353.50300160807091742754,-6.64693136387219,-3.47117526779992,344.249498987803
738353.50300169968977570534,-6.65924049602751,-3.4588661356446,344.163335062716
738353.50300179142504930496,-6.64693136387219,-3.48348439995524,344.224880723492
738353.50300188304390758276,-6.67154962818283,-3.4588661356446,344.224880723492
738353.50300197477918118238,-6.65924049602751,-3.4588661356446,344.175644194871
738353.50300206639803946018,-6.65924049602751,-3.43424787133396,344.212571591337
738353.50300215813331305981,-6.67154962818283,-3.44655700348928,344.224880723492
738353.50300224975217133760,-6.65924049602751,-3.44655700348928,344.224880723492
738353.50300234137102961540,-6.63462223171687,-3.4588661356446,344.212571591337
738353.50300243310630321503,-6.67154962818283,-3.40962960702333,344.237189855647
738353.50300252472516149282,-6.67154962818283,-3.39732047486801,344.249498987803
738353.50300261646043509245,-6.63462223171687,-3.40962960702333,344.200262459181
738353.50300270807929337025,-6.64693136387219,-3.39732047486801,344.249498987803
738353.50300279981456696987,-6.65924049602751,-3.40962960702333,344.237189855647
738353.50300289143342524767,-6.67154962818283,-3.40962960702333,344.249498987803
738353.50300298316869884729,-6.67154962818283,-3.40962960702333,344.114098534094
738353.50300307478755712509,-6.64693136387219,-3.38501134271269,344.114098534094
738353.50300316652283072472,-6.67154962818283,-3.36039307840205,344.212571591337
738353.50300325814168900251,-6.67154962818283,-3.38501134271269,344.175644194871
738353.50300334976054728031,-6.67154962818283,-3.32346568193609,344.101789401939
738353.50300344149582087994,-6.65924049602751,-3.34808394624673,344.224880723492
738353.50300353311467915773,-6.69616789249346,-3.29884741762546,344.175644194871
738353.50300362484995275736,-6.68385876033815,-3.31115654978078,344.311044648579
738353.50300371646881103516,-6.64693136387219,-3.2619200211595,344.323353780735
738353.50300380820408463478,-6.64693136387219,-3.2619200211595,344.323353780735
738353.50300389982294291258,-6.67154962818283,-3.24961088900418,344.274117252113
738353.50300399155821651220,-6.64693136387219,-3.22499262469354,344.323353780735
738353.50300408317707479000,-6.67154962818283,-3.20037436038291,344.372590309356
738353.50300417479593306780,-6.65924049602751,-3.22499262469354,344.286426384269
738353.50300426653120666742,-6.68385876033815,-3.18806522822759,344.274117252113
738353.50300435815006494522,-6.64693136387219,-3.17575609607227,344.360281177201
738353.50300444988533854485,-6.65924049602751,-3.15113783176163,344.397208573667
738353.50300454150419682264,-6.67154962818283,-3.13882869960631,344.286426384269
738353.50300463323947042227,-6.70847702464878,-3.15113783176163,344.384899441511
738353.50300472485832870007,-6.70847702464878,-3.20037436038291,344.384899441511
738353.50300481659360229969,-6.70847702464878,-3.18806522822759,344.311044648579
738353.50300490821246057749,-6.69616789249346,-3.18806522822759,344.372590309356
738353.50300499994773417711,-6.7207861568041,-3.17575609607227,344.323353780735
738353.50300509156659245491,-6.7207861568041,-3.17575609607227,344.286426384269
738353.50300518318545073271,-6.70847702464878,-3.17575609607227,344.311044648579
738353.50300527492072433233,-6.70847702464878,-3.16344696391695,344.33566291289
738353.50300536653958261013,-6.70847702464878,-3.16344696391695,344.323353780735
738353.50300545827485620975,-6.73309528895942,-3.18806522822759,344.33566291289
738353.50300554989371448755,-6.73309528895942,-3.24961088900418,344.372590309356
738353.50300564162898808718,-6.75771355327006,-3.37270221055737,344.458754234443
738353.50300573324784636497,-6.62231309956155,-3.05266477451908,344.70493687755
738353.50300582498311996460,-6.42536698507645,-2.54799035615101,344.421826837977
738353.50300591660197824240,-6.11763868119348,-1.77251503036592,343.954079816075
738353.50300600822083652020,-6.28996653136794,-1.41555019786167,343.892534155299
738353.50300609995611011982,-6.523840042319,-1.89560635191911,344.003316344696
738353.50300619157496839762,-6.53614917447432,-2.27718944873399,343.880225023143
738353.50300628331024199724,-6.65924049602751,-2.83110039572334,343.991007212541
738353.50300637492910027504,-6.64693136387219,-2.97880998158717,344.249498987803
738353.50300646666437387466,-6.68385876033815,-3.04035564236376,344.274117252113
738353.50300655828323215246,-6.70847702464878,-3.10190130314035,344.249498987803
738353.50300665001850575209,-6.70847702464878,-3.12651956745099,344.175644194871
738353.50300674163736402988,-6.67154962818283,-3.11421043529567,344.274117252113
738353.50300683337263762951,-6.69616789249346,-3.15113783176163,344.421826837977
738353.50300692499149590731,-6.7207861568041,-3.12651956745099,344.434135970133
738353.50300701661035418510,-6.75771355327006,-3.13882869960631,344.397208573667
738353.50300710834562778473,-6.68385876033815,-3.12651956745099,344.421826837977
738353.50300719996448606253,-6.69616789249346,-3.13882869960631,344.495681630909
738353.50300729169975966215,-6.69616789249346,-3.08959217098504,344.495681630909
738353.50300738331861793995,-6.69616789249346,-3.10190130314035,344.495681630909
738353.50300747505389153957,-6.67154962818283,-3.0649739066744,344.495681630909
738353.50300756667274981737,-6.65924049602751,-3.04035564236376,344.52029989522
738353.50300765840802341700,-6.68385876033815,-3.02804651020844,344.52029989522
738353.50300775002688169479,-6.68385876033815,-3.0034282458978,344.471063366599
738353.50300784164573997259,-6.67154962818283,-2.96650084943185,344.483372498754
738353.50300793338101357222,-6.64693136387219,-2.97880998158717,344.483372498754
738353.50300802499987185001,-6.65924049602751,-2.94188258512121,344.495681630909
738353.50300811673514544964,-6.64693136387219,-2.92957345296589,344.532609027375
738353.50300820835400372744,-6.65924049602751,-2.8680277921893,344.557227291686
738353.50300830008927732706,-6.62231309956155,-2.85571866003398,344.52029989522
738353.50300839170813560486,-6.62231309956155,-2.83110039572334,344.594154688152
738353.50300848344340920448,-6.56076743878496,-2.76955473494675,344.618772952462
738353.50300857506226748228,-6.58538570309559,-2.73262733848079,344.618772952462
738353.50300866679754108191,-6.58538570309559,-2.65877254554888,344.692627745394
738353.50300875841639935970,-6.53614917447432,-2.59722688477228,344.692627745394
738353.50300885003525763750,-6.53614917447432,-2.53568122399569,344.692627745394
738353.50300894177053123713,-6.48691264585304,-2.47413556321909,344.741864274016
738353.50300903338938951492,-6.49922177800836,-2.42489903459782,344.754173406171
738353.50300912512466311455,-6.48691264585304,-2.40028077028718,344.72955514186
738353.50300921674352139235,-6.47460351369772,-2.43720816675314,344.680318613239
738353.50300930847879499197,-6.47460351369772,-2.42489903459782,344.668009481084
738353.50300940009765326977,-6.51153091016368,-2.51106295968505,344.618772952462
738353.50300949183292686939,-6.56076743878496,-2.62184514908292,344.532609027375
738353.50300958345178514719,-6.62231309956155,-2.70800907417015,344.532609027375
738353.50300967507064342499,-6.61000396740623,-2.78186386710206,344.446445102288
738353.50300976680591702461,-6.67154962818283,-2.85571866003398,344.384899441511
738353.50300985842477530241,-6.67154962818283,-2.88033692434461,344.471063366599
738353.50300995016004890203,-6.70847702464878,-2.90495518865525,344.458754234443
738353.50301004177890717983,-6.70847702464878,-2.91726432081057,344.458754234443
738353.50301013351418077946,-6.70847702464878,-2.94188258512121,344.347972045045
738353.50301022513303905725,-6.70847702464878,-2.95419171727653,344.274117252113
738353.50301031686831265688,-6.7207861568041,-2.95419171727653,344.446445102288
738353.50301040848717093468,-6.73309528895942,-2.94188258512121,344.360281177201
738353.50301050022244453430,-6.70847702464878,-2.94188258512121,344.33566291289
738353.50301059184130281210,-6.73309528895942,-2.92957345296589,344.372590309356
738353.50301068346016108990,-6.74540442111474,-2.94188258512121,344.421826837977
738353.50301077519543468952,-6.70847702464878,-2.92957345296589,344.446445102288
738353.50301086681429296732,-6.73309528895942,-2.94188258512121,344.372590309356
738353.50301095854956656694,-6.74540442111474,-2.95419171727653,344.434135970133
738353.50301105016842484474,-6.7207861568041,-2.92957345296589,344.434135970133
738353.50301114190369844437,-6.7207861568041,-2.92957345296589,344.458754234443
738353.50301123352255672216,-6.74540442111474,-2.97880998158717,344.397208573667
738353.50301132525783032179,-6.73309528895942,-2.91726432081057,344.458754234443
738353.50301141687668859959,-6.7207861568041,-2.91726432081057,344.372590309356
738353.50301150849554687738,-6.73309528895942,-2.94188258512121,344.33566291289
738353.50301160023082047701,-6.7207861568041,-2.91726432081057,344.409517705822
738353.50301169184967875481,-6.7207861568041,-2.91726432081057,344.397208573667
738353.50301178358495235443,-6.7207861568041,-2.92957345296589,344.360281177201
738353.50301187520381063223,-6.7207861568041,-2.94188258512121,344.372590309356
738353.50301196693908423185,-6.7207861568041,-2.94188258512121,344.458754234443
738353.50301205855794250965,-6.7207861568041,-2.94188258512121,344.446445102288
738353.50301215029321610928,-6.73309528895942,-2.91726432081057,344.397208573667
738353.50301224191207438707,-6.73309528895942,-2.95419171727653,344.458754234443
738353.50301233364734798670,-6.7207861568041,-2.94188258512121,344.471063366599
738353.50301242526620626450,-6.74540442111474,-2.91726432081057,344.446445102288
738353.50301251688506454229,-6.7207861568041,-2.92957345296589,344.421826837977
738353.50301260862033814192,-6.73309528895942,-2.92957345296589,344.471063366599
738353.50301270023919641972,-6.7207861568041,-2.92957345296589,344.471063366599
738353.50301279197447001934,-6.74540442111474,-2.92957345296589,344.397208573667
738353.50301288359332829714,-6.7207861568041,-2.94188258512121,344.458754234443
738353.50301297532860189676,-6.7207861568041,-2.91726432081057,344.458754234443
738353.50301306694746017456,-6.73309528895942,-2.92957345296589,344.421826837977
738353.50301315868273377419,-6.74540442111474,-2.95419171727653,344.458754234443
738353.50301325030159205198,-6.73309528895942,-2.94188258512121,344.458754234443
738353.50301334192045032978,-6.73309528895942,-2.94188258512121,344.434135970133
738353.50301343365572392941,-6.73309528895942,-2.94188258512121,344.458754234443
738353.50301352527458220720,-6.73309528895942,-2.94188258512121,344.458754234443
738353.50301361700985580683,-6.74540442111474,-2.92957345296589,344.471063366599
738353.50301370862871408463,-6.73309528895942,-2.95419171727653,344.33566291289
738353.50301380036398768425,-6.7207861568041,-2.92957345296589,344.311044648579
738353.50301389198284596205,-6.75771355327006,-2.92957345296589,344.458754234443
738353.50301398371811956167,-6.74540442111474,-2.92957345296589,344.458754234443
738353.50301407533697783947,-6.74540442111474,-2.91726432081057,344.458754234443
738353.50301416707225143909,-6.73309528895942,-2.91726432081057,344.446445102288
738353.50301425869110971689,-6.74540442111474,-2.91726432081057,344.458754234443
738353.50301435030996799469,-6.73309528895942,-2.90495518865525,344.434135970133
738353.50301444204524159431,-6.73309528895942,-2.90495518865525,344.458754234443
738353.50301453366409987211,-6.74540442111474,-2.92957345296589,344.471063366599
738353.50301462539937347174,-6.74540442111474,-2.90495518865525,344.397208573667
738353.50301471701823174953,-6.7207861568041,-2.90495518865525,344.458754234443
738353.50301480875350534916,-6.7207861568041,-2.90495518865525,344.471063366599
738353.50301490037236362696,-6.73309528895942,-2.91726432081057,344.397208573667
738353.50301499210763722658,-6.70847702464878,-2.8680277921893,344.446445102288
738353.50301508372649550438,-6.7207861568041,-2.90495518865525,344.446445102288
738353.50301517534535378218,-6.70847702464878,-2.85571866003398,344.421826837977
738353.50301526708062738180,-6.70847702464878,-2.84340952787866,344.397208573667
738353.50301535869948565960,-6.73309528895942,-2.8680277921893,344.458754234443
738353.50301545043475925922,-6.73309528895942,-2.85571866003398,344.421826837977
738353.50301554205361753702,-6.77002268542538,-2.90495518865525,344.372590309356
738353.50301563378889113665,-6.77002268542538,-2.92957345296589,344.33566291289
738353.50301572540774941444,-6.79464094973601,-2.92957345296589,344.372590309356
738353.50301581714302301407,-6.75771355327006,-2.91726432081057,344.409517705822
738353.50301590876188129187,-6.7823318175807,-2.91726432081057,344.421826837977
738353.50301600049715489149,-6.7823318175807,-2.92957345296589,344.409517705822
738353.50301609211601316929,-6.7823318175807,-2.92957345296589,344.471063366599
738353.50301618373487144709,-6.77002268542538,-2.91726432081057,344.471063366599
738353.50301627547014504671,-6.7823318175807,-2.92957345296589,344.483372498754
738353.50301636708900332451,-6.79464094973601,-2.96650084943185,344.471063366599
738353.50301645882427692413,-6.85618661051261,-3.16344696391695,344.532609027375
738353.50301655044313520193,-6.75771355327006,-2.96650084943185,344.766482538326
738353.50301664217840880156,-6.58538570309559,-2.51106295968505,344.692627745394
738353.50301673379726707935,-6.25303913490198,-1.77251503036592,344.224880723492
738353.50301682553254067898,-6.14225694550411,-1.15705842259997,344.089480269784
738353.50301691715139895678,-6.49922177800836,-1.35400453708508,344.114098534094
738353.50301700877025723457,-6.68385876033815,-2.1540981271808,344.015625476852
738353.50301710050553083420,-6.7823318175807,-2.65877254554888,344.274117252113
738353.50301719212438911200,-6.75771355327006,-2.76955473494675,344.421826837977
738353.50301728385966271162,-6.75771355327006,-2.8064821314127,344.471063366599
738353.50301737547852098942,-6.7823318175807,-2.83110039572334,344.347972045045
738353.50301746721379458904,-6.75771355327006,-2.8680277921893,344.52029989522
738353.50301755883265286684,-6.77002268542538,-2.89264605649993,344.507990763064
738353.50301765056792646646,-6.7823318175807,-2.8680277921893,344.557227291686
738353.50301774218678474426,-6.79464094973601,-2.89264605649993,344.569536423841
738353.50301783392205834389,-6.7823318175807,-2.88033692434461,344.532609027375
738353.50301792554091662169,-6.75771355327006,-2.85571866003398,344.557227291686
738353.50301801715977489948,-6.7823318175807,-2.8680277921893,344.581845555996
738353.50301810889504849911,-6.7823318175807,-2.88033692434461,344.54491815953
738353.50301820051390677691,-6.75771355327006,-2.85571866003398,344.557227291686
738353.50301829224918037653,-6.77002268542538,-2.85571866003398,344.594154688152
738353.50301838386803865433,-6.77002268542538,-2.85571866003398,344.569536423841
738353.50301847560331225395,-6.74540442111474,-2.83110039572334,344.569536423841
738353.50301856722217053175,-6.74540442111474,-2.83110039572334,344.581845555996
738353.50301865895744413137,-6.75771355327006,-2.8064821314127,344.569536423841
738353.50301875057630240917,-6.74540442111474,-2.79417299925738,344.569536423841
738353.50301884219516068697,-6.7207861568041,-2.76955473494675,344.581845555996
738353.50301893393043428659,-6.70847702464878,-2.72031820632547,344.581845555996
738353.50301902554929256439,-6.7207861568041,-2.72031820632547,344.606463820307
738353.50301911728456616402,-6.7207861568041,-2.72031820632547,344.618772952462
738353.50301920890342444181,-6.70847702464878,-2.69569994201483,344.631082084618
738353.50301930063869804144,-6.67154962818283,-2.63415428123824,344.72955514186
738353.50301939225755631924,-6.65924049602751,-2.56029948830632,344.741864274016
738353.50301948399282991886,-6.63462223171687,-2.51106295968505,344.741864274016
738353.50301957561168819666,-6.62231309956155,-2.48644469537441,344.815719066947
738353.50301966734696179628,-6.59769483525091,-2.37566250597654,344.840337331258
738353.50301975896582007408,-6.57307657094027,-2.32642597735527,344.864955595569
738353.50301985058467835188,-6.58538570309559,-2.30180771304463,344.791100802637
738353.50301994231995195150,-6.56076743878496,-2.24026205226803,344.828028199103
738353.50302003393881022930,-6.56076743878496,-2.24026205226803,344.803409934792
738353.50302012567408382893,-6.57307657094027,-2.27718944873399,344.754173406171
738353.50302021729294210672,-6.58538570309559,-2.36335337382122,344.72955514186
738353.50302030902821570635,-6.62231309956155,-2.47413556321909,344.692627745394
738353.50302040064707398415,-6.67154962818283,-2.58491775261696,344.680318613239
738353.50302049238234758377,-6.69616789249346,-2.65877254554888,344.581845555996
738353.50302058400120586157,-6.73309528895942,-2.73262733848079,344.606463820307
738353.50302067562006413937,-6.75771355327006,-2.79417299925738,344.581845555996
738353.50302076735533773899,-6.77002268542538,-2.78186386710206,344.569536423841
738353.50302085897419601679,-6.7823318175807,-2.8064821314127,344.323353780735
738353.50302095070946961641,-6.7823318175807,-2.83110039572334,344.372590309356
738353.50302104232832789421,-6.79464094973601,-2.83110039572334,344.557227291686
738353.50302113406360149384,-6.7823318175807,-2.83110039572334,344.569536423841
738353.50302122568245977163,-6.80695008189133,-2.85571866003398,344.434135970133
738353.50302131741773337126,-6.79464094973601,-2.84340952787866,344.557227291686
738353.50302140903659164906,-6.79464094973601,-2.83110039572334,344.569536423841
738353.50302150077186524868,-6.80695008189133,-2.84340952787866,344.532609027375
738353.50302159239072352648,-6.80695008189133,-2.84340952787866,344.569536423841
738353.50302168400958180428,-6.79464094973601,-2.84340952787866,344.594154688152
738353.50302177574485540390,-6.80695008189133,-2.84340952787866,344.569536423841
738353.50302186736371368170,-6.79464094973601,-2.85571866003398,344.581845555996
738353.50302195909898728132,-6.80695008189133,-2.85571866003398,344.569536423841
738353.50302205071784555912,-6.80695008189133,-2.84340952787866,344.569536423841
738353.50302214245311915874,-6.80695008189133,-2.8680277921893,344.532609027375
738353.50302223407197743654,-6.7823318175807,-2.84340952787866,344.581845555996
738353.50302232580725103617,-6.79464094973601,-2.83110039572334,344.569536423841
738353.50302241742610931396,-6.79464094973601,-2.8680277921893,344.569536423841
738353.50302250904496759176,-6.80695008189133,-2.88033692434461,344.569536423841
738353.50302260078024119139,-6.80695008189133,-2.8680277921893,344.569536423841
738353.50302269239909946918,-6.80695008189133,-2.85571866003398,344.495681630909
738353.50302278413437306881,-6.81925921404665,-2.8680277921893,344.458754234443
738353.50302287575323134661,-6.81925921404665,-2.8680277921893,344.507990763064
738353.50302296748850494623,-6.83156834620197,-2.8680277921893,344.495681630909
738353.50302305910736322403,-6.81925921404665,-2.8680277921893,344.483372498754
738353.50302315084263682365,-6.81925921404665,-2.84340952787866,344.54491815953
738353.50302324246149510145,-6.83156834620197,-2.85571866003398,344.581845555996
738353.50302333419676870108,-6.83156834620197,-2.85571866003398,344.569536423841
738353.50302342581562697887,-6.81925921404665,-2.8680277921893,344.52029989522
738353.50302351743448525667,-6.83156834620197,-2.8680277921893,344.569536423841
738353.50302360916975885630,-6.83156834620197,-2.85571866003398,344.581845555996
738353.50302370078861713409,-6.81925921404665,-2.85571866003398,344.507990763064
738353.50302379252389073372,-6.83156834620197,-2.85571866003398,344.54491815953
738353.50302388414274901152,-6.85618661051261,-2.8680277921893,344.532609027375
738353.50302397587802261114,-6.83156834620197,-2.8680277921893,344.54491815953
738353.50302406749688088894,-6.83156834620197,-2.84340952787866,344.569536423841
738353.50302415923215448856,-6.84387747835729,-2.8680277921893,344.569536423841
738353.50302425085101276636,-6.83156834620197,-2.8680277921893,344.446445102288
738353.50302434246987104416,-6.81925921404665,-2.8680277921893,344.557227291686
738353.50302443420514464378,-6.81925921404665,-2.8680277921893,344.347972045045
738353.50302452582400292158,-6.84387747835729,-2.8680277921893,344.471063366599
738353.50302461755927652121,-6.84387747835729,-2.8680277921893,344.458754234443
738353.50302470917813479900,-6.85618661051261,-2.8680277921893,344.569536423841
738353.50302480091340839863,-6.84387747835729,-2.85571866003398,344.54491815953
738353.50302489253226667643,-6.83156834620197,-2.85571866003398,344.52029989522
738353.50302498426754027605,-6.84387747835729,-2.89264605649993,344.54491815953
738353.50302507588639855385,-6.83156834620197,-2.85571866003398,344.569536423841
738353.50302516762167215347,-6.81925921404665,-2.81879126356802,344.532609027375
738353.50302525924053043127,-6.81925921404665,-2.88033692434461,344.495681630909
738353.50302535085938870907,-6.81925921404665,-2.84340952787866,344.54491815953
738353.50302544259466230869,-6.81925921404665,-2.84340952787866,344.54491815953
738353.50302553421352058649,-6.83156834620197,-2.84340952787866,344.495681630909
738353.50302562594879418612,-6.84387747835729,-2.84340952787866,344.507990763064
738353.50302571756765246391,-6.88080487482325,-2.91726432081057,344.471063366599
738353.50302580930292606354,-6.88080487482325,-2.91726432081057,344.471063366599
738353.50302590092178434134,-6.89311400697857,-2.89264605649993,344.458754234443
738353.50302599265705794096,-6.89311400697857,-2.92957345296589,344.471063366599
738353.50302608427591621876,-6.88080487482325,-2.90495518865525,344.532609027375
738353.50302617589477449656,-6.89311400697857,-2.94188258512121,344.495681630909
738353.50302626763004809618,-6.90542313913388,-2.95419171727653,344.532609027375
738353.50302635924890637398,-6.89311400697857,-2.94188258512121,344.52029989522
738353.50302645098417997360,-6.89311400697857,-2.94188258512121,344.52029989522
738353.50302654260303825140,-6.89311400697857,-2.94188258512121,344.471063366599
738353.50302663433831185102,-6.93004140344452,-3.12651956745099,344.581845555996
738353.50302672595717012882,-6.89311400697857,-3.10190130314035,344.72955514186
738353.50302681769244372845,-6.79464094973601,-2.69569994201483,344.901882992035
738353.50302690931130200624,-6.49922177800836,-1.99407940916166,344.52029989522
738353.50302700104657560587,-6.25303913490198,-1.21860408337657,344.187953327026
738353.50302709266543388367,-6.53614917447432,-1.28014974415316,344.163335062716
738353.50302718428429216146,-6.70847702464878,-2.06793420209357,344.015625476852
738353.50302727601956576109,-6.89311400697857,-2.74493647063611,344.138716798405
738353.50302736763842403889,-6.90542313913388,-2.85571866003398,344.323353780735
738353.50302745937369763851,-6.88080487482325,-2.84340952787866,344.495681630909
738353.50302755099255591631,-6.89311400697857,-2.85571866003398,344.54491815953
738353.50302764272782951593,-6.90542313913388,-2.8680277921893,344.507990763064
738353.50302773434668779373,-6.88080487482325,-2.89264605649993,344.569536423841
738353.50302782608196139336,-6.89311400697857,-2.89264605649993,344.569536423841
738353.50302791770081967115,-6.89311400697857,-2.90495518865525,344.569536423841
738353.50302800931967794895,-6.88080487482325,-2.88033692434461,344.347972045045
738353.50302810105495154858,-6.88080487482325,-2.8680277921893,344.483372498754
738353.50302819267380982637,-6.89311400697857,-2.85571866003398,344.507990763064
738353.50302828440908342600,-6.90542313913388,-2.88033692434461,344.532609027375
738353.50302837602794170380,-6.89311400697857,-2.88033692434461,344.471063366599
738353.50302846776321530342,-6.89311400697857,-2.85571866003398,344.54491815953
738353.50302855938207358122,-6.88080487482325,-2.84340952787866,344.532609027375
738353.50302865111734718084,-6.88080487482325,-2.83110039572334,344.495681630909
738353.50302874273620545864,-6.89311400697857,-2.81879126356802,344.54491815953
738353.50302883447147905827,-6.89311400697857,-2.8064821314127,344.618772952462
738353.50302892609033733606,-6.88080487482325,-2.79417299925738,344.52029989522
738353.50302901770919561386,-6.86849574266793,-2.75724560279143,344.532609027375
738353.50302910944446921349,-6.86849574266793,-2.73262733848079,344.54491815953
738353.50302920106332749128,-6.85618661051261,-2.70800907417015,344.54491815953
738353.50302929279860109091,-6.83156834620197,-2.67108167770419,344.495681630909
738353.50302938441745936871,-6.83156834620197,-2.62184514908292,344.569536423841
738353.50302947615273296833,-6.83156834620197,-2.58491775261696,344.581845555996
738353.50302956777159124613,-6.80695008189133,-2.52337209184037,344.606463820307
738353.50302965950686484575,-6.7823318175807,-2.44951729890845,344.717246009705
738353.50302975112572312355,-6.74540442111474,-2.40028077028718,344.717246009705
738353.50302984274458140135,-6.74540442111474,-2.32642597735527,344.717246009705
738353.50302993447985500097,-6.75771355327006,-2.27718944873399,344.741864274016
738353.50303002609871327877,-6.73309528895942,-2.24026205226803,344.754173406171
738353.50303011783398687840,-6.7207861568041,-2.22795292011272,344.778791670481
738353.50303020945284515619,-6.7207861568041,-2.22795292011272,344.668009481084
738353.50303030118811875582,-6.73309528895942,-2.27718944873399,344.70493687755
738353.50303039280697703362,-6.77002268542538,-2.40028077028718,344.70493687755
738353.50303048454225063324,-6.80695008189133,-2.49875382752973,344.606463820307
738353.50303057616110891104,-6.85618661051261,-2.6095360169276,344.581845555996
738353.50303066777996718884,-6.90542313913388,-2.69569994201483,344.594154688152
738353.50303075951524078846,-6.93004140344452,-2.75724560279143,344.557227291686
738353.50303085113409906626,-6.95465966775516,-2.83110039572334,344.421826837977
738353.50303094286937266588,-6.9792779320658,-2.84340952787866,344.495681630909
738353.50303103448823094368,-7.00389619637644,-2.84340952787866,344.532609027375
738353.50303112622350454330,-7.00389619637644,-2.8680277921893,344.397208573667
738353.50303121784236282110,-7.01620532853175,-2.88033692434461,344.446445102288
738353.50303130957763642073,-7.00389619637644,-2.8680277921893,344.483372498754
738353.50303140119649469852,-7.01620532853175,-2.88033692434461,344.458754234443
738353.50303149293176829815,-7.00389619637644,-2.8680277921893,344.384899441511
738353.50303158455062657595,-7.02851446068707,-2.88033692434461,344.212571591337
738353.50303167616948485374,-7.04082359284239,-2.90495518865525,344.311044648579
738353.50303176790475845337,-7.05313272499771,-2.91726432081057,344.397208573667
738353.50303185952361673117,-7.04082359284239,-2.90495518865525,344.323353780735
738353.50303195125889033079,-7.05313272499771,-2.91726432081057,344.495681630909
738353.50303204287774860859,-7.04082359284239,-2.91726432081057,344.483372498754
738353.50303213461302220821,-7.04082359284239,-2.90495518865525,344.495681630909
738353.50303222623188048601,-7.04082359284239,-2.90495518865525,344.384899441511
738353.50303231796715408564,-7.07775098930835,-2.94188258512121,344.446445102288
738353.50303240958601236343,-7.04082359284239,-2.90495518865525,344.483372498754
738353.50303250120487064123,-7.02851446068707,-2.88033692434461,344.409517705822
738353.50303259294014424086,-7.02851446068707,-2.90495518865525,344.384899441511
738353.50303268455900251865,-7.04082359284239,-2.90495518865525,344.446445102288
738353.50303277629427611828,-7.06544185715303,-2.90495518865525,344.421826837977
738353.50303286791313439608,-7.06544185715303,-2.92957345296589,344.311044648579
738353.50303295964840799570,-7.06544185715303,-2.94188258512121,344.421826837977
738353.50303305126726627350,-7.09006012146367,-2.92957345296589,344.434135970133
738353.50303314300253987312,-7.09006012146367,-2.92957345296589,344.384899441511
738353.50303323462139815092,-7.10236925361899,-2.91726432081057,344.323353780735
738353.50303332635667175055,-7.11467838577431,-2.92957345296589,344.286426384269
738353.50303341797553002834,-7.09006012146367,-2.91726432081057,344.421826837977
738353.50303350959438830614,-7.06544185715303,-2.89264605649993,344.434135970133
738353.50303360132966190577,-7.09006012146367,-2.90495518865525,344.421826837977
738353.50303369294852018356,-7.10236925361899,-2.91726432081057,344.384899441511
738353.50303378468379378319,-7.12698751792962,-2.94188258512121,344.421826837977
738353.50303387630265206099,-7.12698751792962,-2.95419171727653,344.421826837977
738353.50303396803792566061,-7.12698751792962,-2.94188258512121,344.384899441511
738353.50303405965678393841,-7.12698751792962,-2.94188258512121,344.446445102288
738353.50303415139205753803,-7.12698751792962,-2.91726432081057,344.446445102288
738353.50303424301091581583,-7.12698751792962,-2.92957345296589,344.434135970133
738353.50303433462977409363,-7.07775098930835,-2.89264605649993,344.384899441511
738353.50303442636504769325,-7.12698751792962,-2.92957345296589,344.446445102288
738353.50303451798390597105,-7.10236925361899,-2.85571866003398,344.434135970133
738353.50303460971917957067,-7.12698751792962,-2.89264605649993,344.360281177201
738353.50303470133803784847,-7.12698751792962,-2.94188258512121,344.409517705822
738353.50303479307331144810,-7.12698751792962,-2.90495518865525,344.434135970133
738353.50303488469216972589,-7.11467838577431,-2.88033692434461,344.397208573667
738353.50303497642744332552,-7.15160578224026,-2.88033692434461,344.458754234443
738353.50303506804630160332,-7.13929665008494,-2.88033692434461,344.446445102288
738353.50303515978157520294,-7.18853317870622,-2.95419171727653,344.274117252113
738353.50303525140043348074,-7.18853317870622,-2.96650084943185,344.311044648579
738353.50303534301929175854,-7.15160578224026,-2.90495518865525,344.446445102288
738353.50303543475456535816,-7.13929665008494,-2.89264605649993,344.458754234443
738353.50303552637342363596,-7.20084231086154,-2.95419171727653,344.446445102288
738353.50303561810869723558,-7.20084231086154,-2.95419171727653,344.446445102288
738353.50303570972755551338,-7.20084231086154,-2.94188258512121,344.471063366599
738353.50303580146282911301,-7.20084231086154,-2.94188258512121,344.458754234443
738353.50303589308168739080,-7.23776970732749,-2.96650084943185,344.434135970133
738353.50303598481696099043,-7.21315144301686,-2.95419171727653,344.33566291289
738353.50303607643581926823,-7.23776970732749,-3.05266477451908,344.409517705822
738353.50303616805467754602,-7.27469710379345,-3.16344696391695,344.594154688152
738353.50303625978995114565,-7.11467838577431,-2.81879126356802,344.864955595569
738353.50303635140880942345,-6.88080487482325,-2.28949858088931,344.557227291686
738353.50303644314408302307,-6.523840042319,-1.51402325510422,344.212571591337
738353.50303653476294130087,-6.7207861568041,-1.26784061199784,344.187953327026
738353.50303662649821490049,-7.02851446068707,-1.84636982329783,344.114098534094
738353.50303671811707317829,-7.18853317870622,-2.6095360169276,343.929461551764
738353.50303680985234677792,-7.26238797163813,-2.85571866003398,344.175644194871
738353.50303690147120505571,-7.22546057517218,-2.88033692434461,344.458754234443
738353.50303699320647865534,-7.23776970732749,-2.88033692434461,344.507990763064
738353.50303708482533693314,-7.22546057517218,-2.89264605649993,344.532609027375
738353.50303717644419521093,-7.23776970732749,-2.91726432081057,344.458754234443
738353.50303726817946881056,-7.25007883948281,-2.92957345296589,344.557227291686
738353.50303735979832708836,-7.23776970732749,-2.90495518865525,344.557227291686
738353.50303745153360068798,-7.25007883948281,-2.90495518865525,344.532609027375
738353.50303754315245896578,-7.25007883948281,-2.91726432081057,344.557227291686
738353.50303763488773256540,-7.25007883948281,-2.91726432081057,344.569536423841
738353.50303772650659084320,-7.23776970732749,-2.90495518865525,344.594154688152
738353.50303781824186444283,-7.26238797163813,-2.91726432081057,344.54491815953
738353.50303790986072272062,-7.27469710379345,-2.91726432081057,344.458754234443
738353.50303800147958099842,-7.26238797163813,-2.89264605649993,344.458754234443
738353.50303809321485459805,-7.23776970732749,-2.8680277921893,344.532609027375
738353.50303818483371287584,-7.28700623594877,-2.89264605649993,344.569536423841
738353.50303827656898647547,-7.28700623594877,-2.89264605649993,344.569536423841
738353.50303836818784475327,-7.27469710379345,-2.88033692434461,344.569536423841
738353.50303845992311835289,-7.23776970732749,-2.83110039572334,344.655700348928
738353.50303855154197663069,-7.26238797163813,-2.83110039572334,344.668009481084
738353.50303864327725023031,-7.27469710379345,-2.83110039572334,344.70493687755
738353.50303873489610850811,-7.25007883948281,-2.79417299925738,344.557227291686
738353.50303882663138210773,-7.21315144301686,-2.72031820632547,344.655700348928
738353.50303891825024038553,-7.22546057517218,-2.70800907417015,344.791100802637
738353.50303900986909866333,-7.20084231086154,-2.64646341339356,344.778791670481
738353.50303910160437226295,-7.20084231086154,-2.6095360169276,344.840337331258
738353.50303919322323054075,-7.1762240465509,-2.53568122399569,344.889573859879
738353.50303928495850414038,-7.15160578224026,-2.47413556321909,344.889573859879
738353.50303937657736241817,-7.13929665008494,-2.4125899024425,344.828028199103
738353.50303946831263601780,-7.12698751792962,-2.37566250597654,344.864955595569
738353.50303955993149429560,-7.10236925361899,-2.33873510951058,344.926501256345
738353.50303965166676789522,-7.10236925361899,-2.33873510951058,344.889573859879
738353.50303974328562617302,-7.11467838577431,-2.37566250597654,344.877264727724
738353.50303983490448445082,-7.13929665008494,-2.44951729890845,344.840337331258
738353.50303992663975805044,-7.1762240465509,-2.57260862046164,344.72955514186
738353.50304001825861632824,-7.23776970732749,-2.67108167770419,344.754173406171
738353.50304010999388992786,-7.26238797163813,-2.74493647063611,344.72955514186
738353.50304020161274820566,-7.28700623594877,-2.8064821314127,344.668009481084
738353.50304029334802180529,-7.31162450025941,-2.84340952787866,344.618772952462
738353.50304038496688008308,-7.32393363241473,-2.88033692434461,344.692627745394
738353.50304047670215368271,-7.29931536810409,-2.8680277921893,344.692627745394
738353.50304056832101196051,-7.33624276457004,-2.90495518865525,344.668009481084
738353.50304066005628556013,-7.34855189672536,-2.91726432081057,344.606463820307
738353.50304075167514383793,-7.29931536810409,-2.88033692434461,344.668009481084
738353.50304084329400211573,-7.32393363241473,-2.88033692434461,344.680318613239
738353.50304093502927571535,-7.36086102888068,-2.92957345296589,344.606463820307
738353.50304102664813399315,-7.34855189672536,-2.91726432081057,344.680318613239
738353.50304111838340759277,-7.36086102888068,-2.94188258512121,344.655700348928
738353.50304121000226587057,-7.373170161036,-2.92957345296589,344.668009481084
738353.50304130173753947020,-7.36086102888068,-2.94188258512121,344.655700348928
738353.50304139335639774799,-7.34855189672536,-2.92957345296589,344.692627745394
738353.50304148509167134762,-7.32393363241473,-2.91726432081057,344.692627745394
738353.50304157671052962542,-7.36086102888068,-2.94188258512121,344.643391216773
738353.50304166832938790321,-7.34855189672536,-2.92957345296589,344.618772952462
738353.50304176006466150284,-7.33624276457004,-2.91726432081057,344.70493687755
738353.50304185168351978064,-7.31162450025941,-2.88033692434461,344.680318613239
738353.50304194341879338026,-7.34855189672536,-2.92957345296589,344.680318613239
738353.50304203503765165806,-7.33624276457004,-2.91726432081057,344.668009481084
738353.50304212677292525768,-7.34855189672536,-2.91726432081057,344.631082084618
738353.50304221839178353548,-7.34855189672536,-2.91726432081057,344.643391216773
738353.50304231012705713511,-7.34855189672536,-2.92957345296589,344.54491815953
738353.50304240174591541290,-7.34855189672536,-2.91726432081057,344.581845555996
738353.50304249348118901253,-7.33624276457004,-2.90495518865525,344.631082084618
738353.50304258510004729033,-7.33624276457004,-2.91726432081057,344.680318613239
738353.50304267671890556812,-7.33624276457004,-2.91726432081057,344.643391216773
738353.50304276845417916775,-7.33624276457004,-2.91726432081057,344.618772952462
738353.50304286007303744555,-7.32393363241473,-2.92957345296589,344.631082084618
738353.50304295180831104517,-7.32393363241473,-2.90495518865525,344.643391216773
738353.50304304342716932297,-7.32393363241473,-2.91726432081057,344.717246009705
738353.50304313516244292259,-7.33624276457004,-2.92957345296589,344.766482538326
738353.50304322678130120039,-7.33624276457004,-2.92957345296589,344.680318613239
738353.50304331851657480001,-7.31162450025941,-2.91726432081057,344.72955514186
738353.50304341013543307781,-7.32393363241473,-2.91726432081057,344.70493687755
738353.50304350175429135561,-7.31162450025941,-2.91726432081057,344.643391216773
738353.50304359348956495523,-7.31162450025941,-2.90495518865525,344.717246009705
738353.50304368510842323303,-7.31162450025941,-2.91726432081057,344.70493687755
738353.50304377684369683266,-7.31162450025941,-2.90495518865525,344.655700348928
738353.50304386846255511045,-7.31162450025941,-2.91726432081057,344.692627745394
738353.50304396019782871008,-7.28700623594877,-2.89264605649993,344.70493687755
738353.50304405181668698788,-7.29931536810409,-2.90495518865525,344.680318613239
738353.50304414355196058750,-7.28700623594877,-2.90495518865525,344.594154688152
738353.50304423517081886530,-7.28700623594877,-2.89264605649993,344.70493687755
738353.50304432690609246492,-7.28700623594877,-2.90495518865525,344.70493687755
738353.50304441852495074272,-7.29931536810409,-2.89264605649993,344.668009481084
738353.50304451014380902052,-7.28700623594877,-2.90495518865525,344.70493687755
738353.50304460187908262014,-7.28700623594877,-2.90495518865525,344.692627745394
738353.50304469349794089794,-7.28700623594877,-2.90495518865525,344.680318613239
738353.50304478523321449757,-7.29931536810409,-2.90495518865525,344.643391216773
738353.50304487685207277536,-7.27469710379345,-2.90495518865525,344.70493687755
738353.50304496858734637499,-7.27469710379345,-2.89264605649993,344.692627745394
738353.50304506020620465279,-7.28700623594877,-2.90495518865525,344.655700348928
738353.50304515194147825241,-7.26238797163813,-2.90495518865525,344.594154688152
738353.50304524356033653021,-7.27469710379345,-2.90495518865525,344.692627745394
738353.50304533517919480801,-7.26238797163813,-2.90495518865525,344.692627745394
738353.50304542691446840763,-7.25007883948281,-2.90495518865525,344.692627745394
738353.50304551853332668543,-7.25007883948281,-2.91726432081057,344.643391216773
738353.50304561026860028505,-7.23776970732749,-2.89264605649993,344.692627745394
738353.50304570188745856285,-7.22546057517218,-2.8680277921893,344.655700348928
738353.50304579362273216248,-7.25007883948281,-2.89264605649993,344.54491815953
738353.50304588524159044027,-7.1762240465509,-2.8064821314127,344.581845555996
738353.50304597697686403990,-7.21315144301686,-2.85571866003398,344.581845555996
738353.50304606859572231770,-7.22546057517218,-2.85571866003398,344.692627745394
738353.50304616033099591732,-7.22546057517218,-2.85571866003398,344.680318613239
738353.50304625194985419512,-7.27469710379345,-2.92957345296589,344.692627745394
738353.50304634356871247292,-7.26238797163813,-2.92957345296589,344.606463820307
738353.50304643530398607254,-7.25007883948281,-2.91726432081057,344.668009481084
738353.50304652692284435034,-7.25007883948281,-2.91726432081057,344.692627745394
738353.50304661865811794996,-7.25007883948281,-2.91726432081057,344.618772952462
738353.50304671027697622776,-7.25007883948281,-2.92957345296589,344.70493687755
738353.50304680201224982738,-7.22546057517218,-2.89264605649993,344.70493687755
738353.50304689363110810518,-7.23776970732749,-2.91726432081057,344.70493687755
738353.50304698536638170481,-7.23776970732749,-2.91726432081057,344.655700348928
738353.50304707698523998260,-7.23776970732749,-2.92957345296589,344.692627745394
738353.50304716860409826040,-7.25007883948281,-3.05266477451908,344.72955514186
738353.50304726033937186003,-7.21315144301686,-3.04035564236376,344.791100802637
738353.50304735195823013783,-7.05313272499771,-2.68339080985951,344.975737784967
738353.50304744369350373745,-6.79464094973601,-2.1540981271808,344.557227291686
738353.50304753531236201525,-6.47460351369772,-1.42785933001699,344.286426384269
738353.50304762704763561487,-6.68385876033815,-1.20629495122125,344.384899441511
738353.50304771866649389267,-6.99158706422112,-1.74789676605528,344.33566291289
738353.50304781040176749229,-7.13929665008494,-2.43720816675314,344.384899441511
738353.50304790202062577009,-7.13929665008494,-2.67108167770419,344.54491815953
738353.50304799375589936972,-7.13929665008494,-2.76955473494675,344.668009481084
738353.50304808537475764751,-7.16391491439558,-2.81879126356802,344.643391216773
738353.50304817699361592531,-7.15160578224026,-2.84340952787866,344.643391216773
738353.50304826872888952494,-7.15160578224026,-2.8680277921893,344.668009481084
738353.50304836034774780273,-7.13929665008494,-2.8680277921893,344.655700348928
738353.50304845208302140236,-7.15160578224026,-2.8680277921893,344.692627745394
738353.50304854370187968016,-7.13929665008494,-2.85571866003398,344.741864274016
738353.50304863543715327978,-7.13929665008494,-2.8680277921893,344.692627745394
738353.50304872705601155758,-7.12698751792962,-2.85571866003398,344.581845555996
738353.50304881879128515720,-7.12698751792962,-2.85571866003398,344.668009481084
738353.50304891041014343500,-7.11467838577431,-2.84340952787866,344.754173406171
738353.50304900202900171280,-7.10236925361899,-2.84340952787866,344.766482538326
738353.50304909376427531242,-7.11467838577431,-2.84340952787866,344.717246009705
738353.50304918538313359022,-7.09006012146367,-2.8064821314127,344.766482538326
738353.50304927711840718985,-7.07775098930835,-2.81879126356802,344.778791670481
738353.50304936873726546764,-7.07775098930835,-2.8064821314127,344.778791670481
738353.50304946047253906727,-7.06544185715303,-2.78186386710206,344.668009481084
738353.50304955209139734507,-7.05313272499771,-2.78186386710206,344.692627745394
738353.50304964382667094469,-7.01620532853175,-2.74493647063611,344.828028199103
738353.50304973544552922249,-7.01620532853175,-2.72031820632547,344.778791670481
738353.50304982718080282211,-7.00389619637644,-2.70800907417015,344.852646463413
738353.50304991879966109991,-6.9792779320658,-2.65877254554888,344.864955595569
738353.50305001041851937771,-6.96696879991048,-2.62184514908292,344.889573859879
738353.50305010215379297733,-6.93004140344452,-2.57260862046164,344.889573859879
738353.50305019377265125513,-6.9177322712892,-2.53568122399569,344.951119520656
738353.50305028550792485476,-6.88080487482325,-2.46182643106377,344.988046917122
738353.50305037712678313255,-6.85618661051261,-2.40028077028718,345.012665181433
738353.50305046886205673218,-6.83156834620197,-2.33873510951058,345.024974313588
738353.50305056048091500998,-6.83156834620197,-2.31411684519995,345.012665181433
738353.50305065221618860960,-6.80695008189133,-2.26488031657867,345.012665181433
738353.50305074383504688740,-6.79464094973601,-2.24026205226803,344.926501256345
738353.50305083545390516520,-6.79464094973601,-2.27718944873399,344.926501256345
738353.50305092718917876482,-6.81925921404665,-2.3510442416659,344.926501256345
738353.50305101880803704262,-6.85618661051261,-2.44951729890845,344.754173406171
738353.50305111054331064224,-6.89311400697857,-2.54799035615101,344.70493687755
738353.50305120216216892004,-6.90542313913388,-2.62184514908292,344.717246009705
738353.50305129389744251966,-6.94235053559984,-2.68339080985951,344.692627745394
738353.50305138551630079746,-6.9792779320658,-2.73262733848079,344.668009481084
738353.50305147725157439709,-6.9792779320658,-2.76955473494675,344.692627745394
738353.50305156887043267488,-6.99158706422112,-2.79417299925738,344.72955514186
738353.50305166060570627451,-7.00389619637644,-2.8064821314127,344.70493687755
738353.50305175222456455231,-7.00389619637644,-2.81879126356802,344.668009481084
738353.50305184384342283010,-6.99158706422112,-2.8064821314127,344.692627745394
738353.50305193557869642973,-6.99158706422112,-2.81879126356802,344.692627745394
738353.50305202719755470753,-6.99158706422112,-2.81879126356802,344.692627745394
738353.50305211893282830715,-6.99158706422112,-2.83110039572334,344.680318613239
738353.50305221055168658495,-6.9792779320658,-2.81879126356802,344.606463820307
738353.50305230228696018457,-6.9792779320658,-2.81879126356802,344.680318613239
738353.50305239390581846237,-6.9792779320658,-2.83110039572334,344.668009481084
738353.50305248564109206200,-6.9792779320658,-2.83110039572334,344.668009481084
738353.50305257725995033979,-6.96696879991048,-2.83110039572334,344.618772952462
738353.50305266887880861759,-6.9792779320658,-2.83110039572334,344.668009481084
738353.50305276061408221722,-6.9792779320658,-2.83110039572334,344.668009481084
738353.50305285223294049501,-6.96696879991048,-2.83110039572334,344.581845555996
738353.50305294396821409464,-6.96696879991048,-2.84340952787866,344.668009481084
738353.50305303558707237244,-6.96696879991048,-2.83110039572334,344.581845555996
738353.50305312732234597206,-6.96696879991048,-2.84340952787866,344.507990763064
738353.50305321894120424986,-6.96696879991048,-2.84340952787866,344.655700348928
738353.50305331067647784948,-6.96696879991048,-2.85571866003398,344.668009481084
738353.50305340229533612728,-6.95465966775516,-2.85571866003398,344.655700348928
738353.50305349403060972691,-6.94235053559984,-2.85571866003398,344.606463820307
738353.50305358564946800470,-6.95465966775516,-2.85571866003398,344.643391216773
738353.50305367726832628250,-6.95465966775516,-2.85571866003398,344.557227291686
738353.50305376900359988213,-6.95465966775516,-2.8680277921893,344.655700348928
738353.50305386062245815992,-6.95465966775516,-2.8680277921893,344.594154688152
738353.50305395235773175955,-6.94235053559984,-2.8680277921893,344.643391216773
738353.50305404397659003735,-6.94235053559984,-2.8680277921893,344.54491815953
738353.50305413571186363697,-6.94235053559984,-2.8680277921893,344.692627745394
738353.50305422733072191477,-6.95465966775516,-2.89264605649993,344.70493687755
738353.50305431906599551439,-6.94235053559984,-2.89264605649993,344.631082084618
738353.50305441068485379219,-6.93004140344452,-2.89264605649993,344.594154688152
738353.50305450230371206999,-6.94235053559984,-2.89264605649993,344.631082084618
738353.50305459403898566961,-6.93004140344452,-2.8680277921893,344.631082084618
738353.50305468565784394741,-6.94235053559984,-2.88033692434461,344.52029989522
738353.50305477739311754704,-6.94235053559984,-2.89264605649993,344.606463820307
738353.50305486901197582483,-6.94235053559984,-2.88033692434461,344.631082084618
738353.50305496074724942446,-6.93004140344452,-2.89264605649993,344.606463820307
738353.50305505236610770226,-6.9177322712892,-2.88033692434461,344.594154688152
738353.50305514410138130188,-6.93004140344452,-2.88033692434461,344.631082084618
738353.50305523572023957968,-6.94235053559984,-2.91726432081057,344.606463820307
738353.50305532745551317930,-6.94235053559984,-2.91726432081057,344.495681630909
738353.50305541907437145710,-6.93004140344452,-2.92957345296589,344.594154688152
738353.50305551069322973490,-6.89311400697857,-2.91726432081057,344.606463820307
738353.50305560242850333452,-6.90542313913388,-2.8680277921893,344.569536423841
738353.50305569404736161232,-6.9177322712892,-2.92957345296589,344.618772952462
738353.50305578578263521194,-6.9177322712892,-2.94188258512121,344.594154688152
738353.50305587740149348974,-6.90542313913388,-2.92957345296589,344.532609027375
738353.50305596913676708937,-6.88080487482325,-2.84340952787866,344.54491815953
738353.50305606075562536716,-6.89311400697857,-2.89264605649993,344.532609027375
738353.50305615249089896679,-6.90542313913388,-2.90495518865525,344.54491815953
738353.50305624410975724459,-6.89311400697857,-2.94188258512121,344.507990763064
738353.50305633572861552238,-6.89311400697857,-2.91726432081057,344.594154688152
738353.50305642746388912201,-6.89311400697857,-2.91726432081057,344.581845555996
738353.50305651908274739981,-6.89311400697857,-2.95419171727653,344.606463820307
738353.50305661081802099943,-6.89311400697857,-2.97880998158717,344.52029989522
738353.50305670243687927723,-6.89311400697857,-2.94188258512121,344.458754234443
738353.50305679417215287685,-6.88080487482325,-2.90495518865525,344.594154688152
738353.50305688579101115465,-6.89311400697857,-2.92957345296589,344.594154688152
738353.50305697752628475428,-6.88080487482325,-2.91726432081057,344.581845555996
738353.50305706914514303207,-6.86849574266793,-2.92957345296589,344.594154688152
738353.50305716088041663170,-6.85618661051261,-2.94188258512121,344.569536423841
738353.50305725249927490950,-6.86849574266793,-2.96650084943185,344.532609027375
738353.50305734411813318729,-6.85618661051261,-2.94188258512121,344.569536423841
738353.50305743585340678692,-6.86849574266793,-2.95419171727653,344.569536423841
738353.50305752747226506472,-6.84387747835729,-2.91726432081057,344.507990763064
738353.50305761920753866434,-6.83156834620197,-2.94188258512121,344.458754234443
738353.50305771082639694214,-6.83156834620197,-2.90495518865525,344.52029989522
738353.50305780256167054176,-6.83156834620197,-2.8680277921893,344.569536423841
738353.50305789418052881956,-6.85618661051261,-2.96650084943185,344.569536423841
738353.50305798591580241919,-6.85618661051261,-2.99111911374248,344.54491815953
738353.50305807753466069698,-6.88080487482325,-2.95419171727653,344.54491815953
738353.50305816915351897478,-6.88080487482325,-3.01573737805312,344.54491815953
738353.50305826088879257441,-6.86849574266793,-2.99111911374248,344.52029989522
738353.50305835250765085220,-6.86849574266793,-2.97880998158717,344.384899441511
738353.50305844424292445183,-6.88080487482325,-3.01573737805312,344.532609027375
738353.50305853586178272963,-6.86849574266793,-2.97880998158717,344.52029989522
738353.50305862759705632925,-6.86849574266793,-2.99111911374248,344.483372498754
738353.50305871921591460705,-6.85618661051261,-3.02804651020844,344.495681630909
738353.50305881095118820667,-6.86849574266793,-3.01573737805312,344.507990763064
738353.50305890257004648447,-6.85618661051261,-3.0034282458978,344.52029989522
738353.50305899430532008410,-6.88080487482325,-3.16344696391695,344.495681630909
738353.50305908592417836189,-6.86849574266793,-3.15113783176163,344.643391216773
738353.50305917754303663969,-6.73309528895942,-2.78186386710206,344.852646463413
738353.50305926927831023932,-6.47460351369772,-2.27718944873399,344.409517705822
738353.50305936089716851711,-6.16687520981475,-1.5632597837255,344.249498987803
738353.50305945263244211674,-6.40074872076581,-1.40324106570635,344.311044648579
738353.50305954425130039454,-6.64693136387219,-1.98177027700634,344.114098534094
738353.50305963598657399416,-6.79464094973601,-2.67108167770419,344.15102593056
738353.50305972760543227196,-6.81925921404665,-2.8680277921893,344.347972045045
738353.50305981934070587158,-6.80695008189133,-2.84340952787866,344.421826837977
738353.50305991095956414938,-6.79464094973601,-2.91726432081057,344.409517705822
738353.50306000257842242718,-6.80695008189133,-2.96650084943185,344.495681630909
738353.50306009431369602680,-6.80695008189133,-2.96650084943185,344.507990763064
738353.50306018593255430460,-6.79464094973601,-2.97880998158717,344.446445102288
738353.50306027766782790422,-6.80695008189133,-2.95419171727653,344.323353780735
738353.50306036928668618202,-6.79464094973601,-3.04035564236376,344.421826837977
738353.50306046102195978165,-6.79464094973601,-2.95419171727653,344.52029989522
738353.50306055264081805944,-6.7823318175807,-2.96650084943185,344.471063366599
738353.50306064437609165907,-6.7823318175807,-2.97880998158717,344.52029989522
738353.50306073599494993687,-6.79464094973601,-3.0034282458978,344.52029989522
738353.50306082773022353649,-6.79464094973601,-2.97880998158717,344.483372498754
738353.50306091934908181429,-6.7823318175807,-2.99111911374248,344.495681630909
738353.50306101096794009209,-6.7823318175807,-3.0034282458978,344.458754234443
738353.50306110270321369171,-6.7823318175807,-2.97880998158717,344.471063366599
738353.50306119432207196951,-6.77002268542538,-2.95419171727653,344.458754234443
738353.50306128605734556913,-6.75771355327006,-2.92957345296589,344.483372498754
738353.50306137767620384693,-6.75771355327006,-2.92957345296589,344.569536423841
738353.50306146941147744656,-6.74540442111474,-2.94188258512121,344.54491815953
738353.50306156103033572435,-6.73309528895942,-2.91726432081057,344.557227291686
738353.50306165276560932398,-6.7207861568041,-2.88033692434461,344.594154688152
738353.50306174438446760178,-6.70847702464878,-2.84340952787866,344.606463820307
738353.50306183600332587957,-6.69616789249346,-2.76955473494675,344.581845555996
738353.50306192773859947920,-6.67154962818283,-2.78186386710206,344.655700348928
738353.50306201935745775700,-6.64693136387219,-2.70800907417015,344.668009481084
738353.50306211109273135662,-6.62231309956155,-2.6095360169276,344.70493687755
738353.50306220271158963442,-6.62231309956155,-2.62184514908292,344.643391216773
738353.50306229444686323404,-6.58538570309559,-2.51106295968505,344.766482538326
738353.50306238606572151184,-6.57307657094027,-2.48644469537441,344.766482538326
738353.50306247780099511147,-6.57307657094027,-2.44951729890845,344.754173406171
738353.50306256941985338926,-6.54845830662964,-2.4125899024425,344.766482538326
738353.50306266115512698889,-6.54845830662964,-2.46182643106377,344.754173406171
738353.50306275277398526669,-6.58538570309559,-2.57260862046164,344.717246009705
738353.50306284439284354448,-6.61000396740623,-2.64646341339356,344.581845555996
738353.50306293612811714411,-6.64693136387219,-2.75724560279143,344.618772952462
738353.50306302774697542191,-6.68385876033815,-2.81879126356802,344.581845555996
738353.50306311948224902153,-6.7207861568041,-2.91726432081057,344.52029989522
738353.50306321110110729933,-6.73309528895942,-2.95419171727653,344.471063366599
738353.50306330283638089895,-6.75771355327006,-2.92957345296589,344.483372498754
738353.50306339445523917675,-6.77002268542538,-2.94188258512121,344.483372498754
738353.50306348619051277637,-6.79464094973601,-2.97880998158717,344.471063366599
738353.50306357780937105417,-6.79464094973601,-3.0034282458978,344.384899441511
738353.50306366942822933197,-6.79464094973601,-3.0034282458978,344.421826837977
738353.50306376116350293159,-6.79464094973601,-3.01573737805312,344.421826837977
738353.50306385278236120939,-6.79464094973601,-3.01573737805312,344.311044648579
738353.50306394451763480902,-6.80695008189133,-3.02804651020844,344.372590309356
738353.50306403613649308681,-6.79464094973601,-3.02804651020844,344.446445102288
738353.50306412787176668644,-6.80695008189133,-3.02804651020844,344.458754234443
738353.50306421949062496424,-6.80695008189133,-2.99111911374248,344.421826837977
738353.50306431122589856386,-6.81925921404665,-3.0034282458978,344.446445102288
738353.50306440284475684166,-6.81925921404665,-3.02804651020844,344.458754234443
738353.50306449458003044128,-6.81925921404665,-3.02804651020844,344.471063366599
738353.50306458619888871908,-6.80695008189133,-3.0034282458978,344.397208573667
738353.50306467781774699688,-6.80695008189133,-3.01573737805312,344.471063366599
738353.50306476955302059650,-6.80695008189133,-3.01573737805312,344.458754234443
738353.50306486117187887430,-6.80695008189133,-3.04035564236376,344.446445102288
738353.50306495290715247393,-6.80695008189133,-3.02804651020844,344.458754234443
738353.50306504452601075172,-6.80695008189133,-3.05266477451908,344.458754234443
738353.50306513626128435135,-6.80695008189133,-3.0649739066744,344.458754234443
738353.50306522788014262915,-6.80695008189133,-3.02804651020844,344.421826837977
738353.50306531961541622877,-6.81925921404665,-3.02804651020844,344.446445102288
738353.50306541123427450657,-6.81925921404665,-3.05266477451908,344.446445102288
738353.50306550285313278437,-6.83156834620197,-3.02804651020844,344.446445102288
738353.50306559458840638399,-6.81925921404665,-3.04035564236376,344.446445102288
738353.50306568620726466179,-6.81925921404665,-3.05266477451908,344.409517705822
738353.50306577794253826141,-6.81925921404665,-3.07728303882972,344.434135970133
738353.50306586956139653921,-6.80695008189133,-3.02804651020844,344.421826837977
738353.50306596129667013884,-6.81925921404665,-3.0649739066744,344.360281177201
738353.50306605291552841663,-6.81925921404665,-3.07728303882972,344.421826837977
738353.50306614465080201626,-6.83156834620197,-3.0649739066744,344.434135970133
738353.50306623626966029406,-6.83156834620197,-3.07728303882972,344.372590309356
738353.50306632800493389368,-6.81925921404665,-3.07728303882972,344.397208573667
738353.50306641962379217148,-6.81925921404665,-3.04035564236376,344.397208573667
738353.50306651124265044928,-6.81925921404665,-3.05266477451908,344.384899441511
738353.50306660297792404890,-6.81925921404665,-3.07728303882972,344.360281177201
738353.50306669459678232670,-6.81925921404665,-3.07728303882972,344.384899441511
738353.50306678633205592632,-6.81925921404665,-3.07728303882972,344.372590309356
738353.50306687795091420412,-6.83156834620197,-3.10190130314035,344.323353780735
738353.50306696968618780375,-6.81925921404665,-3.0649739066744,344.421826837977
738353.50306706130504608154,-6.81925921404665,-3.12651956745099,344.421826837977
738353.50306715304031968117,-6.81925921404665,-3.08959217098504,344.33566291289
738353.50306724465917795897,-6.81925921404665,-3.0649739066744,344.298735516424
738353.50306733627803623676,-6.81925921404665,-3.0649739066744,344.384899441511
738353.50306742801330983639,-6.81925921404665,-3.05266477451908,344.237189855647
738353.50306751963216811419,-6.83156834620197,-3.07728303882972,344.384899441511
738353.50306761136744171381,-6.81925921404665,-3.10190130314035,344.409517705822
738353.50306770298629999161,-6.83156834620197,-3.05266477451908,344.421826837977
738353.50306779472157359123,-6.83156834620197,-3.07728303882972,344.397208573667
738353.50306788634043186903,-6.83156834620197,-3.10190130314035,344.421826837977
738353.50306797807570546865,-6.81925921404665,-3.11421043529567,344.421826837977
738353.50306806969456374645,-6.83156834620197,-3.07728303882972,344.409517705822
738353.50306816142983734608,-6.81925921404665,-3.08959217098504,344.372590309356
738353.50306825304869562387,-6.81925921404665,-3.12651956745099,344.397208573667
738353.50306834466755390167,-6.81925921404665,-3.04035564236376,344.421826837977
738353.50306843640282750130,-6.83156834620197,-3.0649739066744,344.409517705822
738353.50306852802168577909,-6.83156834620197,-3.08959217098504,344.372590309356
738353.50306861975695937872,-6.83156834620197,-3.07728303882972,344.409517705822
738353.50306871137581765652,-6.80695008189133,-3.08959217098504,344.397208573667
738353.50306880311109125614,-6.81925921404665,-3.10190130314035,344.372590309356
738353.50306889472994953394,-6.81925921404665,-3.12651956745099,344.409517705822
738353.50306898646522313356,-6.79464094973601,-3.0649739066744,344.397208573667
738353.50306907808408141136,-6.7823318175807,-3.02804651020844,344.397208573667
738353.50306916970293968916,-6.80695008189133,-3.07728303882972,344.311044648579
738353.50306926143821328878,-6.79464094973601,-3.0649739066744,344.372590309356
738353.50306935305707156658,-6.79464094973601,-3.01573737805312,344.421826837977
738353.50306944479234516621,-6.7823318175807,-2.99111911374248,344.421826837977
738353.50306953641120344400,-6.81925921404665,-3.04035564236376,344.347972045045
738353.50306962814647704363,-6.85618661051261,-3.08959217098504,344.397208573667
738353.50306971976533532143,-6.85618661051261,-3.13882869960631,344.409517705822
738353.50306981150060892105,-6.85618661051261,-3.10190130314035,344.372590309356
738353.50306990311946719885,-6.85618661051261,-3.11421043529567,344.274117252113
738353.50306999485474079847,-6.86849574266793,-3.13882869960631,344.323353780735
738353.50307008647359907627,-6.85618661051261,-3.13882869960631,344.323353780735
738353.50307017809245735407,-6.85618661051261,-3.07728303882972,344.274117252113
738353.50307026982773095369,-6.85618661051261,-3.08959217098504,344.347972045045
738353.50307036144658923149,-6.85618661051261,-3.0649739066744,344.397208573667
738353.50307045318186283112,-6.86849574266793,-3.11421043529567,344.347972045045
738353.50307054480072110891,-6.90542313913388,-3.29884741762546,344.409517705822
738353.50307063653599470854,-6.81925921404665,-3.17575609607227,344.594154688152
738353.50307072815485298634,-6.64693136387219,-2.8064821314127,344.594154688152
738353.50307081989012658596,-6.3268939278339,-2.19102552364676,344.200262459181
738353.50307091150898486376,-6.15456607765943,-1.87098808760847,344.052552873318
738353.50307100312784314156,-6.22842087059135,-1.5632597837255,343.880225023143
738353.50307109486311674118,-6.58538570309559,-1.89560635191911,344.12640766625
738353.50307118648197501898,-6.7823318175807,-2.6095360169276,344.027934609007
738353.50307127821724861860,-6.80695008189133,-2.83110039572334,344.261808119958
738353.50307136983610689640,-6.80695008189133,-2.97880998158717,344.397208573667
738353.50307146157138049603,-6.81925921404665,-3.01573737805312,344.33566291289
738353.50307155319023877382,-6.81925921404665,-3.04035564236376,344.409517705822
738353.50307164492551237345,-6.81925921404665,-3.07728303882972,344.421826837977
738353.50307173654437065125,-6.83156834620197,-3.08959217098504,344.384899441511
738353.50307182827964425087,-6.83156834620197,-3.08959217098504,344.409517705822
738353.50307191989850252867,-6.83156834620197,-3.08959217098504,344.421826837977
738353.50307201151736080647,-6.81925921404665,-3.10190130314035,344.434135970133
738353.50307210325263440609,-6.81925921404665,-3.08959217098504,344.434135970133
738353.50307219487149268389,-6.80695008189133,-3.05266477451908,344.434135970133
738353.50307228660676628351,-6.80695008189133,-3.05266477451908,344.434135970133
738353.50307237822562456131,-6.80695008189133,-3.0649739066744,344.434135970133
738353.50307246996089816093,-6.80695008189133,-3.05266477451908,344.458754234443
738353.50307256157975643873,-6.80695008189133,-3.07728303882972,344.458754234443
738353.50307265331503003836,-6.79464094973601,-3.05266477451908,344.409517705822
738353.50307274493388831615,-6.79464094973601,-3.02804651020844,344.483372498754
738353.50307283655274659395,-6.79464094973601,-3.04035564236376,344.483372498754
738353.50307292828802019358,-6.7823318175807,-3.04035564236376,344.495681630909
738353.50307301990687847137,-6.77002268542538,-3.01573737805312,344.507990763064
738353.50307311164215207100,-6.77002268542538,-2.99111911374248,344.495681630909
738353.50307320326101034880,-6.75771355327006,-2.94188258512121,344.557227291686
738353.50307329499628394842,-6.74540442111474,-2.91726432081057,344.569536423841
738353.50307338661514222622,-6.7207861568041,-2.91726432081057,344.557227291686
738353.50307347835041582584,-6.70847702464878,-2.85571866003398,344.618772952462
738353.50307356996927410364,-6.68385876033815,-2.79417299925738,344.655700348928
738353.50307366170454770327,-6.65924049602751,-2.74493647063611,344.631082084618
738353.50307375332340598106,-6.63462223171687,-2.70800907417015,344.52029989522
738353.50307384494226425886,-6.61000396740623,-2.6095360169276,344.692627745394
738353.50307393667753785849,-6.59769483525091,-2.58491775261696,344.70493687755
738353.50307402829639613628,-6.57307657094027,-2.56029948830632,344.631082084618
738353.50307412003166973591,-6.56076743878496,-2.52337209184037,344.668009481084
738353.50307421165052801371,-6.59769483525091,-2.62184514908292,344.655700348928
738353.50307430338580161333,-6.62231309956155,-2.67108167770419,344.557227291686
738353.50307439500465989113,-6.65924049602751,-2.73262733848079,344.54491815953
738353.50307448673993349075,-6.70847702464878,-2.8680277921893,344.298735516424
738353.50307457835879176855,-6.74540442111474,-2.92957345296589,344.274117252113
738353.50307466997765004635,-6.74540442111474,-2.91726432081057,344.33566291289
738353.50307476171292364597,-6.77002268542538,-2.96650084943185,344.347972045045
738353.50307485333178192377,-6.80695008189133,-3.02804651020844,344.33566291289
