time_dn,ecg_projection_ll_ra_mV,ecg_projection_la_ra_mV,ecg_projection_vx_rl_mV
738534.47146863956004381180,-3.54503006073183,0.526215399639882,-299.278084658345
738534.47146873001474887133,-3.54503006073183,0.526215399639882,-299.315012054811
738534.47146882046945393085,-3.53579821161534,0.526215399639882,-299.333475753044
738534.47146891080774366856,-3.54503006073183,0.480056154057436,-299.259620960112
738534.47146900126244872808,-3.53579821161534,0.507751701406903,-299.278084658345
738534.47146909171715378761,-3.52656636249886,0.498519852290414,-299.194998016297
738534.47146918217185884714,-3.50810266426588,0.54467909787286,-299.250389110996
738534.47146927262656390667,-3.50810266426588,0.507751701406903,-299.268852809229
738534.47146936308126896620,-3.49887081514939,0.535447248756371,-299.268852809229
738534.47146945341955870390,-3.50810266426588,0.535447248756371,-299.21346171453
738534.47146954387426376343,-3.49887081514939,0.535447248756371,-299.268852809229
738534.47146963432896882296,-3.50810266426588,0.498519852290414,-299.268852809229
738534.47146972478367388248,-3.49887081514939,0.535447248756371,-299.222693563646
738534.47146981523837894201,-3.50810266426588,0.535447248756371,-299.268852809229
738534.47146990569308400154,-3.49887081514939,0.54467909787286,-299.278084658345
738534.47146999603137373924,-3.52656636249886,0.498519852290414,-299.278084658345
738534.47147008648607879877,-3.51733451338237,0.489288003173925,-299.241157261879
738534.47147017694078385830,-3.52656636249886,0.535447248756371,-299.268852809229
738534.47147026739548891783,-3.52656636249886,0.507751701406903,-299.268852809229
738534.47147035785019397736,-3.52656636249886,0.498519852290414,-299.241157261879
738534.47147044830489903688,-3.52656636249886,0.507751701406903,-299.268852809229
738534.47147053864318877459,-3.53579821161534,0.489288003173925,-299.278084658345
738534.47147062909789383411,-3.54503006073183,0.452360606707968,-299.278084658345
738534.47147071955259889364,-3.53579821161534,0.516983550523392,-299.259620960112
738534.47147081000730395317,-3.54503006073183,0.535447248756371,-299.287316507462
738534.47147090046200901270,-3.53579821161534,0.516983550523392,-299.268852809229
738534.47147099091671407223,-3.55426190984832,0.489288003173925,-299.250389110996
738534.47147108125500380993,-3.53579821161534,0.507751701406903,-299.278084658345
738534.47147117170970886946,-3.55426190984832,0.489288003173925,-299.268852809229
738534.47147126216441392899,-3.53579821161534,0.498519852290414,-299.241157261879
738534.47147135261911898851,-3.55426190984832,0.480056154057436,-299.278084658345
738534.47147144307382404804,-3.53579821161534,0.452360606707968,-299.278084658345
738534.47147153352852910757,-3.54503006073183,0.54467909787286,-299.241157261879
738534.47147162386681884527,-3.54503006073183,0.516983550523392,-299.278084658345
738534.47147171432152390480,-3.55426190984832,0.498519852290414,-299.268852809229
738534.47147180477622896433,-3.54503006073183,0.489288003173925,-299.038056581317
738534.47147189523093402386,-3.53579821161534,0.498519852290414,-299.074983977782
738534.47147198568563908339,-3.55426190984832,0.489288003173925,-299.21346171453
738534.47147207614034414291,-3.54503006073183,0.507751701406903,-299.21346171453
738534.47147216647863388062,-3.55426190984832,0.461592455824458,-299.204229865413
738534.47147225693333894014,-3.53579821161534,0.480056154057436,-299.268852809229
738534.47147234738804399967,-3.53579821161534,0.54467909787286,-299.250389110996
738534.47147243784274905920,-3.52656636249886,0.498519852290414,-299.222693563646
738534.47147252829745411873,-3.49887081514939,0.480056154057436,-299.250389110996
738534.47147261875215917826,-3.47117526779992,0.470824304940947,-299.259620960112
738534.47147270909044891596,-3.46194341868343,0.572374645222327,-299.231925412763
738534.47147279954515397549,-3.44347972045045,0.54467909787286,-299.268852809229
738534.47147288999985903502,-3.42501602221747,0.516983550523392,-299.250389110996
738534.47147298045456409454,-3.4065523239845,0.480056154057436,-299.204229865413
738534.47147307090926915407,-3.38808862575152,0.498519852290414,-299.194998016297
738534.47147316136397421360,-3.43424787133396,0.516983550523392,-299.259620960112
738534.47147325170226395130,-3.47117526779992,0.581606494338817,-299.241157261879
738534.47147334215696901083,-3.4896389660329,0.516983550523392,-299.194998016297
738534.47147343261167407036,-3.50810266426588,0.470824304940947,-299.268852809229
738534.47147352306637912989,-3.53579821161534,0.480056154057436,-299.259620960112
738534.47147361352108418941,-3.56349375896481,0.526215399639882,-299.231925412763
738534.47147370385937392712,-3.56349375896481,0.498519852290414,-299.222693563646
738534.47147379431407898664,-3.56349375896481,0.480056154057436,-299.259620960112
738534.47147388476878404617,-3.58195745719779,0.461592455824458,-299.250389110996
738534.47147397522348910570,-3.5727256080813,0.470824304940947,-299.18576616718
738534.47147406567819416523,-3.5727256080813,0.470824304940947,-299.250389110996
738534.47147415613289922476,-3.56349375896481,0.452360606707968,-299.250389110996
738534.47147424647118896246,-3.5727256080813,0.553910946989349,-299.250389110996
738534.47147433692589402199,-3.4065523239845,0.581606494338817,-299.231925412763
738534.47147442738059908152,-2.981887264626,0.720084231086154,-299.176534318064
738534.47147451783530414104,-2.48336741233558,0.692388683736686,-299.111911374248
738534.47147460829000920057,-2.26180303353984,0.664693136387219,-299.130375072481
738534.47147469874471426010,-2.75109103671377,0.526215399639882,-299.18576616718
738534.47147478908300399780,-3.29577013458663,0.193868831446272,-299.231925412763
738534.47147487953770905733,-3.49887081514939,0.21233252967925,-299.305780205695
738534.47147496999241411686,-3.53579821161534,0.406201361125523,-299.268852809229
738534.47147506044711917639,-3.51733451338237,0.452360606707968,-299.241157261879
738534.47147515090182423592,-3.51733451338237,0.489288003173925,-299.241157261879
738534.47147524135652929544,-3.52656636249886,0.470824304940947,-299.259620960112
738534.47147533169481903315,-3.52656636249886,0.535447248756371,-299.074983977782
738534.47147542214952409267,-3.52656636249886,0.516983550523392,-299.139606921598
738534.47147551260422915220,-3.51733451338237,0.516983550523392,-299.250389110996
738534.47147560305893421173,-3.52656636249886,0.54467909787286,-299.250389110996
738534.47147569351363927126,-3.52656636249886,0.54467909787286,-299.250389110996
738534.47147578396834433079,-3.51733451338237,0.553910946989349,-299.222693563646
738534.47147587430663406849,-3.50810266426588,0.526215399639882,-299.241157261879
738534.47147596476133912802,-3.50810266426588,0.563142796105838,-299.222693563646
738534.47147605521604418755,-3.49887081514939,0.553910946989349,-299.204229865413
738534.47147614567074924707,-3.48040711691641,0.590838343455306,-299.222693563646
738534.47147623612545430660,-3.47117526779992,0.563142796105838,-299.231925412763
738534.47147632658015936613,-3.45271156956694,0.581606494338817,-299.21346171453
738534.47147641691844910383,-3.42501602221747,0.627765739921262,-299.194998016297
738534.47147650737315416336,-3.4065523239845,0.664693136387219,-299.148838770714
738534.47147659782785922289,-3.37885677663503,0.64622943815424,-299.176534318064
738534.47147668828256428242,-3.34192938016907,0.673924985503708,-299.204229865413
738534.47147677873726934195,-3.32346568193609,0.701620532853175,-299.158070619831
738534.47147686919197440147,-3.25884273812067,0.75701162755211,-299.167302468947
738534.47147695953026413918,-3.22191534165471,0.784707174901578,-299.18576616718
738534.47147704998496919870,-3.18498794518876,0.784707174901578,-299.130375072481
738534.47147714043967425823,-3.1480605487228,0.830866420484023,-299.130375072481
738534.47147723089437931776,-3.12036500137333,0.86779381694998,-299.176534318064
738534.47147732134908437729,-3.11113315225684,0.886257515182958,-299.176534318064
738534.47147741180378943682,-3.08343760490738,0.904721213415937,-299.111911374248
738534.47147750214207917452,-3.09266945402387,0.895489364299448,-299.084215826899
738534.47147759259678423405,-3.11113315225684,0.840098269600513,-299.111911374248
738534.47147768305148929358,-3.1480605487228,0.803170873134556,-299.111911374248
738534.47147777350619435310,-3.21268349253822,0.701620532853175,-299.093447676016
738534.47147786396089941263,-3.24961088900418,0.683156834620197,-299.130375072481
738534.47147795441560447216,-3.31423383281961,0.609302041688284,-299.148838770714
738534.47147804475389420986,-3.36039307840205,0.581606494338817,-299.241157261879
738534.47147813520859926939,-3.4065523239845,0.553910946989349,-299.167302468947
738534.47147822566330432892,-3.43424787133396,0.553910946989349,-299.194998016297
738534.47147831611800938845,-3.45271156956694,0.526215399639882,-299.18576616718
738534.47147840657271444798,-3.46194341868343,0.516983550523392,-299.241157261879
738534.47147849702741950750,-3.4896389660329,0.498519852290414,-299.250389110996
738534.47147858736570924520,-3.48040711691641,0.480056154057436,-299.278084658345
738534.47147867782041430473,-3.4896389660329,0.516983550523392,-299.222693563646
738534.47147876827511936426,-3.47117526779992,0.498519852290414,-299.296548356578
738534.47147885872982442379,-3.48040711691641,0.516983550523392,-299.130375072481
738534.47147894918452948332,-3.47117526779992,0.516983550523392,-299.111911374248
738534.47147903963923454285,-3.48040711691641,0.526215399639882,-299.241157261879
738534.47147912997752428055,-3.47117526779992,0.470824304940947,-299.287316507462
738534.47147922043222934008,-3.46194341868343,0.489288003173925,-299.305780205695
738534.47147931088693439960,-3.46194341868343,0.489288003173925,-299.250389110996
738534.47147940134163945913,-3.46194341868343,0.507751701406903,-299.278084658345
738534.47147949179634451866,-3.45271156956694,0.489288003173925,-299.278084658345
738534.47147958225104957819,-3.45271156956694,0.516983550523392,-299.231925412763
738534.47147967258933931589,-3.46194341868343,0.516983550523392,-299.21346171453
738534.47147976304404437542,-3.44347972045045,0.489288003173925,-299.241157261879
738534.47147985349874943495,-3.46194341868343,0.498519852290414,-299.231925412763
738534.47147994395345449448,-3.46194341868343,0.489288003173925,-299.167302468947
738534.47148003440815955400,-3.46194341868343,0.507751701406903,-299.231925412763
738534.47148012486286461353,-3.45271156956694,0.498519852290414,-299.231925412763
738534.47148021520115435123,-3.47117526779992,0.507751701406903,-299.167302468947
738534.47148030565585941076,-3.47117526779992,0.489288003173925,-299.231925412763
738534.47148039611056447029,-3.48040711691641,0.516983550523392,-299.231925412763
738534.47148048656526952982,-3.4896389660329,0.470824304940947,-299.241157261879
738534.47148057701997458935,-3.4896389660329,0.489288003173925,-299.21346171453
738534.47148066747467964888,-3.4896389660329,0.470824304940947,-299.231925412763
738534.47148075781296938658,-3.4896389660329,0.498519852290414,-299.231925412763
738534.47148084826767444611,-3.48040711691641,0.489288003173925,-299.18576616718
738534.47148093872237950563,-3.4896389660329,0.507751701406903,-299.158070619831
738534.47148102917708456516,-3.49887081514939,0.461592455824458,-299.176534318064
738534.47148111963178962469,-3.4896389660329,0.489288003173925,-299.222693563646
738534.47148121008649468422,-3.49887081514939,0.489288003173925,-299.176534318064
738534.47148130042478442192,-3.4896389660329,0.480056154057436,-299.18576616718
738534.47148139087948948145,-3.50810266426588,0.489288003173925,-299.18576616718
738534.47148148133419454098,-3.49887081514939,0.480056154057436,-299.222693563646
738534.47148157178889960051,-3.50810266426588,0.498519852290414,-299.194998016297
738534.47148166224360466003,-3.49887081514939,0.443128757591479,-299.194998016297
738534.47148175269830971956,-3.50810266426588,0.498519852290414,-299.222693563646
738534.47148184303659945726,-3.50810266426588,0.470824304940947,-299.167302468947
738534.47148193349130451679,-3.50810266426588,0.461592455824458,-299.176534318064
738534.47148202394600957632,-3.49887081514939,0.498519852290414,-299.158070619831
738534.47148211440071463585,-3.50810266426588,0.498519852290414,-299.158070619831
738534.47148220485541969538,-3.49887081514939,0.470824304940947,-299.204229865413
738534.47148229531012475491,-3.50810266426588,0.470824304940947,-299.222693563646
738534.47148238564841449261,-3.50810266426588,0.461592455824458,-299.05652027955
738534.47148247610311955214,-3.49887081514939,0.489288003173925,-299.148838770714
738534.47148256655782461166,-3.47117526779992,0.489288003173925,-299.250389110996
738534.47148265701252967119,-3.43424787133396,0.470824304940947,-299.21346171453
738534.47148274746723473072,-3.44347972045045,0.480056154057436,-299.222693563646
738534.47148283792193979025,-3.41578417310099,0.526215399639882,-299.250389110996
738534.47148292826022952795,-3.41578417310099,0.507751701406903,-299.278084658345
738534.47148301871493458748,-3.36039307840205,0.507751701406903,-299.222693563646
738534.47148310916963964701,-3.36039307840205,0.516983550523392,-299.259620960112
738534.47148319962434470654,-3.35116122928556,0.507751701406903,-299.278084658345
738534.47148329007904976606,-3.4065523239845,0.498519852290414,-299.204229865413
738534.47148338053375482559,-3.43424787133396,0.516983550523392,-299.241157261879
738534.47148347087204456329,-3.44347972045045,0.54467909787286,-299.250389110996
738534.47148356132674962282,-3.47117526779992,0.489288003173925,-299.287316507462
738534.47148365178145468235,-3.50810266426588,0.489288003173925,-299.204229865413
738534.47148374223615974188,-3.53579821161534,0.43389690847499,-299.268852809229
738534.47148383269086480141,-3.52656636249886,0.470824304940947,-299.287316507462
738534.47148392314556986094,-3.54503006073183,0.452360606707968,-299.18576616718
738534.47148401348385959864,-3.54503006073183,0.470824304940947,-299.250389110996
738534.47148410393856465816,-3.53579821161534,0.489288003173925,-299.305780205695
738534.47148419439326971769,-3.53579821161534,0.480056154057436,-299.222693563646
738534.47148428484797477722,-3.53579821161534,0.489288003173925,-299.250389110996
738534.47148437530267983675,-3.49887081514939,0.526215399639882,-299.268852809229
738534.47148446575738489628,-3.2311471907712,0.609302041688284,-299.231925412763
738534.47148455609567463398,-2.71416364024781,0.710852381969665,-299.093447676016
738534.47148464655037969351,-2.28026673177282,0.673924985503708,-299.148838770714
738534.47148473700508475304,-2.32642597735527,0.618533890804773,-299.176534318064
738534.47148482745978981256,-3.0649739066744,0.341578417310099,-299.222693563646
738534.47148491791449487209,-3.39732047486801,0.129245887630848,-299.241157261879
738534.47148500836919993162,-3.46194341868343,0.193868831446272,-299.296548356578
738534.47148509870748966932,-3.52656636249886,0.350810266426588,-299.296548356578
738534.47148518916219472885,-3.49887081514939,0.470824304940947,-299.296548356578
738534.47148527961689978838,-3.50810266426588,0.480056154057436,-299.21346171453
738534.47148537007160484791,-3.49887081514939,0.489288003173925,-299.18576616718
738534.47148546052630990744,-3.51733451338237,0.516983550523392,-299.176534318064
738534.47148555098101496696,-3.49887081514939,0.507751701406903,-299.158070619831
738534.47148564131930470467,-3.49887081514939,0.526215399639882,-299.167302468947
738534.47148573177400976419,-3.4896389660329,0.526215399639882,-299.204229865413
738534.47148582222871482372,-3.49887081514939,0.553910946989349,-299.167302468947
738534.47148591268341988325,-3.4896389660329,0.54467909787286,-299.111911374248
738534.47148600313812494278,-3.48040711691641,0.553910946989349,-299.121143223365
738534.47148609359283000231,-3.47117526779992,0.526215399639882,-299.194998016297
738534.47148618393111974001,-3.47117526779992,0.553910946989349,-299.21346171453
738534.47148627438582479954,-3.45271156956694,0.572374645222327,-299.21346171453
738534.47148636484052985907,-3.43424787133396,0.581606494338817,-299.204229865413
738534.47148645529523491859,-3.41578417310099,0.572374645222327,-299.158070619831
738534.47148654574993997812,-3.38808862575152,0.627765739921262,-299.204229865413
738534.47148663620464503765,-3.36962492751854,0.618533890804773,-299.111911374248
738534.47148672654293477535,-3.34192938016907,0.673924985503708,-299.121143223365
738534.47148681699763983488,-3.30500198370312,0.701620532853175,-299.121143223365
738534.47148690745234489441,-3.27730643635365,0.710852381969665,-299.18576616718
738534.47148699790704995394,-3.25884273812067,0.747779778435621,-299.222693563646
738534.47148708836175501347,-3.20345164342174,0.784707174901578,-299.167302468947
738534.47148717881646007299,-3.17575609607227,0.803170873134556,-299.167302468947
738534.47148726915474981070,-3.13882869960631,0.830866420484023,-299.18576616718
738534.47148735960945487022,-3.11113315225684,0.840098269600513,-299.194998016297
738534.47148745006415992975,-3.08343760490738,0.86779381694998,-299.121143223365
738534.47148754051886498928,-3.07420575579089,0.895489364299448,-299.18576616718
738534.47148763097357004881,-3.08343760490738,0.858561967833491,-299.18576616718
738534.47148772142827510834,-3.11113315225684,0.830866420484023,-299.167302468947
738534.47148781176656484604,-3.15729239783929,0.75701162755211,-299.194998016297
738534.47148790222126990557,-3.21268349253822,0.720084231086154,-299.18576616718
738534.47148799267597496510,-3.25884273812067,0.65546128727073,-299.18576616718
738534.47148808313068002462,-3.32346568193609,0.600070192571795,-299.204229865413
738534.47148817358538508415,-3.36962492751854,0.535447248756371,-299.21346171453
738534.47148826404009014368,-3.4065523239845,0.526215399639882,-299.21346171453
738534.47148835437837988138,-3.44347972045045,0.498519852290414,-299.194998016297
738534.47148844483308494091,-3.45271156956694,0.507751701406903,-299.222693563646
738534.47148853528779000044,-3.47117526779992,0.507751701406903,-299.21346171453
738534.47148862574249505997,-3.47117526779992,0.507751701406903,-299.18576616718
738534.47148871619720011950,-3.48040711691641,0.498519852290414,-299.21346171453
738534.47148880665190517902,-3.47117526779992,0.480056154057436,-299.21346171453
738534.47148889699019491673,-3.4896389660329,0.516983550523392,-299.21346171453
738534.47148898744489997625,-3.48040711691641,0.461592455824458,-299.194998016297
738534.47148907789960503578,-3.48040711691641,0.489288003173925,-299.231925412763
738534.47148916835431009531,-3.47117526779992,0.498519852290414,-299.222693563646
738534.47148925880901515484,-3.46194341868343,0.480056154057436,-299.204229865413
738534.47148934926372021437,-3.47117526779992,0.470824304940947,-299.231925412763
738534.47148943960200995207,-3.45271156956694,0.526215399639882,-299.139606921598
738534.47148953005671501160,-3.45271156956694,0.507751701406903,-299.038056581317
738534.47148962051142007113,-3.46194341868343,0.480056154057436,-299.194998016297
738534.47148971096612513065,-3.46194341868343,0.480056154057436,-299.231925412763
738534.47148980142083019018,-3.45271156956694,0.498519852290414,-299.130375072481
738534.47148989187553524971,-3.46194341868343,0.489288003173925,-299.204229865413
738534.47148998221382498741,-3.46194341868343,0.489288003173925,-299.167302468947
738534.47149007266853004694,-3.46194341868343,0.480056154057436,-299.167302468947
738534.47149016312323510647,-3.46194341868343,0.470824304940947,-299.167302468947
738534.47149025357794016600,-3.48040711691641,0.461592455824458,-299.18576616718
738534.47149034403264522552,-3.48040711691641,0.461592455824458,-299.21346171453
738534.47149043448735028505,-3.4896389660329,0.507751701406903,-299.148838770714
738534.47149052482564002275,-3.48040711691641,0.489288003173925,-299.158070619831
738534.47149061528034508228,-3.49887081514939,0.516983550523392,-299.222693563646
738534.47149070573505014181,-3.50810266426588,0.480056154057436,-299.231925412763
738534.47149079618975520134,-3.49887081514939,0.452360606707968,-299.241157261879
738534.47149088664446026087,-3.51733451338237,0.470824304940947,-299.18576616718
738534.47149097709916532040,-3.50810266426588,0.489288003173925,-299.231925412763
738534.47149106743745505810,-3.51733451338237,0.470824304940947,-299.241157261879
738534.47149115789216011763,-3.51733451338237,0.480056154057436,-299.204229865413
738534.47149124834686517715,-3.53579821161534,0.461592455824458,-299.241157261879
738534.47149133880157023668,-3.51733451338237,0.443128757591479,-299.241157261879
738534.47149142925627529621,-3.52656636249886,0.498519852290414,-299.204229865413
738534.47149151971098035574,-3.51733451338237,0.507751701406903,-299.241157261879
738534.47149161004927009344,-3.53579821161534,0.480056154057436,-299.231925412763
738534.47149170050397515297,-3.52656636249886,0.452360606707968,-299.204229865413
738534.47149179095868021250,-3.53579821161534,0.461592455824458,-299.250389110996
738534.47149188141338527203,-3.53579821161534,0.443128757591479,-299.250389110996
738534.47149197186809033155,-3.53579821161534,0.470824304940947,-299.241157261879
738534.47149206232279539108,-3.52656636249886,0.443128757591479,-299.231925412763
738534.47149215266108512878,-3.54503006073183,0.452360606707968,-299.250389110996
738534.47149224311579018831,-3.53579821161534,0.470824304940947,-299.250389110996
738534.47149233357049524784,-3.53579821161534,0.498519852290414,-299.21346171453
738534.47149242402520030737,-3.53579821161534,0.480056154057436,-299.241157261879
738534.47149251447990536690,-3.52656636249886,0.489288003173925,-299.241157261879
738534.47149260493461042643,-3.50810266426588,0.470824304940947,-299.241157261879
738534.47149269527290016413,-3.48040711691641,0.480056154057436,-299.250389110996
738534.47149278572760522366,-3.47117526779992,0.498519852290414,-299.241157261879
738534.47149287618231028318,-3.45271156956694,0.470824304940947,-299.250389110996
738534.47149296663701534271,-3.44347972045045,0.424665059358501,-299.148838770714
738534.47149305709172040224,-3.39732047486801,0.507751701406903,-299.130375072481
738534.47149314754642546177,-3.38808862575152,0.516983550523392,-299.241157261879
738534.47149323788471519947,-3.42501602221747,0.489288003173925,-299.204229865413
738534.47149332833942025900,-3.47117526779992,0.507751701406903,-299.222693563646
738534.47149341879412531853,-3.48040711691641,0.480056154057436,-299.204229865413
738534.47149350924883037806,-3.49887081514939,0.43389690847499,-299.241157261879
738534.47149359970353543758,-3.53579821161534,0.406201361125523,-299.222693563646
738534.47149369015824049711,-3.55426190984832,0.470824304940947,-299.204229865413
738534.47149378049653023481,-3.5727256080813,0.415433210242012,-299.222693563646
738534.47149387095123529434,-3.58195745719779,0.452360606707968,-299.259620960112
738534.47149396140594035387,-3.56349375896481,0.480056154057436,-299.231925412763
738534.47149405186064541340,-3.58195745719779,0.470824304940947,-299.250389110996
738534.47149414231535047293,-3.59118930631428,0.415433210242012,-299.18576616718
738534.47149423277005553246,-3.55426190984832,0.43389690847499,-299.259620960112
738534.47149432310834527016,-3.58195745719779,0.443128757591479,-299.296548356578
738534.47149441356305032969,-3.49887081514939,0.507751701406903,-299.278084658345
738534.47149450401775538921,-3.11113315225684,0.692388683736686,-299.18576616718
738534.47149459447246044874,-2.56645405438398,0.747779778435621,-299.148838770714
738534.47149468492716550827,-2.23410748619037,0.692388683736686,-299.148838770714
738534.47149477538187056780,-2.55722220526749,0.535447248756371,-299.204229865413
738534.47149486572016030550,-3.2311471907712,0.175405133213294,-299.287316507462
738534.47149495617486536503,-3.49887081514939,0.11078218939787,-299.315012054811
738534.47149504662957042456,-3.56349375896481,0.295419171727653,-299.241157261879
738534.47149513708427548409,-3.54503006073183,0.369273964659566,-299.194998016297
738534.47149522753898054361,-3.51733451338237,0.480056154057436,-299.222693563646
738534.47149531799368560314,-3.52656636249886,0.526215399639882,-299.204229865413
738534.47149540833197534084,-3.53579821161534,0.516983550523392,-299.21346171453
738534.47149549878668040037,-3.52656636249886,0.480056154057436,-299.21346171453
738534.47149558924138545990,-3.52656636249886,0.507751701406903,-299.167302468947
738534.47149567969609051943,-3.52656636249886,0.489288003173925,-299.139606921598
738534.47149577015079557896,-3.49887081514939,0.507751701406903,-299.176534318064
738534.47149586060550063848,-3.4896389660329,0.553910946989349,-299.167302468947
738534.47149595094379037619,-3.46194341868343,0.563142796105838,-299.148838770714
738534.47149604139849543571,-3.4896389660329,0.563142796105838,-299.222693563646
738534.47149613185320049524,-3.51733451338237,0.526215399639882,-299.268852809229
738534.47149622230790555477,-3.52656636249886,0.535447248756371,-299.222693563646
738534.47149631276261061430,-3.51733451338237,0.535447248756371,-299.194998016297
738534.47149640321731567383,-3.48040711691641,0.563142796105838,-299.21346171453
738534.47149649355560541153,-3.47117526779992,0.563142796105838,-299.167302468947
738534.47149658401031047106,-3.44347972045045,0.590838343455306,-299.084215826899
738534.47149667446501553059,-3.41578417310099,0.581606494338817,-299.222693563646
738534.47149676491972059011,-3.37885677663503,0.609302041688284,-299.21346171453
738534.47149685537442564964,-3.33269753105258,0.673924985503708,-299.204229865413
738534.47149694582913070917,-3.29577013458663,0.729316080202643,-299.102679525132
738534.47149703616742044687,-3.25884273812067,0.710852381969665,-299.18576616718
738534.47149712662212550640,-3.22191534165471,0.738547929319132,-299.194998016297
738534.47149721707683056593,-3.21268349253822,0.793939024018067,-299.148838770714
738534.47149730753153562546,-3.12959685048982,0.849330118717002,-299.158070619831
738534.47149739798624068499,-3.09266945402387,0.904721213415937,-299.093447676016
738534.47149748844094574451,-3.07420575579089,0.923184911648915,-299.158070619831
738534.47149757877923548222,-3.15729239783929,0.821634571367534,-299.121143223365
738534.47149766923394054174,-3.2311471907712,0.701620532853175,-299.167302468947
738534.47149775968864560127,-3.2311471907712,0.701620532853175,-299.18576616718
738534.47149785014335066080,-3.26807458723716,0.664693136387219,-299.167302468947
738534.47149794059805572033,-3.28653828547014,0.65546128727073,-299.167302468947
738534.47149803105276077986,-3.30500198370312,0.609302041688284,-299.204229865413
738534.47149812139105051756,-3.31423383281961,0.627765739921262,-299.167302468947
738534.47149821184575557709,-3.37885677663503,0.572374645222327,-299.194998016297
738534.47149830230046063662,-3.41578417310099,0.535447248756371,-299.21346171453
738534.47149839275516569614,-3.49887081514939,0.480056154057436,-299.18576616718
738534.47149848320987075567,-3.59118930631428,0.369273964659566,-299.250389110996
738534.47149857366457581520,-3.52656636249886,0.443128757591479,-299.231925412763
738534.47149866400286555290,-3.47117526779992,0.498519852290414,-299.222693563646
738534.47149875445757061243,-3.4896389660329,0.498519852290414,-299.18576616718
738534.47149884491227567196,-3.38808862575152,0.581606494338817,-299.18576616718
738534.47149893536698073149,-3.35116122928556,0.64622943815424,-299.287316507462
738534.47149902582168579102,-3.41578417310099,0.535447248756371,-299.231925412763
738534.47149911627639085054,-3.46194341868343,0.507751701406903,-299.21346171453
738534.47149920661468058825,-3.41578417310099,0.553910946989349,-299.231925412763
738534.47149929706938564777,-3.38808862575152,0.590838343455306,-299.250389110996
738534.47149938752409070730,-3.37885677663503,0.563142796105838,-299.204229865413
738534.47149947797879576683,-3.38808862575152,0.600070192571795,-299.21346171453
738534.47149956843350082636,-3.38808862575152,0.553910946989349,-299.21346171453
738534.47149965888820588589,-3.41578417310099,0.563142796105838,-299.18576616718
738534.47149974922649562359,-3.4065523239845,0.553910946989349,-299.231925412763
738534.47149983968120068312,-3.4065523239845,0.553910946989349,-299.296548356578
738534.47149993013590574265,-3.43424787133396,0.54467909787286,-299.287316507462
738534.47150002059061080217,-3.41578417310099,0.553910946989349,-299.194998016297
738534.47150011104531586170,-3.42501602221747,0.54467909787286,-299.121143223365
738534.47150020150002092123,-3.42501602221747,0.54467909787286,-299.268852809229
738534.47150029183831065893,-3.43424787133396,0.54467909787286,-299.315012054811
738534.47150038229301571846,-3.43424787133396,0.54467909787286,-299.250389110996
738534.47150047274772077799,-3.39732047486801,0.581606494338817,-299.296548356578
738534.47150056320242583752,-3.45271156956694,0.489288003173925,-299.305780205695
738534.47150065365713089705,-3.46194341868343,0.535447248756371,-299.21346171453
738534.47150074411183595657,-3.36962492751854,0.609302041688284,-299.278084658345
738534.47150083445012569427,-3.48040711691641,0.563142796105838,-299.278084658345
738534.47150092490483075380,-3.48040711691641,0.489288003173925,-299.21346171453
738534.47150101535953581333,-3.50810266426588,0.470824304940947,-299.278084658345
738534.47150110581424087286,-3.49887081514939,0.470824304940947,-299.324243903928
738534.47150119626894593239,-3.45271156956694,0.535447248756371,-299.21346171453
738534.47150128672365099192,-3.47117526779992,0.516983550523392,-299.259620960112
738534.47150137706194072962,-3.53579821161534,0.461592455824458,-299.268852809229
738534.47150146751664578915,-3.50810266426588,0.480056154057436,-299.259620960112
738534.47150155797135084867,-3.50810266426588,0.480056154057436,-299.250389110996
738534.47150164842605590820,-3.50810266426588,0.480056154057436,-299.259620960112
738534.47150173888076096773,-3.4896389660329,0.516983550523392,-299.231925412763
738534.47150182933546602726,-3.49887081514939,0.526215399639882,-299.176534318064
738534.47150191967375576496,-3.51733451338237,0.480056154057436,-299.278084658345
738534.47150201012846082449,-3.52656636249886,0.489288003173925,-299.278084658345
738534.47150210058316588402,-3.52656636249886,0.452360606707968,-299.278084658345
738534.47150219103787094355,-3.47117526779992,0.526215399639882,-299.268852809229
738534.47150228149257600307,-3.49887081514939,0.452360606707968,-299.250389110996
738534.47150237194728106260,-3.48040711691641,0.480056154057436,-299.250389110996
738534.47150246228557080030,-3.47117526779992,0.489288003173925,-299.241157261879
738534.47150255274027585983,-3.46194341868343,0.498519852290414,-299.241157261879
738534.47150264319498091936,-3.44347972045045,0.470824304940947,-299.250389110996
738534.47150273364968597889,-3.43424787133396,0.507751701406903,-299.231925412763
738534.47150282410439103842,-3.42501602221747,0.443128757591479,-299.241157261879
738534.47150291455909609795,-3.38808862575152,0.516983550523392,-299.250389110996
738534.47150300489738583565,-3.37885677663503,0.535447248756371,-299.259620960112
738534.47150309535209089518,-3.42501602221747,0.516983550523392,-299.287316507462
738534.47150318580679595470,-3.47117526779992,0.507751701406903,-299.259620960112
738534.47150327626150101423,-3.51733451338237,0.461592455824458,-299.231925412763
738534.47150336671620607376,-3.4896389660329,0.489288003173925,-299.296548356578
738534.47150345717091113329,-3.52656636249886,0.470824304940947,-299.204229865413
738534.47150354750920087099,-3.58195745719779,0.424665059358501,-299.250389110996
738534.47150363796390593052,-3.61888485366375,0.378505813776055,-299.241157261879
738534.47150372841861099005,-3.61888485366375,0.396969512009033,-299.241157261879
738534.47150381887331604958,-3.59118930631428,0.424665059358501,-299.204229865413
738534.47150390932802110910,-3.5727256080813,0.452360606707968,-299.231925412763
738534.47150399966631084681,-3.59118930631428,0.424665059358501,-299.241157261879
738534.47150409012101590633,-3.5727256080813,0.424665059358501,-299.305780205695
738534.47150418057572096586,-3.60042115543077,0.443128757591479,-299.259620960112
738534.47150427103042602539,-3.39732047486801,0.498519852290414,-299.278084658345
738534.47150436148513108492,-2.94495986816004,0.609302041688284,-299.259620960112
738534.47150445193983614445,-2.45567186498611,0.664693136387219,-299.167302468947
738534.47150454227812588215,-2.31719412823878,0.701620532853175,-299.167302468947
738534.47150463273283094168,-2.94495986816004,0.489288003173925,-299.259620960112
738534.47150472318753600121,-3.36039307840205,0.138477736747337,-299.305780205695
738534.47150481364224106073,-3.52656636249886,0.22156437879574,-299.315012054811
738534.47150490409694612026,-3.55426190984832,0.406201361125523,-299.287316507462
738534.47150499455165117979,-3.58195745719779,0.396969512009033,-299.268852809229
738534.47150508488994091749,-3.59118930631428,0.424665059358501,-299.268852809229
738534.47150517534464597702,-3.60042115543077,0.378505813776055,-299.278084658345
738534.47150526579935103655,-3.63734855189673,0.43389690847499,-299.268852809229
738534.47150535625405609608,-3.59118930631428,0.470824304940947,-299.231925412763
738534.47150544670876115561,-3.51733451338237,0.563142796105838,-299.259620960112
738534.47150553716346621513,-3.55426190984832,0.470824304940947,-299.259620960112
738534.47150562750175595284,-3.58195745719779,0.470824304940947,-299.250389110996
738534.47150571795646101236,-3.61888485366375,0.461592455824458,-299.259620960112
738534.47150580841116607189,-3.53579821161534,0.535447248756371,-299.241157261879
738534.47150589886587113142,-3.46194341868343,0.618533890804773,-299.250389110996
738534.47150598932057619095,-3.42501602221747,0.609302041688284,-299.176534318064
738534.47150607977528125048,-3.51733451338237,0.553910946989349,-299.250389110996
738534.47150617011357098818,-3.52656636249886,0.553910946989349,-299.250389110996
738534.47150626056827604771,-3.46194341868343,0.600070192571795,-299.231925412763
738534.47150635102298110723,-3.43424787133396,0.572374645222327,-299.139606921598
738534.47150644147768616676,-3.52656636249886,0.535447248756371,-299.176534318064
738534.47150653193239122629,-3.47117526779992,0.572374645222327,-299.18576616718
738534.47150662238709628582,-3.39732047486801,0.683156834620197,-299.18576616718
738534.47150671272538602352,-3.33269753105258,0.720084231086154,-299.158070619831
738534.47150680318009108305,-3.32346568193609,0.75701162755211,-299.194998016297
738534.47150689363479614258,-3.36039307840205,0.683156834620197,-299.158070619831
738534.47150698408950120211,-3.16652424695578,0.904721213415937,-299.148838770714
738534.47150707454420626163,-3.21268349253822,0.812402722251045,-298.936506241035
738534.47150716499891132116,-3.20345164342174,0.849330118717002,-299.065752128666
738534.47150725533720105886,-3.17575609607227,0.86779381694998,-299.121143223365
738534.47150734579190611839,-3.2311471907712,0.812402722251045,-299.111911374248
738534.47150743624661117792,-3.29577013458663,0.738547929319132,-299.093447676016
738534.47150752670131623745,-3.28653828547014,0.729316080202643,-299.139606921598
738534.47150761715602129698,-3.29577013458663,0.701620532853175,-299.21346171453
738534.47150770761072635651,-3.36039307840205,0.563142796105838,-299.176534318064
738534.47150779794901609421,-3.36962492751854,0.673924985503708,-299.241157261879
738534.47150788840372115374,-3.45271156956694,0.590838343455306,-299.268852809229
738534.47150797885842621326,-3.49887081514939,0.526215399639882,-299.296548356578
738534.47150806931313127279,-3.4896389660329,0.516983550523392,-299.204229865413
738534.47150815976783633232,-3.60965300454726,0.43389690847499,-299.278084658345
738534.47150825022254139185,-3.66504409924619,0.360042115543077,-299.315012054811
738534.47150834056083112955,-3.64658040101321,0.387737662892544,-299.250389110996
738534.47150843101553618908,-3.64658040101321,0.378505813776055,-299.278084658345
738534.47150852147024124861,-3.63734855189673,0.396969512009033,-299.351939451277
738534.47150861192494630814,-3.61888485366375,0.369273964659566,-299.315012054811
738534.47150870237965136766,-3.60965300454726,0.387737662892544,-299.259620960112
738534.47150879283435642719,-3.66504409924619,0.360042115543077,-299.305780205695
738534.47150888317264616489,-3.63734855189673,0.341578417310099,-299.324243903928
738534.47150897362735122442,-3.60965300454726,0.43389690847499,-299.241157261879
738534.47150906408205628395,-3.60965300454726,0.415433210242012,-299.296548356578
738534.47150915453676134348,-3.59118930631428,0.415433210242012,-299.296548356578
738534.47150924499146640301,-3.54503006073183,0.443128757591479,-299.324243903928
738534.47150933544617146254,-3.60965300454726,0.406201361125523,-299.231925412763
738534.47150942578446120024,-3.63734855189673,0.350810266426588,-299.296548356578
738534.47150951623916625977,-3.60965300454726,0.32311471907712,-299.333475753044
738534.47150960669387131929,-3.60965300454726,0.360042115543077,-299.342707602161
738534.47150969714857637882,-3.58195745719779,0.443128757591479,-299.333475753044
738534.47150978760328143835,-3.60042115543077,0.406201361125523,-299.287316507462
738534.47150987805798649788,-3.5727256080813,0.406201361125523,-299.278084658345
738534.47150996839627623558,-3.5727256080813,0.387737662892544,-299.287316507462
738534.47151005885098129511,-3.63734855189673,0.350810266426588,-299.259620960112
738534.47151014930568635464,-3.60042115543077,0.387737662892544,-299.287316507462
738534.47151023976039141417,-3.59118930631428,0.415433210242012,-299.268852809229
738534.47151033021509647369,-3.54503006073183,0.406201361125523,-299.21346171453
738534.47151042066980153322,-3.60042115543077,0.341578417310099,-299.241157261879
738534.47151051100809127092,-3.63734855189673,0.350810266426588,-299.231925412763
738534.47151060146279633045,-3.60042115543077,0.387737662892544,-299.05652027955
738534.47151069191750138998,-3.60042115543077,0.406201361125523,-299.18576616718
738534.47151078237220644951,-3.61888485366375,0.378505813776055,-299.222693563646
738534.47151087282691150904,-3.60965300454726,0.43389690847499,-299.231925412763
738534.47151096328161656857,-3.60965300454726,0.378505813776055,-299.259620960112
738534.47151105361990630627,-3.63734855189673,0.387737662892544,-299.278084658345
738534.47151114407461136580,-3.62811670278024,0.369273964659566,-299.222693563646
738534.47151123452931642532,-3.61888485366375,0.387737662892544,-299.287316507462
738534.47151132498402148485,-3.61888485366375,0.378505813776055,-299.268852809229
738534.47151141543872654438,-3.61888485366375,0.350810266426588,-299.259620960112
738534.47151150589343160391,-3.61888485366375,0.396969512009033,-299.250389110996
738534.47151159623172134161,-3.62811670278024,0.387737662892544,-299.268852809229
738534.47151168668642640114,-3.62811670278024,0.360042115543077,-299.333475753044
738534.47151177714113146067,-3.62811670278024,0.341578417310099,-299.250389110996
738534.47151186759583652020,-3.58195745719779,0.387737662892544,-299.268852809229
738534.47151195805054157972,-3.55426190984832,0.43389690847499,-299.241157261879
738534.47151204850524663925,-3.56349375896481,0.406201361125523,-299.278084658345
738534.47151213884353637695,-3.55426190984832,0.387737662892544,-299.305780205695
738534.47151222929824143648,-3.52656636249886,0.415433210242012,-299.287316507462
738534.47151231975294649601,-3.47117526779992,0.415433210242012,-299.296548356578
738534.47151241020765155554,-3.49887081514939,0.415433210242012,-299.278084658345
738534.47151250066235661507,-3.52656636249886,0.396969512009033,-299.315012054811
738534.47151259111706167459,-3.5727256080813,0.360042115543077,-299.324243903928
738534.47151268145535141230,-3.56349375896481,0.378505813776055,-299.287316507462
738534.47151277191005647182,-3.58195745719779,0.443128757591479,-299.333475753044
738534.47151286236476153135,-3.63734855189673,0.369273964659566,-299.324243903928
738534.47151295281946659088,-3.6558122501297,0.378505813776055,-299.287316507462
738534.47151304327417165041,-3.66504409924619,0.369273964659566,-299.259620960112
738534.47151313372887670994,-3.66504409924619,0.369273964659566,-299.315012054811
738534.47151322406716644764,-3.68350779747917,0.369273964659566,-299.324243903928
738534.47151331452187150717,-3.66504409924619,0.369273964659566,-299.250389110996
738534.47151340497657656670,-3.68350779747917,0.378505813776055,-299.296548356578
738534.47151349543128162622,-3.68350779747917,0.341578417310099,-299.351939451277
738534.47151358588598668575,-3.66504409924619,0.369273964659566,-299.305780205695
738534.47151367634069174528,-3.5727256080813,0.396969512009033,-299.296548356578
738534.47151376667898148298,-3.27730643635365,0.489288003173925,-299.296548356578
738534.47151385713368654251,-2.81571398052919,0.683156834620197,-299.222693563646
738534.47151394758839160204,-2.4649037141026,0.747779778435621,-299.148838770714
738534.47151403804309666157,-2.68646809289834,0.673924985503708,-299.194998016297
738534.47151412849780172110,-3.37885677663503,0.203100680562761,-299.204229865413
738534.47151421895250678062,-3.58195745719779,0.0553910946989349,-299.222693563646
738534.47151430929079651833,-3.6558122501297,0.230796227912229,-299.361171300394
738534.47151439974550157785,-3.6558122501297,0.332346568193609,-299.342707602161
738534.47151449020020663738,-3.6558122501297,0.341578417310099,-299.278084658345
738534.47151458065491169691,-3.64658040101321,0.378505813776055,-299.305780205695
738534.47151467110961675644,-3.64658040101321,0.369273964659566,-299.231925412763
738534.47151476156432181597,-3.66504409924619,0.341578417310099,-299.231925412763
738534.47151485190261155367,-3.6558122501297,0.387737662892544,-299.278084658345
738534.47151494235731661320,-3.64658040101321,0.452360606707968,-299.241157261879
738534.47151503281202167273,-3.62811670278024,0.470824304940947,-299.241157261879
738534.47151512326672673225,-3.64658040101321,0.470824304940947,-299.250389110996
738534.47151521372143179178,-3.62811670278024,0.452360606707968,-299.250389110996
738534.47151530417613685131,-3.62811670278024,0.461592455824458,-299.268852809229
738534.47151539451442658901,-3.60965300454726,0.461592455824458,-299.259620960112
738534.47151548496913164854,-3.60965300454726,0.480056154057436,-299.250389110996
738534.47151557542383670807,-3.59118930631428,0.480056154057436,-299.278084658345
738534.47151566587854176760,-3.58195745719779,0.498519852290414,-299.287316507462
738534.47151575633324682713,-3.56349375896481,0.498519852290414,-299.305780205695
738534.47151584678795188665,-3.52656636249886,0.553910946989349,-299.231925412763
738534.47151593712624162436,-3.51733451338237,0.535447248756371,-299.18576616718
738534.47151602758094668388,-3.48040711691641,0.590838343455306,-299.204229865413
738534.47151611803565174341,-3.44347972045045,0.618533890804773,-299.204229865413
738534.47151620849035680294,-3.39732047486801,0.64622943815424,-299.148838770714
738534.47151629894506186247,-3.36962492751854,0.673924985503708,-299.231925412763
738534.47151638939976692200,-3.33269753105258,0.701620532853175,-299.250389110996
738534.47151647973805665970,-3.31423383281961,0.766243476668599,-299.204229865413
738534.47151657019276171923,-3.26807458723716,0.775475325785089,-299.204229865413
738534.47151666064746677876,-3.24961088900418,0.803170873134556,-299.204229865413
738534.47151675110217183828,-3.22191534165471,0.793939024018067,-299.231925412763
738534.47151684155687689781,-3.2311471907712,0.793939024018067,-299.231925412763
738534.47151693201158195734,-3.2311471907712,0.75701162755211,-299.241157261879
738534.47151702234987169504,-3.27730643635365,0.729316080202643,-299.287316507462
738534.47151711280457675457,-3.32346568193609,0.65546128727073,-299.241157261879
738534.47151720325928181410,-3.37885677663503,0.609302041688284,-299.287316507462
738534.47151729371398687363,-3.43424787133396,0.553910946989349,-299.287316507462
738534.47151738416869193316,-3.4896389660329,0.507751701406903,-299.268852809229
738534.47151747462339699268,-3.52656636249886,0.470824304940947,-299.315012054811
738534.47151756496168673038,-3.56349375896481,0.43389690847499,-299.324243903928
738534.47151765541639178991,-3.60042115543077,0.43389690847499,-299.176534318064
738534.47151774587109684944,-3.60042115543077,0.415433210242012,-299.231925412763
738534.47151783632580190897,-3.63734855189673,0.396969512009033,-299.296548356578
738534.47151792678050696850,-3.60965300454726,0.406201361125523,-299.287316507462
738534.47151801723521202803,-3.61888485366375,0.415433210242012,-299.305780205695
738534.47151810757350176573,-3.61888485366375,0.396969512009033,-299.342707602161
738534.47151819802820682526,-3.62811670278024,0.415433210242012,-299.278084658345
738534.47151828848291188478,-3.61888485366375,0.396969512009033,-299.315012054811
738534.47151837893761694431,-3.62811670278024,0.406201361125523,-299.333475753044
738534.47151846939232200384,-3.60965300454726,0.396969512009033,-299.351939451277
738534.47151855984702706337,-3.60042115543077,0.424665059358501,-299.287316507462
738534.47151865018531680107,-3.59118930631428,0.424665059358501,-299.305780205695
738534.47151874064002186060,-3.60042115543077,0.415433210242012,-299.361171300394
738534.47151883109472692013,-3.58195745719779,0.424665059358501,-299.333475753044
738534.47151892154943197966,-3.58195745719779,0.415433210242012,-299.296548356578
738534.47151901200413703918,-3.58195745719779,0.43389690847499,-299.204229865413
738534.47151910245884209871,-3.59118930631428,0.415433210242012,-299.231925412763
738534.47151919279713183641,-3.59118930631428,0.415433210242012,-299.268852809229
738534.47151928325183689594,-3.59118930631428,0.415433210242012,-299.241157261879
738534.47151937370654195547,-3.60042115543077,0.424665059358501,-299.259620960112
738534.47151946416124701500,-3.60965300454726,0.369273964659566,-299.259620960112
738534.47151955461595207453,-3.60965300454726,0.424665059358501,-299.250389110996
738534.47151964507065713406,-3.60965300454726,0.406201361125523,-299.250389110996
738534.47151973540894687176,-3.61888485366375,0.424665059358501,-299.287316507462
738534.47151982586365193129,-3.62811670278024,0.387737662892544,-299.231925412763
738534.47151991631835699081,-3.63734855189673,0.406201361125523,-299.231925412763
738534.47152000677306205034,-3.62811670278024,0.396969512009033,-299.241157261879
738534.47152009722776710987,-3.63734855189673,0.387737662892544,-299.259620960112
738534.47152018768247216940,-3.62811670278024,0.378505813776055,-299.287316507462
738534.47152027802076190710,-3.63734855189673,0.396969512009033,-299.278084658345
738534.47152036847546696663,-3.62811670278024,0.396969512009033,-299.287316507462
738534.47152045893017202616,-3.6558122501297,0.396969512009033,-299.305780205695
738534.47152054938487708569,-3.66504409924619,0.396969512009033,-299.305780205695
738534.47152063983958214521,-3.63734855189673,0.387737662892544,-299.241157261879
738534.47152073029428720474,-3.64658040101321,0.396969512009033,-299.278084658345
738534.47152082063257694244,-3.63734855189673,0.387737662892544,-299.315012054811
738534.47152091108728200197,-3.6558122501297,0.378505813776055,-299.268852809229
738534.47152100154198706150,-3.64658040101321,0.378505813776055,-299.231925412763
738534.47152109199669212103,-3.6558122501297,0.396969512009033,-299.241157261879
738534.47152118245139718056,-3.64658040101321,0.378505813776055,-299.158070619831
738534.47152127290610224009,-3.63734855189673,0.396969512009033,-299.158070619831
738534.47152136324439197779,-3.60965300454726,0.369273964659566,-299.268852809229
738534.47152145369909703732,-3.58195745719779,0.415433210242012,-299.305780205695
738534.47152154415380209684,-3.5727256080813,0.396969512009033,-299.287316507462
738534.47152163460850715637,-3.5727256080813,0.406201361125523,-299.342707602161
738534.47152172506321221590,-3.53579821161534,0.396969512009033,-299.342707602161
738534.47152181551791727543,-3.50810266426588,0.415433210242012,-299.287316507462
738534.47152190585620701313,-3.4896389660329,0.415433210242012,-299.315012054811
738534.47152199631091207266,-3.55426190984832,0.406201361125523,-299.324243903928
738534.47152208676561713219,-3.59118930631428,0.415433210242012,-299.278084658345
738534.47152217722032219172,-3.59118930631428,0.424665059358501,-299.315012054811
738534.47152226767502725124,-3.61888485366375,0.378505813776055,-299.342707602161
738534.47152235812973231077,-3.67427594836268,0.360042115543077,-299.342707602161
738534.47152244846802204847,-3.67427594836268,0.378505813776055,-299.268852809229
738534.47152253892272710800,-3.67427594836268,0.369273964659566,-299.324243903928
738534.47152262937743216753,-3.69273964659566,0.360042115543077,-299.333475753044
738534.47152271983213722706,-3.68350779747917,0.360042115543077,-299.333475753044
738534.47152281028684228659,-3.69273964659566,0.369273964659566,-299.287316507462
738534.47152290074154734612,-3.70197149571215,0.369273964659566,-299.315012054811
738534.47152299107983708382,-3.69273964659566,0.369273964659566,-299.231925412763
738534.47152308153454214334,-3.67427594836268,0.369273964659566,-299.241157261879
738534.47152317198924720287,-3.59118930631428,0.461592455824458,-299.222693563646
738534.47152326244395226240,-3.19421979430525,0.572374645222327,-299.194998016297
738534.47152335289865732193,-2.69569994201483,0.65546128727073,-299.158070619831
738534.47152344335336238146,-2.40028077028718,0.64622943815424,-299.139606921598
738534.47152353369165211916,-2.75109103671377,0.563142796105838,-299.158070619831
738534.47152362414635717869,-3.39732047486801,0.11078218939787,-299.268852809229
738534.47152371460106223822,-3.60042115543077,0.0830866420484024,-299.305780205695
738534.47152380505576729774,-3.68350779747917,0.240028077028718,-299.278084658345
738534.47152389551047235727,-3.66504409924619,0.332346568193609,-299.305780205695
738534.47152398596517741680,-3.66504409924619,0.369273964659566,-299.278084658345
738534.47152407630346715450,-3.64658040101321,0.369273964659566,-299.278084658345
738534.47152416675817221403,-3.67427594836268,0.387737662892544,-299.296548356578
738534.47152425721287727356,-3.6558122501297,0.387737662892544,-299.305780205695
738534.47152434766758233309,-3.6558122501297,0.415433210242012,-299.315012054811
738534.47152443812228739262,-3.64658040101321,0.43389690847499,-299.305780205695
738534.47152452857699245214,-3.64658040101321,0.424665059358501,-299.268852809229
738534.47152461891528218985,-3.6558122501297,0.43389690847499,-299.231925412763
738534.47152470936998724937,-3.62811670278024,0.43389690847499,-299.176534318064
738534.47152479982469230890,-3.62811670278024,0.452360606707968,-299.158070619831
738534.47152489027939736843,-3.61888485366375,0.443128757591479,-299.259620960112
738534.47152498073410242796,-3.61888485366375,0.470824304940947,-299.278084658345
738534.47152507118880748749,-3.60042115543077,0.470824304940947,-299.250389110996
738534.47152516152709722519,-3.60042115543077,0.480056154057436,-299.250389110996
738534.47152525198180228472,-3.56349375896481,0.498519852290414,-299.268852809229
738534.47152534243650734425,-3.50810266426588,0.535447248756371,-299.287316507462
738534.47152543289121240377,-3.49887081514939,0.535447248756371,-299.287316507462
738534.47152552334591746330,-3.46194341868343,0.581606494338817,-299.222693563646
738534.47152561380062252283,-3.43424787133396,0.590838343455306,-299.268852809229
738534.47152570413891226053,-3.4065523239845,0.636997589037751,-299.259620960112
738534.47152579459361732006,-3.36039307840205,0.673924985503708,-299.176534318064
738534.47152588504832237959,-3.32346568193609,0.710852381969665,-299.231925412763
738534.47152597550302743912,-3.29577013458663,0.729316080202643,-299.231925412763
738534.47152606595773249865,-3.25884273812067,0.766243476668599,-299.231925412763
738534.47152615641243755817,-3.25884273812067,0.766243476668599,-299.121143223365
738534.47152624675072729588,-3.22191534165471,0.766243476668599,-299.148838770714
738534.47152633720543235540,-3.2311471907712,0.766243476668599,-299.158070619831
738534.47152642766013741493,-3.24037903988769,0.738547929319132,-299.167302468947
738534.47152651811484247446,-3.27730643635365,0.710852381969665,-299.176534318064
738534.47152660856954753399,-3.33269753105258,0.636997589037751,-299.250389110996
738534.47152669902425259352,-3.38808862575152,0.600070192571795,-299.268852809229
738534.47152678936254233122,-3.44347972045045,0.516983550523392,-299.250389110996
738534.47152687981724739075,-3.49887081514939,0.498519852290414,-299.296548356578
738534.47152697027195245028,-3.52656636249886,0.452360606707968,-299.315012054811
738534.47152706072665750980,-3.55426190984832,0.43389690847499,-299.278084658345
738534.47152715118136256933,-3.58195745719779,0.406201361125523,-299.315012054811
738534.47152724163606762886,-3.60965300454726,0.415433210242012,-299.21346171453
738534.47152733197435736656,-3.60042115543077,0.396969512009033,-299.241157261879
738534.47152742242906242609,-3.60042115543077,0.406201361125523,-299.278084658345
738534.47152751288376748562,-3.60965300454726,0.387737662892544,-299.250389110996
738534.47152760333847254515,-3.60965300454726,0.378505813776055,-299.259620960112
738534.47152769379317760468,-3.60965300454726,0.369273964659566,-299.250389110996
738534.47152778424788266420,-3.60965300454726,0.415433210242012,-299.259620960112
738534.47152787458617240191,-3.60965300454726,0.406201361125523,-299.259620960112
738534.47152796504087746143,-3.59118930631428,0.406201361125523,-299.250389110996
738534.47152805549558252096,-3.58195745719779,0.415433210242012,-299.259620960112
738534.47152814595028758049,-3.59118930631428,0.396969512009033,-299.268852809229
738534.47152823640499264002,-3.59118930631428,0.396969512009033,-299.204229865413
738534.47152832685969769955,-3.59118930631428,0.378505813776055,-299.158070619831
738534.47152841719798743725,-3.59118930631428,0.387737662892544,-299.278084658345
738534.47152850765269249678,-3.5727256080813,0.396969512009033,-299.259620960112
738534.47152859810739755630,-3.59118930631428,0.406201361125523,-299.324243903928
738534.47152868856210261583,-3.5727256080813,0.396969512009033,-299.315012054811
738534.47152877901680767536,-3.5727256080813,0.396969512009033,-299.333475753044
738534.47152886947151273489,-3.58195745719779,0.396969512009033,-299.222693563646
738534.47152895980980247259,-3.59118930631428,0.396969512009033,-299.241157261879
738534.47152905026450753212,-3.59118930631428,0.378505813776055,-299.259620960112
738534.47152914071921259165,-3.60965300454726,0.396969512009033,-299.278084658345
738534.47152923117391765118,-3.60042115543077,0.378505813776055,-299.305780205695
738534.47152932162862271070,-3.60042115543077,0.387737662892544,-299.305780205695
738534.47152941208332777023,-3.60965300454726,0.387737662892544,-299.268852809229
738534.47152950242161750793,-3.61888485366375,0.378505813776055,-299.315012054811
738534.47152959287632256746,-3.61888485366375,0.396969512009033,-299.305780205695
738534.47152968333102762699,-3.60965300454726,0.387737662892544,-299.287316507462
738534.47152977378573268652,-3.62811670278024,0.387737662892544,-299.287316507462
738534.47152986424043774605,-3.62811670278024,0.369273964659566,-299.324243903928
738534.47152995469514280558,-3.60965300454726,0.378505813776055,-299.315012054811
738534.47153004503343254328,-3.62811670278024,0.387737662892544,-299.296548356578
738534.47153013548813760281,-3.61888485366375,0.369273964659566,-299.305780205695
738534.47153022594284266233,-3.63734855189673,0.369273964659566,-299.324243903928
738534.47153031639754772186,-3.61888485366375,0.369273964659566,-299.268852809229
738534.47153040685225278139,-3.62811670278024,0.369273964659566,-299.342707602161
738534.47153049730695784092,-3.61888485366375,0.378505813776055,-299.315012054811
738534.47153058764524757862,-3.63734855189673,0.369273964659566,-299.287316507462
738534.47153067809995263815,-3.61888485366375,0.369273964659566,-299.333475753044
738534.47153076855465769768,-3.63734855189673,0.360042115543077,-299.324243903928
738534.47153085900936275721,-3.63734855189673,0.378505813776055,-299.296548356578
738534.47153094946406781673,-3.63734855189673,0.406201361125523,-299.324243903928
738534.47153103991877287626,-3.61888485366375,0.378505813776055,-299.231925412763
738534.47153113025706261396,-3.63734855189673,0.369273964659566,-299.250389110996
738534.47153122071176767349,-3.63734855189673,0.378505813776055,-299.287316507462
738534.47153131116647273302,-3.61888485366375,0.360042115543077,-299.259620960112
738534.47153140162117779255,-3.58195745719779,0.396969512009033,-299.259620960112
738534.47153149207588285208,-3.56349375896481,0.387737662892544,-299.259620960112
738534.47153158253058791161,-3.55426190984832,0.396969512009033,-299.287316507462
738534.47153167286887764931,-3.54503006073183,0.396969512009033,-299.342707602161
738534.47153176332358270884,-3.52656636249886,0.406201361125523,-299.268852809229
738534.47153185377828776836,-3.4896389660329,0.43389690847499,-299.167302468947
738534.47153194423299282789,-3.4896389660329,0.424665059358501,-299.315012054811
738534.47153203468769788742,-3.49887081514939,0.378505813776055,-299.259620960112
738534.47153212514240294695,-3.56349375896481,0.406201361125523,-299.21346171453
738534.47153221548069268465,-3.56349375896481,0.424665059358501,-299.222693563646
738534.47153230593539774418,-3.58195745719779,0.396969512009033,-299.268852809229
738534.47153239639010280371,-3.60965300454726,0.360042115543077,-299.296548356578
738534.47153248684480786324,-3.64658040101321,0.360042115543077,-299.250389110996
738534.47153257729951292276,-3.66504409924619,0.350810266426588,-299.305780205695
738534.47153266775421798229,-3.66504409924619,0.387737662892544,-299.268852809229
738534.47153275809250771999,-3.6558122501297,0.369273964659566,-299.278084658345
738534.47153284854721277952,-3.67427594836268,0.350810266426588,-299.268852809229
738534.47153293900191783905,-3.64658040101321,0.369273964659566,-299.268852809229
738534.47153302945662289858,-3.6558122501297,0.387737662892544,-299.259620960112
738534.47153311991132795811,-3.63734855189673,0.378505813776055,-299.259620960112
738534.47153321036603301764,-3.50810266426588,0.461592455824458,-299.250389110996
738534.47153330070432275534,-3.07420575579089,0.600070192571795,-299.158070619831
738534.47153339115902781487,-2.60338145084994,0.627765739921262,-299.102679525132
738534.47153348161373287439,-2.40028077028718,0.673924985503708,-299.130375072481
738534.47153357206843793392,-2.93572801904355,0.563142796105838,-299.093447676016
738534.47153366252314299345,-3.25884273812067,0.304651020844142,-299.222693563646
738534.47153375297784805298,-3.51733451338237,0.0738547929319132,-299.259620960112
738534.47153384331613779068,-3.63734855189673,0.258491775261696,-299.296548356578
738534.47153393377084285021,-3.63734855189673,0.32311471907712,-299.305780205695
738534.47153402422554790974,-3.63734855189673,0.378505813776055,-299.278084658345
738534.47153411468025296926,-3.62811670278024,0.415433210242012,-299.287316507462
738534.47153420513495802879,-3.62811670278024,0.443128757591479,-299.296548356578
738534.47153429558966308832,-3.63734855189673,0.43389690847499,-299.296548356578
738534.47153438592795282602,-3.64658040101321,0.43389690847499,-299.259620960112
738534.47153447638265788555,-3.62811670278024,0.43389690847499,-299.296548356578
738534.47153456683736294508,-3.61888485366375,0.461592455824458,-299.287316507462
738534.47153465729206800461,-3.61888485366375,0.443128757591479,-299.21346171453
738534.47153474774677306414,-3.60965300454726,0.461592455824458,-299.296548356578
738534.47153483808506280184,-3.60042115543077,0.452360606707968,-299.305780205695
738534.47153492853976786137,-3.59118930631428,0.480056154057436,-299.241157261879
738534.47153501899447292089,-3.59118930631428,0.470824304940947,-299.305780205695
738534.47153510944917798042,-3.5727256080813,0.489288003173925,-299.305780205695
738534.47153519990388303995,-3.56349375896481,0.507751701406903,-299.241157261879
738534.47153529035858809948,-3.53579821161534,0.516983550523392,-299.074983977782
738534.47153538069687783718,-3.51733451338237,0.54467909787286,-299.222693563646
738534.47153547115158289671,-3.4896389660329,0.54467909787286,-299.250389110996
738534.47153556160628795624,-3.47117526779992,0.590838343455306,-299.222693563646
738534.47153565206099301577,-3.43424787133396,0.572374645222327,-299.250389110996
738534.47153574251569807529,-3.4065523239845,0.600070192571795,-299.222693563646
738534.47153583297040313482,-3.33269753105258,0.710852381969665,-299.18576616718
738534.47153592330869287252,-3.31423383281961,0.766243476668599,-299.176534318064
738534.47153601376339793205,-3.27730643635365,0.729316080202643,-299.167302468947
738534.47153610421810299158,-3.24037903988769,0.766243476668599,-299.231925412763
738534.47153619467280805111,-3.21268349253822,0.821634571367534,-299.194998016297
738534.47153628512751311064,-3.20345164342174,0.830866420484023,-299.21346171453
738534.47153637558221817017,-3.19421979430525,0.784707174901578,-299.176534318064
738534.47153646592050790787,-3.21268349253822,0.766243476668599,-299.176534318064
738534.47153655637521296740,-3.25884273812067,0.738547929319132,-299.194998016297
738534.47153664682991802692,-3.29577013458663,0.64622943815424,-299.278084658345
738534.47153673728462308645,-3.36039307840205,0.609302041688284,-299.241157261879
738534.47153682773932814598,-3.39732047486801,0.553910946989349,-299.250389110996
738534.47153691819403320551,-3.47117526779992,0.507751701406903,-299.204229865413
738534.47153700853232294321,-3.49887081514939,0.489288003173925,-299.231925412763
738534.47153709898702800274,-3.54503006073183,0.43389690847499,-299.268852809229
738534.47153718944173306227,-3.53579821161534,0.424665059358501,-299.278084658345
738534.47153727989643812180,-3.56349375896481,0.443128757591479,-299.287316507462
738534.47153737035114318132,-3.5727256080813,0.424665059358501,-299.305780205695
738534.47153746080584824085,-3.5727256080813,0.424665059358501,-299.305780205695
738534.47153755114413797855,-3.56349375896481,0.43389690847499,-299.204229865413
738534.47153764159884303808,-3.5727256080813,0.415433210242012,-299.21346171453
738534.47153773205354809761,-3.5727256080813,0.406201361125523,-299.231925412763
738534.47153782250825315714,-3.59118930631428,0.415433210242012,-299.278084658345
738534.47153791296295821667,-3.58195745719779,0.406201361125523,-299.231925412763
738534.47153800341766327620,-3.55426190984832,0.424665059358501,-299.268852809229
738534.47153809375595301390,-3.58195745719779,0.415433210242012,-299.287316507462
738534.47153818421065807343,-3.55426190984832,0.424665059358501,-299.296548356578
738534.47153827466536313295,-3.55426190984832,0.43389690847499,-299.278084658345
738534.47153836512006819248,-3.55426190984832,0.415433210242012,-299.315012054811
738534.47153845557477325201,-3.47117526779992,0.507751701406903,-299.287316507462
738534.47153854602947831154,-3.33269753105258,0.627765739921262,-299.268852809229
738534.47153863636776804924,-3.35116122928556,0.664693136387219,-299.287316507462
738534.47153872682247310877,-3.73889889217811,0.240028077028718,-299.342707602161
738534.47153881727717816830,-3.56349375896481,0.406201361125523,-299.047288430433
738534.47153890773188322783,-3.69273964659566,0.258491775261696,-299.158070619831
738534.47153899818658828735,-3.62811670278024,0.369273964659566,-299.222693563646
738534.47153908864129334688,-3.60965300454726,0.369273964659566,-299.204229865413
738534.47153917897958308458,-3.46194341868343,0.526215399639882,-299.222693563646
738534.47153926943428814411,-3.49887081514939,0.489288003173925,-299.278084658345
738534.47153935988899320364,-3.5727256080813,0.424665059358501,-299.315012054811
738534.47153945034369826317,-3.47117526779992,0.553910946989349,-299.268852809229
738534.47153954079840332270,-3.45271156956694,0.553910946989349,-299.296548356578
738534.47153963125310838223,-3.62811670278024,0.378505813776055,-299.296548356578
738534.47153972159139811993,-3.64658040101321,0.332346568193609,-299.278084658345
738534.47153981204610317945,-3.70197149571215,0.313882869960631,-299.324243903928
738534.47153990250080823898,-3.69273964659566,0.286187322611164,-299.351939451277
738534.47153999295551329851,-3.60042115543077,0.406201361125523,-299.305780205695
738534.47154008341021835804,-3.53579821161534,0.43389690847499,-299.287316507462
738534.47154017386492341757,-3.60965300454726,0.415433210242012,-299.305780205695
738534.47154026420321315527,-3.60042115543077,0.396969512009033,-299.315012054811
738534.47154035465791821480,-3.34192938016907,0.664693136387219,-299.194998016297
738534.47154044511262327433,-3.67427594836268,0.313882869960631,-299.241157261879
738534.47154053556732833385,-3.69273964659566,0.304651020844142,-299.259620960112
738534.47154062602203339338,-3.69273964659566,0.313882869960631,-299.176534318064
738534.47154071647673845291,-3.60965300454726,0.396969512009033,-299.278084658345
738534.47154080681502819061,-3.58195745719779,0.415433210242012,-299.324243903928
738534.47154089726973325014,-3.72966704306162,0.267723624378185,-299.296548356578
738534.47154098772443830967,-3.51733451338237,0.461592455824458,-299.278084658345
738534.47154107817914336920,-3.51733451338237,0.470824304940947,-299.296548356578
738534.47154116863384842873,-3.60965300454726,0.43389690847499,-299.333475753044
738534.47154125908855348825,-3.70197149571215,0.295419171727653,-299.231925412763
738534.47154134942684322596,-3.48040711691641,0.516983550523392,-299.268852809229
738534.47154143988154828548,-3.6558122501297,0.32311471907712,-299.333475753044
738534.47154153033625334501,-3.64658040101321,0.32311471907712,-299.287316507462
738534.47154162079095840454,-3.48040711691641,0.443128757591479,-299.278084658345
738534.47154171124566346407,-3.5727256080813,0.378505813776055,-299.278084658345
738534.47154180170036852360,-3.48040711691641,0.415433210242012,-299.287316507462
738534.47154189203865826130,-3.41578417310099,0.470824304940947,-299.259620960112
738534.47154198249336332083,-3.48040711691641,0.43389690847499,-299.315012054811
738534.47154207294806838036,-3.62811670278024,0.350810266426588,-299.315012054811
738534.47154216340277343988,-3.49887081514939,0.498519852290414,-299.21346171453
738534.47154225385747849941,-3.63734855189673,0.350810266426588,-299.278084658345
738534.47154234431218355894,-3.71120334482864,0.286187322611164,-299.158070619831
738534.47154243465047329664,-3.60965300454726,0.406201361125523,-299.158070619831
738534.47154252510517835617,-3.61888485366375,0.415433210242012,-299.278084658345
738534.47154261555988341570,-3.73889889217811,0.304651020844142,-299.324243903928
738534.47154270601458847523,-3.6558122501297,0.387737662892544,-299.204229865413
738534.47154279646929353476,-3.45271156956694,0.563142796105838,-299.204229865413
738534.47154288692399859428,-3.76659443952757,0.286187322611164,-299.21346171453
738534.47154297726228833199,-3.831217383343,0.193868831446272,-299.21346171453
738534.47154306771699339151,-3.69273964659566,0.332346568193609,-299.194998016297
738534.47154315817169845104,-3.72043519394513,0.360042115543077,-299.231925412763
738534.47154324862640351057,-3.4065523239845,0.507751701406903,-299.222693563646
738534.47154333908110857010,-2.95419171727653,0.636997589037751,-299.176534318064
738534.47154342953581362963,-2.49259926145207,0.664693136387219,-299.139606921598
738534.47154351987410336733,-2.42797631763665,0.692388683736686,-299.148838770714
738534.47154361032880842686,-3.22191534165471,0.304651020844142,-299.231925412763
738534.47154370078351348639,-3.56349375896481,-0.00923184911648915,-299.296548356578
738534.47154379123821854591,-3.59118930631428,0.240028077028718,-299.305780205695
738534.47154388169292360544,-3.52656636249886,0.43389690847499,-299.268852809229
738534.47154397214762866497,-3.74813074129459,0.249259926145207,-299.241157261879
738534.47154406248591840267,-3.67427594836268,0.369273964659566,-299.278084658345
738534.47154415294062346220,-3.72966704306162,0.304651020844142,-299.268852809229
738534.47154424339532852173,-3.70197149571215,0.350810266426588,-299.259620960112
738534.47154433385003358126,-3.71120334482864,0.332346568193609,-299.268852809229
738534.47154442430473864079,-3.68350779747917,0.378505813776055,-299.268852809229
738534.47154451475944370031,-3.59118930631428,0.452360606707968,-299.139606921598
738534.47154460509773343801,-3.6558122501297,0.424665059358501,-299.222693563646
738534.47154469555243849754,-3.59118930631428,0.452360606707968,-299.259620960112
738534.47154478600714355707,-3.61888485366375,0.452360606707968,-299.21346171453
738534.47154487646184861660,-3.5727256080813,0.480056154057436,-299.194998016297
738534.47154496691655367613,-3.58195745719779,0.461592455824458,-299.231925412763
738534.47154505737125873566,-3.73889889217811,0.341578417310099,-299.231925412763
738534.47154514770954847336,-3.61888485366375,0.452360606707968,-299.222693563646
738534.47154523816425353289,-3.5727256080813,0.489288003173925,-299.222693563646
738534.47154532861895859241,-3.50810266426588,0.535447248756371,-299.204229865413
738534.47154541907366365194,-3.60965300454726,0.470824304940947,-299.222693563646
738534.47154550952836871147,-3.54503006073183,0.507751701406903,-299.194998016297
738534.47154559998307377100,-3.43424787133396,0.618533890804773,-299.18576616718
738534.47154569032136350870,-3.39732047486801,0.636997589037751,-299.204229865413
738534.47154578077606856823,-3.4896389660329,0.581606494338817,-299.204229865413
738534.47154587123077362776,-3.34192938016907,0.683156834620197,-299.093447676016
738534.47154596168547868729,-3.34192938016907,0.710852381969665,-299.130375072481
738534.47154605214018374681,-3.24037903988769,0.784707174901578,-299.194998016297
738534.47154614259488880634,-3.30500198370312,0.738547929319132,-299.222693563646
738534.47154623293317854404,-3.27730643635365,0.747779778435621,-299.231925412763
738534.47154632338788360357,-3.24037903988769,0.784707174901578,-299.176534318064
738534.47154641384258866310,-3.26807458723716,0.720084231086154,-299.231925412763
738534.47154650429729372263,-3.30500198370312,0.673924985503708,-299.222693563646
738534.47154659475199878216,-3.35116122928556,0.627765739921262,-299.278084658345
738534.47154668520670384169,-3.31423383281961,0.65546128727073,-299.21346171453
738534.47154677554499357939,-3.35116122928556,0.627765739921262,-299.231925412763
738534.47154686599969863892,-3.4896389660329,0.480056154057436,-299.305780205695
738534.47154695645440369844,-3.54503006073183,0.443128757591479,-299.259620960112
738534.47154704690910875797,-3.49887081514939,0.489288003173925,-299.250389110996
738534.47154713736381381750,-3.64658040101321,0.360042115543077,-299.296548356578
738534.47154722781851887703,-3.64658040101321,0.332346568193609,-299.324243903928
738534.47154731815680861473,-3.66504409924619,0.360042115543077,-299.250389110996
738534.47154740861151367426,-3.51733451338237,0.470824304940947,-299.315012054811
738534.47154749906621873379,-3.66504409924619,0.360042115543077,-299.324243903928
738534.47154758952092379332,-3.66504409924619,0.360042115543077,-299.250389110996
738534.47154767997562885284,-3.60042115543077,0.415433210242012,-299.287316507462
738534.47154777043033391237,-3.58195745719779,0.415433210242012,-299.342707602161
738534.47154786076862365007,-3.60965300454726,0.387737662892544,-299.259620960112
738534.47154795122332870960,-3.74813074129459,0.240028077028718,-299.241157261879
738534.47154804167803376913,-3.63734855189673,0.369273964659566,-299.231925412763
738534.47154813213273882866,-3.59118930631428,0.406201361125523,-299.222693563646
738534.47154822258744388819,-3.63734855189673,0.341578417310099,-299.231925412763
738534.47154831304214894772,-3.5727256080813,0.415433210242012,-299.250389110996
738534.47154840338043868542,-3.54503006073183,0.43389690847499,-299.21346171453
738534.47154849383514374495,-3.61888485366375,0.369273964659566,-299.278084658345
738534.47154858428984880447,-3.61888485366375,0.369273964659566,-299.259620960112
738534.47154867474455386400,-3.68350779747917,0.313882869960631,-299.21346171453
738534.47154876519925892353,-3.55426190984832,0.415433210242012,-299.222693563646
738534.47154885565396398306,-3.61888485366375,0.387737662892544,-299.250389110996
738534.47154894599225372076,-3.67427594836268,0.332346568193609,-299.241157261879
738534.47154903644695878029,-3.66504409924619,0.350810266426588,-299.231925412763
738534.47154912690166383982,-3.61888485366375,0.369273964659566,-299.231925412763
738534.47154921735636889935,-3.60965300454726,0.378505813776055,-299.250389110996
738534.47154930781107395887,-3.64658040101321,0.378505813776055,-299.259620960112
738534.47154939826577901840,-3.66504409924619,0.350810266426588,-299.148838770714
738534.47154948860406875610,-3.66504409924619,0.369273964659566,-299.194998016297
738534.47154957905877381563,-3.67427594836268,0.341578417310099,-299.204229865413
738534.47154966951347887516,-3.60042115543077,0.43389690847499,-299.21346171453
738534.47154975996818393469,-3.70197149571215,0.332346568193609,-299.278084658345
738534.47154985042288899422,-3.6558122501297,0.378505813776055,-299.324243903928
738534.47154994087759405375,-3.62811670278024,0.378505813776055,-299.315012054811
738534.47155003121588379145,-3.72966704306162,0.295419171727653,-299.167302468947
738534.47155012167058885098,-3.71120334482864,0.313882869960631,-299.268852809229
738534.47155021212529391050,-3.60042115543077,0.461592455824458,-299.259620960112
738534.47155030257999897003,-3.67427594836268,0.350810266426588,-299.296548356578
738534.47155039303470402956,-3.69273964659566,0.369273964659566,-299.268852809229
738534.47155048348940908909,-3.68350779747917,0.369273964659566,-299.315012054811
738534.47155057382769882679,-3.68350779747917,0.360042115543077,-299.333475753044
738534.47155066428240388632,-3.72966704306162,0.313882869960631,-299.241157261879
738534.47155075473710894585,-3.73889889217811,0.295419171727653,-299.268852809229
738534.47155084519181400537,-3.62811670278024,0.415433210242012,-299.305780205695
738534.47155093564651906490,-3.68350779747917,0.350810266426588,-299.305780205695
738534.47155102610122412443,-3.71120334482864,0.332346568193609,-299.315012054811
738534.47155111643951386213,-3.69273964659566,0.332346568193609,-299.287316507462
738534.47155120689421892166,-3.67427594836268,0.387737662892544,-299.305780205695
738534.47155129734892398119,-3.64658040101321,0.369273964659566,-299.315012054811
738534.47155138780362904072,-3.69273964659566,0.313882869960631,-299.324243903928
738534.47155147825833410025,-3.63734855189673,0.341578417310099,-299.305780205695
738534.47155156871303915977,-3.5727256080813,0.424665059358501,-299.305780205695
738534.47155165905132889748,-3.59118930631428,0.360042115543077,-299.296548356578
738534.47155174950603395700,-3.54503006073183,0.387737662892544,-299.287316507462
738534.47155183996073901653,-3.48040711691641,0.443128757591479,-299.305780205695
738534.47155193041544407606,-3.6558122501297,0.313882869960631,-299.342707602161
738534.47155202087014913559,-3.62811670278024,0.396969512009033,-299.305780205695
738534.47155211132485419512,-3.70197149571215,0.350810266426588,-299.278084658345
738534.47155220166314393282,-3.70197149571215,0.304651020844142,-299.315012054811
738534.47155229211784899235,-3.6558122501297,0.406201361125523,-299.333475753044
738534.47155238257255405188,-3.63734855189673,0.43389690847499,-299.287316507462
738534.47155247302725911140,-3.74813074129459,0.332346568193609,-299.194998016297
738534.47155256348196417093,-3.78505813776055,0.313882869960631,-299.194998016297
738534.47155265393666923046,-3.78505813776055,0.286187322611164,-299.194998016297
738534.47155274427495896816,-3.75736259041108,0.350810266426588,-299.204229865413
738534.47155283472966402769,-3.75736259041108,0.32311471907712,-299.204229865413
738534.47155292518436908722,-3.72966704306162,0.369273964659566,-299.167302468947
738534.47155301563907414675,-3.73889889217811,0.341578417310099,-299.130375072481
738534.47155310609377920628,-3.63734855189673,0.452360606707968,-299.130375072481
738534.47155319654848426580,-3.18498794518876,0.618533890804773,-299.222693563646
738534.47155328688677400351,-2.74185918759728,0.692388683736686,-299.167302468947
738534.47155337734147906303,-2.43720816675314,0.64622943815424,-299.121143223365
738534.47155346779618412256,-2.82494582964568,0.535447248756371,-299.139606921598
738534.47155355825088918209,-3.43424787133396,0.0830866420484024,-299.259620960112
738534.47155364870559424162,-3.63734855189673,0.11078218939787,-299.37040314951
738534.47155373916029930115,-3.78505813776055,0.175405133213294,-299.278084658345
738534.47155382949858903885,-3.73889889217811,0.295419171727653,-299.333475753044
738534.47155391995329409838,-3.78505813776055,0.276955473494675,-299.315012054811
738534.47155401040799915791,-3.74813074129459,0.360042115543077,-299.241157261879
738534.47155410086270421743,-3.69273964659566,0.43389690847499,-299.324243903928
738534.47155419131740927696,-3.70197149571215,0.406201361125523,-299.315012054811
738534.47155428177211433649,-3.75736259041108,0.360042115543077,-299.250389110996
738534.47155437211040407419,-3.70197149571215,0.396969512009033,-299.231925412763
738534.47155446256510913372,-3.71120334482864,0.396969512009033,-299.287316507462
738534.47155455301981419325,-3.69273964659566,0.415433210242012,-299.278084658345
738534.47155464347451925278,-3.72966704306162,0.415433210242012,-299.268852809229
738534.47155473392922431231,-3.72966704306162,0.360042115543077,-299.296548356578
738534.47155482438392937183,-3.70197149571215,0.424665059358501,-299.324243903928
738534.47155491472221910954,-3.67427594836268,0.452360606707968,-299.305780205695
738534.47155500517692416906,-3.63734855189673,0.489288003173925,-299.305780205695
738534.47155509563162922859,-3.6558122501297,0.443128757591479,-299.241157261879
738534.47155518608633428812,-3.56349375896481,0.54467909787286,-299.296548356578
738534.47155527654103934765,-3.63734855189673,0.452360606707968,-299.296548356578
738534.47155536699574440718,-3.60042115543077,0.507751701406903,-299.222693563646
738534.47155545733403414488,-3.55426190984832,0.54467909787286,-299.287316507462
738534.47155554778873920441,-3.52656636249886,0.553910946989349,-299.278084658345
738534.47155563824344426394,-3.52656636249886,0.563142796105838,-299.241157261879
738534.47155572869814932346,-3.42501602221747,0.664693136387219,-299.250389110996
738534.47155581915285438299,-3.43424787133396,0.664693136387219,-299.241157261879
738534.47155590960755944252,-3.37885677663503,0.692388683736686,-299.250389110996
738534.47155599994584918022,-3.34192938016907,0.75701162755211,-299.176534318064
738534.47155609040055423975,-3.32346568193609,0.747779778435621,-299.268852809229
738534.47155618085525929928,-3.34192938016907,0.738547929319132,-299.250389110996
738534.47155627130996435881,-3.31423383281961,0.747779778435621,-299.222693563646
738534.47155636176466941833,-3.32346568193609,0.720084231086154,-299.259620960112
738534.47155645221937447786,-3.35116122928556,0.683156834620197,-299.18576616718
738534.47155654255766421556,-3.43424787133396,0.572374645222327,-299.139606921598
738534.47155663301236927509,-3.45271156956694,0.563142796105838,-299.241157261879
738534.47155672346707433462,-3.51733451338237,0.498519852290414,-299.324243903928
738534.47155681392177939415,-3.5727256080813,0.452360606707968,-299.324243903928
738534.47155690437648445368,-3.58195745719779,0.43389690847499,-299.241157261879
738534.47155699483118951321,-3.62811670278024,0.406201361125523,-299.268852809229
738534.47155708516947925091,-3.6558122501297,0.378505813776055,-299.250389110996
738534.47155717562418431044,-3.68350779747917,0.378505813776055,-299.222693563646
738534.47155726607888936996,-3.68350779747917,0.360042115543077,-299.21346171453
738534.47155735653359442949,-3.70197149571215,0.350810266426588,-299.241157261879
738534.47155744698829948902,-3.68350779747917,0.332346568193609,-299.278084658345
738534.47155753744300454855,-3.67427594836268,0.387737662892544,-299.259620960112
738534.47155762778129428625,-3.70197149571215,0.341578417310099,-299.315012054811
738534.47155771823599934578,-3.70197149571215,0.350810266426588,-299.324243903928
738534.47155780869070440531,-3.67427594836268,0.341578417310099,-299.278084658345
738534.47155789914540946484,-3.67427594836268,0.360042115543077,-299.315012054811
738534.47155798960011452436,-3.67427594836268,0.360042115543077,-299.268852809229
738534.47155808005481958389,-3.66504409924619,0.350810266426588,-299.315012054811
738534.47155817039310932159,-3.70197149571215,0.341578417310099,-299.287316507462
738534.47155826084781438112,-3.67427594836268,0.332346568193609,-299.305780205695
738534.47155835130251944065,-3.66504409924619,0.369273964659566,-299.287316507462
738534.47155844175722450018,-3.6558122501297,0.360042115543077,-299.351939451277
738534.47155853221192955971,-3.67427594836268,0.360042115543077,-299.342707602161
738534.47155862266663461924,-3.6558122501297,0.350810266426588,-299.287316507462
738534.47155871300492435694,-3.68350779747917,0.350810266426588,-299.305780205695
738534.47155880345962941647,-3.68350779747917,0.350810266426588,-299.305780205695
738534.47155889391433447599,-3.68350779747917,0.369273964659566,-299.305780205695
738534.47155898436903953552,-3.69273964659566,0.341578417310099,-299.324243903928
738534.47155907482374459505,-3.70197149571215,0.369273964659566,-299.333475753044
738534.47155916527844965458,-3.69273964659566,0.332346568193609,-299.268852809229
738534.47155925561673939228,-3.71120334482864,0.341578417310099,-299.278084658345
738534.47155934607144445181,-3.70197149571215,0.341578417310099,-299.351939451277
738534.47155943652614951134,-3.71120334482864,0.350810266426588,-299.333475753044
738534.47155952698085457087,-3.70197149571215,0.341578417310099,-299.287316507462
738534.47155961743555963039,-3.71120334482864,0.32311471907712,-299.333475753044
738534.47155970789026468992,-3.72043519394513,0.332346568193609,-299.333475753044
738534.47155979822855442762,-3.72966704306162,0.332346568193609,-299.342707602161
738534.47155988868325948715,-3.72966704306162,0.350810266426588,-299.278084658345
738534.47155997913796454668,-3.71120334482864,0.341578417310099,-299.305780205695
738534.47156006959266960621,-3.72966704306162,0.341578417310099,-299.222693563646
738534.47156016004737466574,-3.71120334482864,0.332346568193609,-299.278084658345
738534.47156025050207972527,-3.72966704306162,0.341578417310099,-299.324243903928
738534.47156034084036946297,-3.70197149571215,0.332346568193609,-299.351939451277
738534.47156043129507452250,-3.72043519394513,0.350810266426588,-299.324243903928
738534.47156052174977958202,-3.72043519394513,0.332346568193609,-299.315012054811
738534.47156061220448464155,-3.71120334482864,0.341578417310099,-299.37040314951
738534.47156070265918970108,-3.72043519394513,0.32311471907712,-299.333475753044
738534.47156079311389476061,-3.72043519394513,0.341578417310099,-299.315012054811
738534.47156088345218449831,-3.72966704306162,0.341578417310099,-299.361171300394
738534.47156097390688955784,-3.71120334482864,0.350810266426588,-299.333475753044
738534.47156106436159461737,-3.67427594836268,0.360042115543077,-299.315012054811
738534.47156115481629967690,-3.64658040101321,0.369273964659566,-299.241157261879
738534.47156124527100473642,-3.64658040101321,0.369273964659566,-299.333475753044
738534.47156133572570979595,-3.64658040101321,0.360042115543077,-299.333475753044
738534.47156142606399953365,-3.60965300454726,0.369273964659566,-299.351939451277
738534.47156151651870459318,-3.55426190984832,0.369273964659566,-299.342707602161
738534.47156160697340965271,-3.56349375896481,0.396969512009033,-299.351939451277
738534.47156169742811471224,-3.58195745719779,0.369273964659566,-299.37040314951
738534.47156178788281977177,-3.6558122501297,0.369273964659566,-299.241157261879
738534.47156187833752483130,-3.66504409924619,0.369273964659566,-299.250389110996
738534.47156196867581456900,-3.67427594836268,0.378505813776055,-299.268852809229
738534.47156205913051962852,-3.71120334482864,0.332346568193609,-299.305780205695
738534.47156214958522468805,-3.73889889217811,0.341578417310099,-299.296548356578
738534.47156224003992974758,-3.75736259041108,0.313882869960631,-299.278084658345
738534.47156233049463480711,-3.74813074129459,0.332346568193609,-299.259620960112
738534.47156242094933986664,-3.74813074129459,0.332346568193609,-299.296548356578
738534.47156251128762960434,-3.76659443952757,0.313882869960631,-299.268852809229
738534.47156260174233466387,-3.77582628864406,0.32311471907712,-299.315012054811
738534.47156269219703972340,-3.74813074129459,0.332346568193609,-299.324243903928
738534.47156278265174478292,-3.75736259041108,0.350810266426588,-299.278084658345
738534.47156287310644984245,-3.63734855189673,0.424665059358501,-299.305780205695
738534.47156296356115490198,-3.2311471907712,0.563142796105838,-299.287316507462
738534.47156305389944463968,-2.74185918759728,0.609302041688284,-299.268852809229
738534.47156314435414969921,-2.48336741233558,0.618533890804773,-299.148838770714
738534.47156323480885475874,-2.8895687734611,0.507751701406903,-299.222693563646
738534.47156332526355981827,-3.48040711691641,0.0461592455824458,-299.333475753044
738534.47156341571826487780,-3.68350779747917,0.0553910946989349,-299.379634998627
738534.47156350617296993732,-3.74813074129459,0.240028077028718,-299.278084658345
738534.47156359651125967503,-3.73889889217811,0.286187322611164,-299.18576616718
738534.47156368696596473455,-3.73889889217811,0.32311471907712,-299.342707602161
738534.47156377742066979408,-3.72966704306162,0.350810266426588,-299.342707602161
738534.47156386787537485361,-3.72043519394513,0.369273964659566,-299.259620960112
738534.47156395833007991314,-3.73889889217811,0.369273964659566,-299.37040314951
738534.47156404878478497267,-3.73889889217811,0.369273964659566,-299.324243903928
738534.47156413912307471037,-3.72043519394513,0.396969512009033,-299.268852809229
738534.47156422957777976990,-3.72966704306162,0.406201361125523,-299.333475753044
738534.47156432003248482943,-3.72043519394513,0.415433210242012,-299.361171300394
738534.47156441048718988895,-3.71120334482864,0.387737662892544,-299.315012054811
738534.47156450094189494848,-3.71120334482864,0.415433210242012,-299.268852809229
738534.47156459139660000801,-3.71120334482864,0.424665059358501,-299.333475753044
738534.47156468173488974571,-3.68350779747917,0.443128757591479,-299.324243903928
738534.47156477218959480524,-3.66504409924619,0.43389690847499,-299.259620960112
738534.47156486264429986477,-3.66504409924619,0.461592455824458,-299.296548356578
738534.47156495309900492430,-3.62811670278024,0.470824304940947,-299.296548356578
738534.47156504355370998383,-3.60965300454726,0.498519852290414,-299.296548356578
738534.47156513389199972153,-3.59118930631428,0.498519852290414,-299.287316507462
738534.47156522434670478106,-3.54503006073183,0.553910946989349,-299.315012054811
738534.47156531480140984058,-3.51733451338237,0.563142796105838,-299.287316507462
738534.47156540525611490011,-3.49887081514939,0.590838343455306,-299.315012054811
738534.47156549571081995964,-3.47117526779992,0.627765739921262,-299.194998016297
738534.47156558616552501917,-3.43424787133396,0.65546128727073,-299.204229865413
738534.47156567650381475687,-3.38808862575152,0.692388683736686,-299.250389110996
738534.47156576695851981640,-3.35116122928556,0.710852381969665,-299.268852809229
738534.47156585741322487593,-3.34192938016907,0.738547929319132,-299.18576616718
738534.47156594786792993546,-3.33269753105258,0.720084231086154,-299.194998016297
738534.47156603832263499498,-3.33269753105258,0.747779778435621,-299.194998016297
738534.47156612877734005451,-3.32346568193609,0.701620532853175,-299.204229865413
738534.47156621911562979221,-3.36962492751854,0.673924985503708,-299.222693563646
738534.47156630957033485174,-3.4065523239845,0.590838343455306,-299.222693563646
738534.47156640002503991127,-3.47117526779992,0.563142796105838,-299.268852809229
738534.47156649047974497080,-3.52656636249886,0.498519852290414,-299.268852809229
738534.47156658093445003033,-3.5727256080813,0.452360606707968,-299.296548356578
738534.47156667138915508986,-3.61888485366375,0.406201361125523,-299.315012054811
738534.47156676172744482756,-3.6558122501297,0.396969512009033,-299.333475753044
738534.47156685218214988708,-3.68350779747917,0.378505813776055,-299.342707602161
738534.47156694263685494661,-3.68350779747917,0.369273964659566,-299.268852809229
738534.47156703309156000614,-3.70197149571215,0.350810266426588,-299.111911374248
738534.47156712354626506567,-3.70197149571215,0.360042115543077,-299.231925412763
738534.47156721400097012520,-3.71120334482864,0.350810266426588,-299.324243903928
738534.47156730433925986290,-3.71120334482864,0.341578417310099,-299.296548356578
738534.47156739479396492243,-3.70197149571215,0.360042115543077,-299.287316507462
738534.47156748524866998196,-3.69273964659566,0.350810266426588,-299.333475753044
738534.47156757570337504148,-3.71120334482864,0.369273964659566,-299.342707602161
738534.47156766615808010101,-3.69273964659566,0.350810266426588,-299.296548356578
738534.47156775661278516054,-3.69273964659566,0.350810266426588,-299.250389110996
738534.47156784695107489824,-3.69273964659566,0.341578417310099,-299.259620960112
738534.47156793740577995777,-3.68350779747917,0.360042115543077,-299.259620960112
738534.47156802786048501730,-3.69273964659566,0.341578417310099,-299.259620960112
738534.47156811831519007683,-3.68350779747917,0.360042115543077,-299.268852809229
738534.47156820876989513636,-3.67427594836268,0.360042115543077,-299.315012054811
738534.47156829922460019588,-3.67427594836268,0.350810266426588,-299.305780205695
738534.47156838956288993359,-3.70197149571215,0.350810266426588,-299.278084658345
738534.47156848001759499311,-3.67427594836268,0.360042115543077,-299.37040314951
738534.47156857047230005264,-3.69273964659566,0.350810266426588,-299.342707602161
738534.47156866092700511217,-3.69273964659566,0.341578417310099,-299.268852809229
738534.47156875138171017170,-3.70197149571215,0.332346568193609,-299.351939451277
738534.47156884183641523123,-3.69273964659566,0.341578417310099,-299.379634998627
738534.47156893217470496893,-3.69273964659566,0.369273964659566,-299.361171300394
738534.47156902262941002846,-3.70197149571215,0.341578417310099,-299.333475753044
738534.47156911308411508799,-3.71120334482864,0.360042115543077,-299.305780205695
738534.47156920353882014751,-3.71120334482864,0.341578417310099,-299.342707602161
738534.47156929399352520704,-3.71120334482864,0.341578417310099,-299.351939451277
738534.47156938444823026657,-3.72043519394513,0.341578417310099,-299.333475753044
738534.47156947478652000427,-3.72043519394513,0.341578417310099,-299.333475753044
738534.47156956524122506380,-3.71120334482864,0.332346568193609,-299.351939451277
738534.47156965569593012333,-3.72043519394513,0.32311471907712,-299.379634998627
738534.47156974615063518286,-3.73889889217811,0.32311471907712,-299.287316507462
738534.47156983660534024239,-3.72043519394513,0.332346568193609,-299.342707602161
738534.47156992706004530191,-3.72966704306162,0.332346568193609,-299.361171300394
738534.47157001739833503962,-3.72043519394513,0.332346568193609,-299.333475753044
738534.47157010785304009914,-3.73889889217811,0.341578417310099,-299.250389110996
738534.47157019830774515867,-3.73889889217811,0.313882869960631,-299.259620960112
738534.47157028876245021820,-3.73889889217811,0.32311471907712,-299.324243903928
738534.47157037921715527773,-3.72966704306162,0.313882869960631,-299.305780205695
738534.47157046967186033726,-3.73889889217811,0.341578417310099,-299.296548356578
738534.47157056001015007496,-3.72966704306162,0.32311471907712,-299.130375072481
738534.47157065046485513449,-3.73889889217811,0.332346568193609,-299.222693563646
738534.47157074091956019402,-3.73889889217811,0.313882869960631,-299.305780205695
738534.47157083137426525354,-3.72043519394513,0.350810266426588,-299.315012054811
738534.47157092182897031307,-3.68350779747917,0.32311471907712,-299.305780205695
738534.47157101228367537260,-3.6558122501297,0.341578417310099,-299.333475753044
738534.47157110262196511030,-3.67427594836268,0.350810266426588,-299.305780205695
738534.47157119307667016983,-3.63734855189673,0.350810266426588,-299.379634998627
738534.47157128353137522936,-3.64658040101321,0.350810266426588,-299.342707602161
738534.47157137398608028889,-3.59118930631428,0.341578417310099,-299.287316507462
738534.47157146444078534842,-3.59118930631428,0.360042115543077,-299.305780205695
738534.47157155489549040794,-3.61888485366375,0.350810266426588,-299.296548356578
738534.47157164523378014565,-3.67427594836268,0.350810266426588,-299.287316507462
738534.47157173568848520517,-3.67427594836268,0.360042115543077,-299.287316507462
738534.47157182614319026470,-3.69273964659566,0.341578417310099,-299.333475753044
738534.47157191659789532423,-3.73889889217811,0.295419171727653,-299.342707602161
738534.47157200705260038376,-3.76659443952757,0.304651020844142,-299.342707602161
738534.47157209750730544329,-3.76659443952757,0.313882869960631,-299.333475753044
738534.47157218784559518099,-3.78505813776055,0.32311471907712,-299.361171300394
738534.47157227830030024052,-3.77582628864406,0.304651020844142,-299.37040314951
738534.47157236875500530005,-3.77582628864406,0.32311471907712,-299.278084658345
738534.47157245920971035957,-3.78505813776055,0.304651020844142,-299.351939451277
738534.47157254966441541910,-3.77582628864406,0.32311471907712,-299.278084658345
738534.47157264011912047863,-3.77582628864406,0.332346568193609,-299.231925412763
738534.47157273045741021633,-3.60042115543077,0.424665059358501,-299.231925412763
738534.47157282091211527586,-3.16652424695578,0.54467909787286,-299.194998016297
738534.47157291136682033539,-2.70493179113132,0.581606494338817,-299.18576616718
738534.47157300182152539492,-2.53875850703452,0.590838343455306,-299.130375072481
738534.47157309227623045444,-2.68646809289834,0.498519852290414,-299.231925412763
738534.47157318273093551397,-3.41578417310099,0.138477736747337,-299.333475753044
738534.47157327306922525167,-3.67427594836268,-0.0184636982329783,-299.39809869686
738534.47157336352393031120,-3.75736259041108,0.166173284096805,-299.37040314951
738534.47157345397863537073,-3.76659443952757,0.258491775261696,-299.37040314951
738534.47157354443334043026,-3.74813074129459,0.32311471907712,-299.333475753044
738534.47157363488804548979,-3.76659443952757,0.304651020844142,-299.324243903928
738534.47157372534275054932,-3.75736259041108,0.350810266426588,-299.37040314951
738534.47157381568104028702,-3.76659443952757,0.332346568193609,-299.379634998627
738534.47157390613574534655,-3.75736259041108,0.360042115543077,-299.287316507462
738534.47157399659045040607,-3.74813074129459,0.350810266426588,-299.351939451277
738534.47157408704515546560,-3.74813074129459,0.360042115543077,-299.204229865413
738534.47157417749986052513,-3.75736259041108,0.369273964659566,-299.222693563646
738534.47157426795456558466,-3.73889889217811,0.378505813776055,-299.259620960112
738534.47157435829285532236,-3.73889889217811,0.378505813776055,-299.268852809229
738534.47157444874756038189,-3.72043519394513,0.378505813776055,-299.296548356578
738534.47157453920226544142,-3.72966704306162,0.396969512009033,-299.324243903928
738534.47157462965697050095,-3.68350779747917,0.424665059358501,-299.296548356578
738534.47157472011167556047,-3.68350779747917,0.424665059358501,-299.315012054811
738534.47157481056638062000,-3.67427594836268,0.415433210242012,-299.278084658345
738534.47157490090467035770,-3.6558122501297,0.452360606707968,-299.351939451277
738534.47157499135937541723,-3.62811670278024,0.470824304940947,-299.259620960112
738534.47157508181408047676,-3.60042115543077,0.507751701406903,-299.250389110996
738534.47157517226878553629,-3.5727256080813,0.507751701406903,-299.278084658345
738534.47157526272349059582,-3.53579821161534,0.563142796105838,-299.278084658345
738534.47157535317819565535,-3.4896389660329,0.590838343455306,-299.296548356578
738534.47157544351648539305,-3.45271156956694,0.64622943815424,-299.268852809229
738534.47157553397119045258,-3.43424787133396,0.664693136387219,-299.204229865413
738534.47157562442589551210,-3.38808862575152,0.692388683736686,-299.278084658345
738534.47157571488060057163,-3.36962492751854,0.710852381969665,-299.194998016297
738534.47157580533530563116,-3.35116122928556,0.710852381969665,-299.231925412763
738534.47157589579001069069,-3.36039307840205,0.692388683736686,-299.250389110996
738534.47157598612830042839,-3.36039307840205,0.673924985503708,-299.259620960112
738534.47157607658300548792,-3.4065523239845,0.636997589037751,-299.296548356578
738534.47157616703771054745,-3.45271156956694,0.572374645222327,-299.305780205695
738534.47157625749241560698,-3.51733451338237,0.526215399639882,-299.296548356578
738534.47157634794712066650,-3.5727256080813,0.452360606707968,-299.361171300394
738534.47157643840182572603,-3.62811670278024,0.415433210242012,-299.37040314951
738534.47157652874011546373,-3.6558122501297,0.360042115543077,-299.324243903928
738534.47157661919482052326,-3.67427594836268,0.369273964659566,-299.342707602161
738534.47157670964952558279,-3.71120334482864,0.350810266426588,-299.333475753044
738534.47157680010423064232,-3.72043519394513,0.341578417310099,-299.324243903928
738534.47157689055893570185,-3.73889889217811,0.313882869960631,-299.37040314951
738534.47157698101364076138,-3.72966704306162,0.341578417310099,-299.379634998627
738534.47157707135193049908,-3.73889889217811,0.341578417310099,-299.278084658345
738534.47157716180663555861,-3.73889889217811,0.332346568193609,-299.287316507462
738534.47157725226134061813,-3.75736259041108,0.32311471907712,-299.278084658345
738534.47157734271604567766,-3.72966704306162,0.313882869960631,-299.287316507462
738534.47157743317075073719,-3.73889889217811,0.332346568193609,-299.287316507462
738534.47157752362545579672,-3.73889889217811,0.304651020844142,-299.351939451277
738534.47157761396374553442,-3.73889889217811,0.304651020844142,-299.250389110996
738534.47157770441845059395,-3.72966704306162,0.32311471907712,-299.278084658345
738534.47157779487315565348,-3.72043519394513,0.341578417310099,-299.333475753044
738534.47157788532786071301,-3.72043519394513,0.313882869960631,-299.333475753044
738534.47157797578256577253,-3.72966704306162,0.32311471907712,-299.324243903928
738534.47157806623727083206,-3.71120334482864,0.313882869960631,-299.278084658345
738534.47157815657556056976,-3.72966704306162,0.332346568193609,-299.259620960112
738534.47157824703026562929,-3.72966704306162,0.295419171727653,-299.305780205695
738534.47157833748497068882,-3.73889889217811,0.313882869960631,-299.315012054811
738534.47157842793967574835,-3.73889889217811,0.304651020844142,-299.278084658345
738534.47157851839438080788,-3.72966704306162,0.313882869960631,-299.296548356578
738534.47157860884908586740,-3.74813074129459,0.313882869960631,-299.351939451277
738534.47157869918737560511,-3.73889889217811,0.304651020844142,-299.324243903928
738534.47157878964208066463,-3.75736259041108,0.32311471907712,-299.324243903928
738534.47157888009678572416,-3.74813074129459,0.304651020844142,-299.324243903928
738534.47157897055149078369,-3.76659443952757,0.32311471907712,-299.342707602161
738534.47157906100619584322,-3.76659443952757,0.295419171727653,-299.351939451277
738534.47157915146090090275,-3.76659443952757,0.313882869960631,-299.305780205695
738534.47157924179919064045,-3.77582628864406,0.295419171727653,-299.305780205695
738534.47157933225389569998,-3.77582628864406,0.332346568193609,-299.333475753044
738534.47157942270860075951,-3.77582628864406,0.286187322611164,-299.333475753044
738534.47157951316330581903,-3.78505813776055,0.313882869960631,-299.333475753044
738534.47157960361801087856,-3.78505813776055,0.295419171727653,-299.342707602161
738534.47157969407271593809,-3.78505813776055,0.304651020844142,-299.37040314951
738534.47157978441100567579,-3.78505813776055,0.304651020844142,-299.379634998627
738534.47157987486571073532,-3.78505813776055,0.313882869960631,-299.37040314951
738534.47157996532041579485,-3.78505813776055,0.304651020844142,-299.351939451277
738534.47158005577512085438,-3.76659443952757,0.313882869960631,-299.407330545976
738534.47158014622982591391,-3.78505813776055,0.295419171727653,-299.39809869686
738534.47158023668453097343,-3.79428998687704,0.304651020844142,-299.333475753044
738534.47158032702282071114,-3.79428998687704,0.295419171727653,-299.379634998627
738534.47158041747752577066,-3.78505813776055,0.295419171727653,-299.388866847743
738534.47158050793223083019,-3.78505813776055,0.313882869960631,-299.361171300394
738534.47158059838693588972,-3.79428998687704,0.295419171727653,-299.351939451277
738534.47158068884164094925,-3.80352183599353,0.313882869960631,-299.416562395093
738534.47158077929634600878,-3.79428998687704,0.295419171727653,-299.388866847743
738534.47158086963463574648,-3.79428998687704,0.313882869960631,-299.305780205695
738534.47158096008934080601,-3.80352183599353,0.295419171727653,-299.37040314951
738534.47158105054404586554,-3.77582628864406,0.32311471907712,-299.379634998627
738534.47158114099875092506,-3.75736259041108,0.313882869960631,-299.222693563646
738534.47158123145345598459,-3.72966704306162,0.332346568193609,-299.268852809229
738534.47158132190816104412,-3.70197149571215,0.32311471907712,-299.39809869686
738534.47158141224645078182,-3.70197149571215,0.332346568193609,-299.342707602161
738534.47158150270115584135,-3.67427594836268,0.350810266426588,-299.351939451277
738534.47158159315586090088,-3.61888485366375,0.341578417310099,-299.37040314951
738534.47158168361056596041,-3.63734855189673,0.332346568193609,-299.416562395093
738534.47158177406527101994,-3.68350779747917,0.32311471907712,-299.361171300394
738534.47158186451997607946,-3.72966704306162,0.369273964659566,-299.361171300394
738534.47158195485826581717,-3.73889889217811,0.350810266426588,-299.37040314951
738534.47158204531297087669,-3.76659443952757,0.313882869960631,-299.296548356578
738534.47158213576767593622,-3.78505813776055,0.295419171727653,-299.351939451277
738534.47158222622238099575,-3.79428998687704,0.313882869960631,-299.315012054811
738534.47158231667708605528,-3.82198553422651,0.304651020844142,-299.287316507462
738534.47158240713179111481,-3.82198553422651,0.304651020844142,-299.287316507462
738534.47158249747008085251,-3.82198553422651,0.304651020844142,-299.296548356578
738534.47158258792478591204,-3.82198553422651,0.295419171727653,-299.315012054811
738534.47158267837949097157,-3.831217383343,0.313882869960631,-299.296548356578
738534.47158276883419603109,-3.82198553422651,0.304651020844142,-299.351939451277
738534.47158285928890109062,-3.831217383343,0.341578417310099,-299.37040314951
738534.47158294974360615015,-3.71120334482864,0.396969512009033,-299.315012054811
738534.47158304008189588785,-3.29577013458663,0.553910946989349,-299.268852809229
738534.47158313053660094738,-2.76032288583026,0.600070192571795,-299.268852809229
738534.47158322099130600691,-2.49259926145207,0.563142796105838,-299.231925412763
738534.47158331144601106644,-2.91726432081057,0.406201361125523,-299.250389110996
738534.47158340190071612597,-3.53579821161534,0.0184636982329783,-299.39809869686
738534.47158349235542118549,-3.75736259041108,0.0184636982329783,-299.435026093326
738534.47158358269371092319,-3.82198553422651,0.175405133213294,-299.315012054811
738534.47158367314841598272,-3.79428998687704,0.249259926145207,-299.361171300394
738534.47158376360312104225,-3.80352183599353,0.313882869960631,-299.407330545976
738534.47158385405782610178,-3.79428998687704,0.313882869960631,-299.342707602161
738534.47158394451253116131,-3.82198553422651,0.32311471907712,-299.342707602161
738534.47158403496723622084,-3.80352183599353,0.341578417310099,-299.361171300394
738534.47158412530552595854,-3.79428998687704,0.341578417310099,-299.379634998627
738534.47158421576023101807,-3.80352183599353,0.350810266426588,-299.278084658345
738534.47158430621493607759,-3.78505813776055,0.350810266426588,-299.296548356578
738534.47158439666964113712,-3.80352183599353,0.360042115543077,-299.287316507462
738534.47158448712434619665,-3.78505813776055,0.350810266426588,-299.305780205695
738534.47158457757905125618,-3.77582628864406,0.360042115543077,-299.315012054811
738534.47158466791734099388,-3.76659443952757,0.378505813776055,-299.241157261879
738534.47158475837204605341,-3.76659443952757,0.387737662892544,-299.18576616718
738534.47158484882675111294,-3.73889889217811,0.406201361125523,-299.351939451277
738534.47158493928145617247,-3.73889889217811,0.415433210242012,-299.342707602161
738534.47158502973616123199,-3.70197149571215,0.415433210242012,-299.361171300394
738534.47158512019086629152,-3.68350779747917,0.452360606707968,-299.296548356578
738534.47158521052915602922,-3.6558122501297,0.461592455824458,-299.305780205695
738534.47158530098386108875,-3.63734855189673,0.507751701406903,-299.324243903928
738534.47158539143856614828,-3.60965300454726,0.507751701406903,-299.268852809229
738534.47158548189327120781,-3.58195745719779,0.553910946989349,-299.342707602161
738534.47158557234797626734,-3.52656636249886,0.581606494338817,-299.324243903928
738534.47158566280268132687,-3.4896389660329,0.609302041688284,-299.259620960112
738534.47158575314097106457,-3.47117526779992,0.636997589037751,-299.287316507462
738534.47158584359567612410,-3.43424787133396,0.683156834620197,-299.305780205695
738534.47158593405038118362,-3.41578417310099,0.692388683736686,-299.259620960112
738534.47158602450508624315,-3.4065523239845,0.692388683736686,-299.241157261879
738534.47158611495979130268,-3.41578417310099,0.683156834620197,-299.250389110996
738534.47158620541449636221,-3.39732047486801,0.664693136387219,-299.250389110996
738534.47158629575278609991,-3.44347972045045,0.627765739921262,-299.241157261879
738534.47158638620749115944,-3.4896389660329,0.553910946989349,-299.268852809229
738534.47158647666219621897,-3.52656636249886,0.516983550523392,-299.296548356578
738534.47158656711690127850,-3.59118930631428,0.43389690847499,-299.231925412763
738534.47158665757160633802,-3.63734855189673,0.406201361125523,-299.241157261879
738534.47158674802631139755,-3.66504409924619,0.378505813776055,-299.250389110996
738534.47158683836460113525,-3.71120334482864,0.350810266426588,-299.241157261879
738534.47158692881930619478,-3.72966704306162,0.313882869960631,-299.278084658345
738534.47158701927401125431,-3.73889889217811,0.332346568193609,-299.18576616718
738534.47158710972871631384,-3.77582628864406,0.304651020844142,-299.268852809229
738534.47158720018342137337,-3.74813074129459,0.32311471907712,-299.278084658345
738534.47158729063812643290,-3.75736259041108,0.295419171727653,-299.287316507462
738534.47158738097641617060,-3.74813074129459,0.32311471907712,-299.287316507462
738534.47158747143112123013,-3.75736259041108,0.313882869960631,-299.278084658345
738534.47158756188582628965,-3.74813074129459,0.295419171727653,-299.259620960112
738534.47158765234053134918,-3.74813074129459,0.313882869960631,-299.315012054811
738534.47158774279523640871,-3.72966704306162,0.313882869960631,-299.241157261879
738534.47158783324994146824,-3.73889889217811,0.313882869960631,-299.315012054811
738534.47158792358823120594,-3.73889889217811,0.313882869960631,-299.278084658345
738534.47158801404293626547,-3.72966704306162,0.313882869960631,-299.241157261879
738534.47158810449764132500,-3.71120334482864,0.304651020844142,-299.296548356578
738534.47158819495234638453,-3.72043519394513,0.32311471907712,-299.250389110996
738534.47158828540705144405,-3.72043519394513,0.313882869960631,-299.148838770714
738534.47158837586175650358,-3.72043519394513,0.32311471907712,-299.305780205695
738534.47158846620004624128,-3.72043519394513,0.32311471907712,-299.250389110996
738534.47158855665475130081,-3.72966704306162,0.304651020844142,-299.241157261879
738534.47158864710945636034,-3.74813074129459,0.286187322611164,-299.259620960112
738534.47158873756416141987,-3.72966704306162,0.332346568193609,-299.259620960112
738534.47158882801886647940,-3.74813074129459,0.32311471907712,-299.241157261879
738534.47158891847357153893,-3.73889889217811,0.313882869960631,-299.296548356578
738534.47158900881186127663,-3.74813074129459,0.32311471907712,-299.278084658345
738534.47158909926656633615,-3.73889889217811,0.304651020844142,-299.324243903928
738534.47158918972127139568,-3.75736259041108,0.295419171727653,-299.305780205695
738534.47158928017597645521,-3.75736259041108,0.295419171727653,-299.278084658345
738534.47158937063068151474,-3.75736259041108,0.295419171727653,-299.324243903928
738534.47158946108538657427,-3.75736259041108,0.295419171727653,-299.305780205695
738534.47158955142367631197,-3.75736259041108,0.313882869960631,-299.342707602161
738534.47158964187838137150,-3.76659443952757,0.286187322611164,-299.324243903928
738534.47158973233308643103,-3.76659443952757,0.295419171727653,-299.333475753044
738534.47158982278779149055,-3.75736259041108,0.313882869960631,-299.333475753044
738534.47158991324249655008,-3.74813074129459,0.304651020844142,-299.315012054811
738534.47159000369720160961,-3.76659443952757,0.286187322611164,-299.305780205695
738534.47159009403549134731,-3.75736259041108,0.313882869960631,-299.315012054811
738534.47159018449019640684,-3.75736259041108,0.304651020844142,-299.333475753044
738534.47159027494490146637,-3.74813074129459,0.276955473494675,-299.296548356578
738534.47159036539960652590,-3.75736259041108,0.286187322611164,-299.324243903928
738534.47159045585431158543,-3.76659443952757,0.286187322611164,-299.324243903928
738534.47159054630901664495,-3.78505813776055,0.313882869960631,-299.305780205695
738534.47159063664730638266,-3.77582628864406,0.276955473494675,-299.315012054811
738534.47159072710201144218,-3.77582628864406,0.295419171727653,-299.333475753044
738534.47159081755671650171,-3.75736259041108,0.295419171727653,-299.342707602161
738534.47159090801142156124,-3.77582628864406,0.295419171727653,-299.296548356578
738534.47159099846612662077,-3.74813074129459,0.286187322611164,-299.324243903928
738534.47159108892083168030,-3.76659443952757,0.295419171727653,-299.324243903928
738534.47159117925912141800,-3.75736259041108,0.276955473494675,-299.287316507462
738534.47159126971382647753,-3.76659443952757,0.286187322611164,-299.361171300394
738534.47159136016853153706,-3.75736259041108,0.286187322611164,-299.342707602161
738534.47159145062323659658,-3.72043519394513,0.295419171727653,-299.241157261879
738534.47159154107794165611,-3.69273964659566,0.286187322611164,-299.241157261879
738534.47159163153264671564,-3.69273964659566,0.313882869960631,-299.222693563646
738534.47159172187093645334,-3.70197149571215,0.332346568193609,-299.18576616718
738534.47159181232564151287,-3.66504409924619,0.313882869960631,-299.102679525132
738534.47159190278034657240,-3.62811670278024,0.332346568193609,-299.18576616718
738534.47159199323505163193,-3.60965300454726,0.304651020844142,-299.21346171453
738534.47159208368975669146,-3.62811670278024,0.32311471907712,-299.250389110996
738534.47159217414446175098,-3.66504409924619,0.295419171727653,-299.241157261879
738534.47159226448275148869,-3.70197149571215,0.313882869960631,-299.250389110996
738534.47159235493745654821,-3.70197149571215,0.313882869960631,-299.287316507462
738534.47159244539216160774,-3.72966704306162,0.304651020844142,-299.259620960112
738534.47159253584686666727,-3.78505813776055,0.267723624378185,-299.296548356578
738534.47159262630157172680,-3.78505813776055,0.286187322611164,-299.296548356578
738534.47159271675627678633,-3.79428998687704,0.276955473494675,-299.287316507462
738534.47159280709456652403,-3.79428998687704,0.286187322611164,-299.259620960112
738534.47159289754927158356,-3.79428998687704,0.276955473494675,-299.259620960112
738534.47159298800397664309,-3.80352183599353,0.276955473494675,-299.231925412763
738534.47159307845868170261,-3.80352183599353,0.276955473494675,-299.222693563646
738534.47159316891338676214,-3.78505813776055,0.295419171727653,-299.278084658345
738534.47159325936809182167,-3.72966704306162,0.350810266426588,-299.268852809229
738534.47159334970638155937,-3.39732047486801,0.470824304940947,-299.268852809229
738534.47159344016108661890,-2.91726432081057,0.563142796105838,-299.241157261879
738534.47159353061579167843,-2.67723624378185,0.535447248756371,-299.194998016297
738534.47159362107049673796,-2.48336741233558,0.54467909787286,-299.093447676016
738534.47159371152520179749,-3.0649739066744,0.360042115543077,-299.259620960112
738534.47159380197990685701,-3.55426190984832,-0.0369273964659566,-299.361171300394
738534.47159389231819659472,-3.72966704306162,0.0461592455824458,-299.305780205695
738534.47159398277290165424,-3.76659443952757,0.203100680562761,-299.324243903928
738534.47159407322760671377,-3.75736259041108,0.240028077028718,-299.305780205695
738534.47159416368231177330,-3.74813074129459,0.295419171727653,-299.287316507462
738534.47159425413701683283,-3.75736259041108,0.286187322611164,-299.278084658345
738534.47159434459172189236,-3.76659443952757,0.313882869960631,-299.324243903928
738534.47159443493001163006,-3.77582628864406,0.313882869960631,-299.324243903928
738534.47159452538471668959,-3.73889889217811,0.350810266426588,-299.241157261879
738534.47159461583942174911,-3.74813074129459,0.341578417310099,-299.296548356578
738534.47159470629412680864,-3.73889889217811,0.341578417310099,-299.296548356578
738534.47159479674883186817,-3.74813074129459,0.350810266426588,-299.250389110996
738534.47159488720353692770,-3.71120334482864,0.369273964659566,-299.305780205695
738534.47159497754182666540,-3.72043519394513,0.360042115543077,-299.305780205695
738534.47159506799653172493,-3.71120334482864,0.378505813776055,-299.250389110996
738534.47159515845123678446,-3.69273964659566,0.378505813776055,-299.231925412763
738534.47159524890594184399,-3.67427594836268,0.378505813776055,-299.093447676016
738534.47159533936064690351,-3.67427594836268,0.406201361125523,-299.148838770714
738534.47159542969893664122,-3.64658040101321,0.424665059358501,-299.231925412763
738534.47159552015364170074,-3.62811670278024,0.443128757591479,-299.204229865413
738534.47159561060834676027,-3.60042115543077,0.452360606707968,-299.296548356578
738534.47159570106305181980,-3.56349375896481,0.480056154057436,-299.268852809229
738534.47159579151775687933,-3.54503006073183,0.526215399639882,-299.194998016297
738534.47159588197246193886,-3.4896389660329,0.572374645222327,-299.241157261879
738534.47159597231075167656,-3.45271156956694,0.590838343455306,-299.241157261879
738534.47159606276545673609,-3.41578417310099,0.618533890804773,-299.231925412763
738534.47159615322016179562,-3.38808862575152,0.664693136387219,-299.222693563646
738534.47159624367486685514,-3.35116122928556,0.673924985503708,-299.241157261879
738534.47159633412957191467,-3.34192938016907,0.692388683736686,-299.21346171453
738534.47159642458427697420,-3.32346568193609,0.683156834620197,-299.194998016297
738534.47159651492256671190,-3.32346568193609,0.692388683736686,-299.222693563646
738534.47159660537727177143,-3.34192938016907,0.618533890804773,-299.250389110996
738534.47159669583197683096,-3.39732047486801,0.572374645222327,-299.21346171453
738534.47159678628668189049,-3.45271156956694,0.526215399639882,-299.241157261879
738534.47159687674138695002,-3.49887081514939,0.489288003173925,-299.268852809229
738534.47159696719609200954,-3.56349375896481,0.415433210242012,-299.21346171453
738534.47159705753438174725,-3.60965300454726,0.378505813776055,-299.194998016297
738534.47159714798908680677,-3.64658040101321,0.341578417310099,-299.21346171453
738534.47159723844379186630,-3.64658040101321,0.350810266426588,-299.268852809229
738534.47159732889849692583,-3.67427594836268,0.332346568193609,-299.259620960112
738534.47159741935320198536,-3.68350779747917,0.313882869960631,-299.296548356578
738534.47159750980790704489,-3.71120334482864,0.32311471907712,-299.296548356578
738534.47159760014619678259,-3.68350779747917,0.32311471907712,-299.324243903928
738534.47159769060090184212,-3.70197149571215,0.313882869960631,-299.342707602161
738534.47159778105560690165,-3.70197149571215,0.304651020844142,-299.268852809229
738534.47159787151031196117,-3.71120334482864,0.32311471907712,-299.315012054811
738534.47159796196501702070,-3.69273964659566,0.313882869960631,-299.315012054811
738534.47159805241972208023,-3.70197149571215,0.304651020844142,-299.296548356578
738534.47159814275801181793,-3.68350779747917,0.304651020844142,-299.315012054811
738534.47159823321271687746,-3.68350779747917,0.32311471907712,-299.351939451277
738534.47159832366742193699,-3.71120334482864,0.286187322611164,-299.278084658345
738534.47159841412212699652,-3.70197149571215,0.304651020844142,-299.296548356578
738534.47159850457683205605,-3.71120334482864,0.267723624378185,-299.315012054811
738534.47159859503153711557,-3.70197149571215,0.276955473494675,-299.315012054811
738534.47159868536982685328,-3.71120334482864,0.258491775261696,-299.287316507462
738534.47159877582453191280,-3.70197149571215,0.295419171727653,-299.139606921598
738534.47159886627923697233,-3.71120334482864,0.267723624378185,-299.259620960112
738534.47159895673394203186,-3.68350779747917,0.295419171727653,-299.305780205695
738534.47159904718864709139,-3.71120334482864,0.276955473494675,-299.342707602161
738534.47159913764335215092,-3.71120334482864,0.276955473494675,-299.278084658345
738534.47159922798164188862,-3.71120334482864,0.295419171727653,-299.324243903928
738534.47159931843634694815,-3.72043519394513,0.267723624378185,-299.342707602161
738534.47159940889105200768,-3.72966704306162,0.286187322611164,-299.231925412763
738534.47159949934575706720,-3.72043519394513,0.276955473494675,-299.21346171453
738534.47159958980046212673,-3.72966704306162,0.286187322611164,-299.250389110996
738534.47159968025516718626,-3.73889889217811,0.258491775261696,-299.241157261879
738534.47159977059345692396,-3.73889889217811,0.286187322611164,-299.194998016297
738534.47159986104816198349,-3.72966704306162,0.286187322611164,-299.21346171453
738534.47159995150286704302,-3.72966704306162,0.295419171727653,-299.250389110996
738534.47160004195757210255,-3.73889889217811,0.276955473494675,-299.268852809229
738534.47160013241227716208,-3.72966704306162,0.286187322611164,-299.231925412763
738534.47160022286698222160,-3.74813074129459,0.267723624378185,-299.287316507462
738534.47160031320527195930,-3.72966704306162,0.267723624378185,-299.278084658345
738534.47160040365997701883,-3.73889889217811,0.276955473494675,-299.241157261879
738534.47160049411468207836,-3.72966704306162,0.295419171727653,-299.268852809229
738534.47160058456938713789,-3.73889889217811,0.286187322611164,-299.268852809229
738534.47160067502409219742,-3.73889889217811,0.276955473494675,-299.259620960112
738534.47160076547879725695,-3.73889889217811,0.276955473494675,-299.287316507462
738534.47160085581708699465,-3.72966704306162,0.295419171727653,-299.305780205695
738534.47160094627179205418,-3.72966704306162,0.295419171727653,-299.342707602161
738534.47160103672649711370,-3.73889889217811,0.258491775261696,-299.324243903928
738534.47160112718120217323,-3.73889889217811,0.286187322611164,-299.305780205695
