time_dn,ecg_projection_ll_ra_mV,ecg_projection_la_ra_mV,ecg_projection_vx_rl_mV
738534.46552881086245179176,-2.79725028229621,0.184636982329783,-298.825724051637
738534.46552890131715685129,-2.76032288583026,0.193868831446272,-298.908810693686
738534.46552899177186191082,-2.74185918759728,0.230796227912229,-299.0288247322
738534.46552908222656697035,-2.70493179113132,0.249259926145207,-299.019592883084
738534.46552917268127202988,-2.68646809289834,0.286187322611164,-299.038056581317
738534.46552926313597708941,-2.66800439466536,0.286187322611164,-299.001129184851
738534.46552935347426682711,-2.63107699819941,0.313882869960631,-299.038056581317
738534.46552944392897188663,-2.62184514908292,0.332346568193609,-299.010361033967
738534.46552953438367694616,-2.60338145084994,0.304651020844142,-298.982665486618
738534.46552962483838200569,-2.60338145084994,0.332346568193609,-299.0288247322
738534.46552971529308706522,-2.59414960173345,0.369273964659566,-299.001129184851
738534.46552980574779212475,-2.60338145084994,0.313882869960631,-298.936506241035
738534.46552989620249718428,-2.6403088473159,0.22156437879574,-299.0288247322
738534.46552998654078692198,-2.68646809289834,0.21233252967925,-299.0288247322
738534.46553007699549198151,-2.71416364024781,0.120014038514359,-299.065752128666
738534.46553016745019704103,-2.76955473494675,0.11078218939787,-299.001129184851
738534.46553025790490210056,-2.8064821314127,0.064622943815424,-299.05652027955
738534.46553034835960716009,-2.86187322611164,0.0461592455824458,-299.084215826899
738534.46553043881431221962,-2.87110507522813,0.0184636982329783,-299.121143223365
738534.46553052926901727915,-2.8895687734611,0.0184636982329783,-299.065752128666
738534.46553061960730701685,-2.8895687734611,-0.0184636982329783,-299.093447676016
738534.46553071006201207638,-2.89880062257759,0.0184636982329783,-299.074983977782
738534.46553080051671713591,-2.8895687734611,-0.0184636982329783,-299.0288247322
738534.46553089097142219543,-2.8895687734611,0,-299.010361033967
738534.46553098142612725496,-2.8895687734611,0,-298.991897335734
738534.46553107188083231449,-2.88033692434461,-0.00923184911648915,-299.019592883084
738534.46553116233553737402,-2.88033692434461,0.0184636982329783,-299.0288247322
738534.46553125267382711172,-2.88033692434461,0.00923184911648915,-299.0288247322
738534.46553134312853217125,-2.8895687734611,0.0184636982329783,-299.047288430433
738534.46553143358323723078,-2.88033692434461,-0.0276955473494674,-299.047288430433
738534.46553152403794229031,-2.89880062257759,-0.0369273964659566,-299.102679525132
738534.46553161449264734983,-2.88033692434461,0,-299.074983977782
738534.46553170494735240936,-2.89880062257759,0.0184636982329783,-299.001129184851
738534.46553179540205746889,-2.8895687734611,-0.0184636982329783,-299.065752128666
738534.46553188574034720659,-2.90803247169408,0,-299.074983977782
738534.46553197619505226612,-2.89880062257759,-0.0184636982329783,-299.047288430433
738534.46553206664975732565,-2.90803247169408,0.00923184911648915,-299.074983977782
738534.46553215710446238518,-2.90803247169408,-0.00923184911648915,-299.001129184851
738534.46553224755916744471,-2.91726432081057,-0.0184636982329783,-298.973433637501
738534.46553233801387250423,-2.92649616992706,-0.0184636982329783,-298.927274391919
738534.46553242846857756376,-2.92649616992706,-0.0276955473494674,-298.954969939268
738534.46553251880686730146,-2.92649616992706,-0.00923184911648915,-299.019592883084
738534.46553260926157236099,-2.93572801904355,-0.00923184911648915,-299.038056581317
738534.46553269971627742052,-2.94495986816004,-0.0184636982329783,-299.047288430433
738534.46553279017098248005,-2.93572801904355,-0.0461592455824458,-299.084215826899
738534.46553288062568753958,-2.95419171727653,0,-299.084215826899
738534.46553297108039259911,-2.93572801904355,-0.0184636982329783,-299.093447676016
738534.46553306141868233681,-2.95419171727653,-0.0184636982329783,-299.001129184851
738534.46553315187338739634,-2.95419171727653,-0.0369273964659566,-299.047288430433
738534.46553324232809245586,-2.93572801904355,-0.0276955473494674,-299.093447676016
738534.46553333278279751539,-2.89880062257759,-0.0184636982329783,-299.102679525132
738534.46553342323750257492,-2.88033692434461,-0.00923184911648915,-299.019592883084
738534.46553351369220763445,-2.87110507522813,-0.0276955473494674,-299.001129184851
738534.46553360414691269398,-2.87110507522813,0.00923184911648915,-299.019592883084
738534.46553369448520243168,-2.84340952787866,0.0184636982329783,-299.010361033967
738534.46553378493990749121,-2.81571398052919,-0.00923184911648915,-299.019592883084
738534.46553387539461255074,-2.82494582964568,0.00923184911648915,-299.084215826899
738534.46553396584931761026,-2.86187322611164,-0.0184636982329783,-299.084215826899
738534.46553405630402266979,-2.89880062257759,0.00923184911648915,-299.084215826899
738534.46553414675872772932,-2.90803247169408,-0.00923184911648915,-299.05652027955
738534.46553423721343278885,-2.92649616992706,-0.0461592455824458,-299.084215826899
738534.46553432755172252655,-2.96342356639302,-0.0461592455824458,-299.093447676016
738534.46553441800642758608,-2.99111911374248,-0.0461592455824458,-299.065752128666
738534.46553450846113264561,-2.99111911374248,-0.064622943815424,-299.084215826899
738534.46553459891583770514,-3.00958281197546,-0.0369273964659566,-299.111911374248
738534.46553468937054276466,-2.99111911374248,-0.0553910946989349,-299.0288247322
738534.46553477982524782419,-3.00035096285897,-0.0553910946989349,-299.065752128666
738534.46553487027995288372,-3.00035096285897,-0.0830866420484024,-299.0288247322
738534.46553496061824262142,-2.99111911374248,-0.0553910946989349,-299.010361033967
738534.46553505107294768095,-2.99111911374248,-0.0184636982329783,-299.038056581317
738534.46553514152765274048,-2.94495986816004,0.064622943815424,-299.074983977782
738534.46553523198235780001,-2.61261329996643,0.147709585863826,-299.065752128666
738534.46553532243706285954,-2.07716605121006,0.230796227912229,-298.918042542802
738534.46553541289176791906,-1.63403729361858,0.175405133213294,-298.982665486618
738534.46553550334647297859,-1.78174687948241,0.11078218939787,-298.964201788385
738534.46553559368476271629,-2.52952665791803,-0.286187322611164,-299.065752128666
738534.46553568413946777582,-2.86187322611164,-0.341578417310099,-299.139606921598
738534.46553577459417283535,-2.95419171727653,-0.129245887630848,-299.121143223365
738534.46553586504887789488,-2.93572801904355,-0.064622943815424,-298.982665486618
738534.46553595550358295441,-2.95419171727653,-0.00923184911648915,-298.973433637501
738534.46553604595828801394,-2.95419171727653,-0.0184636982329783,-299.084215826899
738534.46553613641299307346,-2.97265541550951,-0.0276955473494674,-299.093447676016
738534.46553622675128281116,-2.97265541550951,-0.0461592455824458,-299.038056581317
738534.46553631720598787069,-2.96342356639302,0.0276955473494674,-299.093447676016
738534.46553640766069293022,-2.95419171727653,0.00923184911648915,-299.065752128666
738534.46553649811539798975,-2.97265541550951,0,-299.102679525132
738534.46553658857010304928,-2.95419171727653,0.0184636982329783,-299.019592883084
738534.46553667902480810881,-2.95419171727653,0.0369273964659566,-299.0288247322
738534.46553676947951316833,-2.95419171727653,0.0553910946989349,-299.010361033967
738534.46553685981780290604,-2.93572801904355,0.0369273964659566,-299.093447676016
738534.46553695027250796556,-2.93572801904355,0.0276955473494674,-299.001129184851
738534.46553704072721302509,-2.90803247169408,0.0184636982329783,-299.001129184851
738534.46553713118191808462,-2.89880062257759,0.101550340281381,-299.05652027955
738534.46553722163662314415,-2.87110507522813,0.101550340281381,-298.982665486618
738534.46553731209132820368,-2.87110507522813,0.11078218939787,-299.010361033967
738534.46553740242961794138,-2.83417767876217,0.138477736747337,-299.019592883084
738534.46553749288432300091,-2.81571398052919,0.156941434980316,-299.065752128666
738534.46553758333902806044,-2.78801843317972,0.184636982329783,-299.065752128666
738534.46553767379373311996,-2.76032288583026,0.21233252967925,-299.047288430433
738534.46553776424843817949,-2.7233954893643,0.203100680562761,-299.010361033967
738534.46553785470314323902,-2.70493179113132,0.258491775261696,-299.047288430433
738534.46553794515784829855,-2.65877254554888,0.295419171727653,-299.047288430433
738534.46553803549613803625,-2.65877254554888,0.32311471907712,-298.973433637501
738534.46553812595084309578,-2.6403088473159,0.32311471907712,-299.001129184851
738534.46553821640554815531,-2.63107699819941,0.341578417310099,-299.019592883084
738534.46553830686025321484,-2.63107699819941,0.332346568193609,-298.927274391919
738534.46553839731495827436,-2.63107699819941,0.295419171727653,-298.936506241035
738534.46553848776966333389,-2.65877254554888,0.249259926145207,-298.945738090152
738534.46553857822436839342,-2.67723624378185,0.21233252967925,-298.954969939268
738534.46553866856265813112,-2.73262733848079,0.147709585863826,-298.954969939268
738534.46553875901736319065,-2.76955473494675,0.101550340281381,-298.982665486618
738534.46553884947206825018,-2.82494582964568,0.0738547929319132,-299.038056581317
738534.46553893992677330971,-2.84340952787866,0.0369273964659566,-299.010361033967
738534.46553903038147836924,-2.8895687734611,0.0276955473494674,-299.05652027955
738534.46553912083618342876,-2.90803247169408,0,-299.074983977782
738534.46553921129088848829,-2.91726432081057,0,-299.065752128666
738534.46553930162917822599,-2.92649616992706,0,-299.047288430433
738534.46553939208388328552,-2.92649616992706,0,-298.982665486618
738534.46553948253858834505,-2.91726432081057,-0.0369273964659566,-298.991897335734
738534.46553957299329340458,-2.90803247169408,-0.00923184911648915,-299.093447676016
738534.46553966344799846411,-2.91726432081057,-0.0276955473494674,-299.084215826899
738534.46553975390270352364,-2.89880062257759,-0.00923184911648915,-299.093447676016
738534.46553984435740858316,-2.90803247169408,0.00923184911648915,-299.084215826899
738534.46553993469569832087,-2.90803247169408,-0.0184636982329783,-298.964201788385
738534.46554002515040338039,-2.91726432081057,-0.0276955473494674,-299.065752128666
738534.46554011560510843992,-2.90803247169408,-0.00923184911648915,-299.093447676016
738534.46554020605981349945,-2.92649616992706,0,-299.065752128666
738534.46554029651451855898,-2.91726432081057,-0.00923184911648915,-299.047288430433
738534.46554038696922361851,-2.92649616992706,-0.0553910946989349,-299.065752128666
738534.46554047742392867804,-2.91726432081057,-0.0923184911648915,-299.111911374248
738534.46554056776221841574,-2.92649616992706,0,-299.038056581317
738534.46554065821692347527,-2.93572801904355,0.0276955473494674,-299.05652027955
738534.46554074867162853479,-2.94495986816004,-0.00923184911648915,-299.111911374248
738534.46554083912633359432,-2.94495986816004,-0.0369273964659566,-299.102679525132
738534.46554092958103865385,-2.93572801904355,-0.0184636982329783,-299.05652027955
738534.46554102003574371338,-2.95419171727653,-0.0276955473494674,-299.121143223365
738534.46554111049044877291,-2.95419171727653,-0.0461592455824458,-299.047288430433
738534.46554120082873851061,-2.96342356639302,-0.0369273964659566,-299.001129184851
738534.46554129128344357014,-2.95419171727653,-0.0276955473494674,-299.0288247322
738534.46554138173814862967,-2.96342356639302,-0.0461592455824458,-299.047288430433
738534.46554147219285368919,-2.97265541550951,-0.0369273964659566,-299.05652027955
738534.46554156264755874872,-2.981887264626,-0.0276955473494674,-299.010361033967
738534.46554165310226380825,-2.97265541550951,-0.0461592455824458,-299.084215826899
738534.46554174344055354595,-2.99111911374248,-0.0276955473494674,-299.074983977782
738534.46554183389525860548,-2.97265541550951,-0.0461592455824458,-299.102679525132
738534.46554192434996366501,-2.96342356639302,-0.064622943815424,-299.084215826899
738534.46554201480466872454,-2.91726432081057,-0.0369273964659566,-299.139606921598
738534.46554210525937378407,-2.89880062257759,0.00923184911648915,-299.121143223365
738534.46554219571407884359,-2.89880062257759,0,-299.065752128666
738534.46554228616878390312,-2.90803247169408,-0.0184636982329783,-299.074983977782
738534.46554237650707364082,-2.88033692434461,-0.0276955473494674,-299.130375072481
738534.46554246696177870035,-2.85264137699515,-0.0184636982329783,-299.139606921598
738534.46554255741648375988,-2.87110507522813,0.00923184911648915,-299.05652027955
738534.46554264787118881941,-2.8895687734611,0.00923184911648915,-299.121143223365
738534.46554273832589387894,-2.92649616992706,-0.0276955473494674,-299.111911374248
738534.46554282878059893847,-2.94495986816004,-0.0276955473494674,-299.0288247322
738534.46554291923530399799,-2.96342356639302,-0.0276955473494674,-298.982665486618
738534.46554300957359373569,-2.981887264626,-0.0461592455824458,-298.973433637501
738534.46554310002829879522,-3.01881466109195,-0.0738547929319132,-299.047288430433
738534.46554319048300385475,-3.01881466109195,-0.0738547929319132,-299.074983977782
738534.46554328093770891428,-3.03727835932493,-0.064622943815424,-299.074983977782
738534.46554337139241397381,-3.02804651020844,-0.0553910946989349,-299.010361033967
738534.46554346184711903334,-3.04651020844142,-0.0553910946989349,-299.0288247322
738534.46554355230182409286,-3.01881466109195,-0.0738547929319132,-299.0288247322
738534.46554364264011383057,-3.02804651020844,-0.0553910946989349,-299.047288430433
738534.46554373309481889009,-3.02804651020844,-0.0184636982329783,-299.0288247322
738534.46554382354952394962,-2.87110507522813,0.0738547929319132,-299.0288247322
738534.46554391400422900915,-2.40951261940367,0.175405133213294,-298.964201788385
738534.46554400445893406868,-1.8740653706473,0.166173284096805,-298.927274391919
738534.46554409491363912821,-1.64326914273507,0.156941434980316,-298.927274391919
738534.46554418536834418774,-1.81867427594836,0.11078218939787,-298.890346995453
738534.46554427570663392544,-2.55722220526749,-0.295419171727653,-299.001129184851
738534.46554436616133898497,-2.88033692434461,-0.360042115543077,-299.05652027955
738534.46554445661604404449,-2.99111911374248,-0.138477736747337,-299.0288247322
738534.46554454707074910402,-2.981887264626,-0.0738547929319132,-299.001129184851
738534.46554463752545416355,-2.981887264626,-0.0369273964659566,-299.0288247322
738534.46554472798015922308,-2.97265541550951,-0.0369273964659566,-299.019592883084
738534.46554481843486428261,-3.00035096285897,-0.0276955473494674,-299.038056581317
738534.46554490877315402031,-2.981887264626,-0.0184636982329783,-299.019592883084
738534.46554499922785907984,-3.00035096285897,-0.00923184911648915,-299.0288247322
738534.46554508968256413937,-2.981887264626,-0.0276955473494674,-299.084215826899
738534.46554518013726919889,-2.99111911374248,0.0184636982329783,-299.111911374248
738534.46554527059197425842,-2.981887264626,0.0276955473494674,-299.0288247322
738534.46554536104667931795,-2.981887264626,0.0276955473494674,-299.074983977782
738534.46554545150138437748,-2.97265541550951,0.0184636982329783,-299.102679525132
738534.46554554183967411518,-2.94495986816004,0.0461592455824458,-299.05652027955
738534.46554563229437917471,-2.94495986816004,0.0369273964659566,-299.001129184851
738534.46554572274908423424,-2.92649616992706,0.0461592455824458,-299.093447676016
738534.46554581320378929377,-2.90803247169408,0.0830866420484024,-299.111911374248
738534.46554590365849435329,-2.88033692434461,0.0923184911648915,-299.038056581317
738534.46554599411319941282,-2.88033692434461,0.101550340281381,-299.010361033967
738534.46554608445148915052,-2.85264137699515,0.120014038514359,-299.084215826899
738534.46554617490619421005,-2.83417767876217,0.138477736747337,-299.093447676016
738534.46554626536089926958,-2.78801843317972,0.184636982329783,-299.0288247322
738534.46554635581560432911,-2.76955473494675,0.203100680562761,-299.047288430433
738534.46554644627030938864,-2.74185918759728,0.22156437879574,-299.010361033967
738534.46554653672501444817,-2.71416364024781,0.258491775261696,-298.936506241035
738534.46554662717971950769,-2.69569994201483,0.295419171727653,-299.001129184851
738534.46554671751800924540,-2.66800439466536,0.332346568193609,-299.0288247322
738534.46554680797271430492,-2.65877254554888,0.341578417310099,-299.047288430433
738534.46554689842741936445,-2.6403088473159,0.332346568193609,-299.001129184851
738534.46554698888212442398,-2.6403088473159,0.313882869960631,-299.019592883084
738534.46554707933682948351,-2.64954069643239,0.286187322611164,-299.065752128666
738534.46554716979153454304,-2.67723624378185,0.230796227912229,-299.05652027955
738534.46554726024623960257,-2.70493179113132,0.184636982329783,-299.019592883084
738534.46554735058452934027,-2.76032288583026,0.129245887630848,-299.074983977782
738534.46554744103923439980,-2.79725028229621,0.0738547929319132,-299.074983977782
738534.46554753149393945932,-2.84340952787866,0.064622943815424,-299.047288430433
738534.46554762194864451885,-2.88033692434461,0.0184636982329783,-299.102679525132
738534.46554771240334957838,-2.90803247169408,0.00923184911648915,-299.093447676016
738534.46554780285805463791,-2.91726432081057,-0.00923184911648915,-299.038056581317
738534.46554789331275969744,-2.92649616992706,-0.00923184911648915,-299.074983977782
738534.46554798365104943514,-2.93572801904355,-0.0184636982329783,-299.084215826899
738534.46554807410575449467,-2.92649616992706,0,-299.074983977782
738534.46554816456045955420,-2.93572801904355,-0.0369273964659566,-299.05652027955
738534.46554825501516461372,-2.93572801904355,-0.0276955473494674,-299.084215826899
738534.46554834546986967325,-2.92649616992706,0.00923184911648915,-299.074983977782
738534.46554843592457473278,-2.91726432081057,-0.0184636982329783,-299.019592883084
738534.46554852637927979231,-2.93572801904355,-0.0369273964659566,-299.084215826899
738534.46554861671756953001,-2.91726432081057,0,-299.074983977782
738534.46554870717227458954,-2.93572801904355,-0.0184636982329783,-299.038056581317
738534.46554879762697964907,-2.91726432081057,-0.0184636982329783,-299.084215826899
738534.46554888808168470860,-2.93572801904355,-0.0184636982329783,-299.074983977782
738534.46554897853638976812,-2.92649616992706,-0.0369273964659566,-299.074983977782
738534.46554906899109482765,-2.93572801904355,-0.00923184911648915,-299.05652027955
738534.46554915944579988718,-2.93572801904355,-0.0184636982329783,-299.074983977782
738534.46554924978408962488,-2.95419171727653,0.00923184911648915,-299.047288430433
738534.46554934023879468441,-2.94495986816004,-0.0369273964659566,-298.982665486618
738534.46554943069349974394,-2.96342356639302,-0.00923184911648915,-298.991897335734
738534.46554952114820480347,-2.96342356639302,-0.0461592455824458,-298.991897335734
738534.46554961160290986300,-2.97265541550951,-0.00923184911648915,-299.010361033967
738534.46554970205761492252,-2.96342356639302,-0.0461592455824458,-298.991897335734
738534.46554979251231998205,-2.95419171727653,-0.0369273964659566,-299.010361033967
738534.46554988285060971975,-2.97265541550951,0,-299.047288430433
738534.46554997330531477928,-2.97265541550951,0,-299.0288247322
738534.46555006376001983881,-2.99111911374248,-0.0461592455824458,-298.936506241035
738534.46555015421472489834,-2.981887264626,-0.064622943815424,-299.05652027955
738534.46555024466942995787,-2.99111911374248,-0.0369273964659566,-299.093447676016
738534.46555033512413501740,-2.981887264626,-0.00923184911648915,-299.102679525132
738534.46555042546242475510,-2.99111911374248,-0.00923184911648915,-299.093447676016
738534.46555051591712981462,-2.981887264626,-0.064622943815424,-299.093447676016
738534.46555060637183487415,-2.99111911374248,-0.0461592455824458,-299.111911374248
738534.46555069682653993368,-2.981887264626,-0.0369273964659566,-299.158070619831
738534.46555078728124499321,-2.99111911374248,-0.0184636982329783,-299.084215826899
738534.46555087773595005274,-2.981887264626,-0.0553910946989349,-299.139606921598
738534.46555096819065511227,-2.981887264626,-0.0553910946989349,-299.121143223365
738534.46555105852894484997,-2.95419171727653,-0.0276955473494674,-299.074983977782
738534.46555114898364990950,-2.91726432081057,0.00923184911648915,-299.111911374248
738534.46555123943835496902,-2.91726432081057,-0.00923184911648915,-299.139606921598
738534.46555132989306002855,-2.91726432081057,0,-299.05652027955
738534.46555142034776508808,-2.89880062257759,-0.00923184911648915,-299.093447676016
738534.46555151080247014761,-2.87110507522813,0.00923184911648915,-299.084215826899
738534.46555160125717520714,-2.88033692434461,0,-299.084215826899
738534.46555169159546494484,-2.87110507522813,-0.0184636982329783,-299.047288430433
738534.46555178205017000437,-2.92649616992706,0,-299.084215826899
738534.46555187250487506390,-2.93572801904355,-0.00923184911648915,-299.010361033967
738534.46555196295958012342,-2.96342356639302,-0.00923184911648915,-299.019592883084
738534.46555205341428518295,-2.981887264626,-0.0553910946989349,-299.065752128666
738534.46555214386899024248,-3.01881466109195,-0.0830866420484024,-299.084215826899
738534.46555223432369530201,-3.01881466109195,-0.0553910946989349,-299.05652027955
738534.46555232466198503971,-3.02804651020844,-0.0553910946989349,-299.05652027955
738534.46555241511669009924,-3.03727835932493,-0.0553910946989349,-299.093447676016
738534.46555250557139515877,-3.03727835932493,-0.0276955473494674,-299.0288247322
738534.46555259602610021830,-3.03727835932493,-0.0461592455824458,-299.038056581317
738534.46555268648080527782,-3.02804651020844,-0.0461592455824458,-299.047288430433
738534.46555277693551033735,-3.04651020844142,-0.064622943815424,-299.038056581317
738534.46555286739021539688,-3.00958281197546,-0.00923184911648915,-299.084215826899
738534.46555295772850513458,-2.71416364024781,0.120014038514359,-298.973433637501
738534.46555304818321019411,-2.18794824060793,0.230796227912229,-298.927274391919
738534.46555313863791525364,-1.73558763389996,0.156941434980316,-298.918042542802
738534.46555322909262031317,-1.77251503036592,0.138477736747337,-298.918042542802
738534.46555331954732537270,-2.51106295968505,-0.21233252967925,-299.0288247322
738534.46555341000203043222,-2.84340952787866,-0.341578417310099,-299.130375072481
738534.46555350045673549175,-2.93572801904355,-0.286187322611164,-299.093447676016
738534.46555359079502522945,-2.981887264626,-0.156941434980316,-298.982665486618
738534.46555368124973028898,-2.99111911374248,-0.0369273964659566,-299.102679525132
738534.46555377170443534851,-2.99111911374248,-0.0369273964659566,-299.130375072481
738534.46555386215914040804,-3.00958281197546,-0.0461592455824458,-299.148838770714
738534.46555395261384546757,-3.00958281197546,-0.0184636982329783,-299.065752128666
738534.46555404306855052710,-2.99111911374248,0.0184636982329783,-299.139606921598
738534.46555413352325558662,-3.00035096285897,-0.0184636982329783,-299.130375072481
738534.46555422386154532433,-2.981887264626,0,-299.05652027955
738534.46555431431625038385,-3.00958281197546,0.00923184911648915,-299.111911374248
738534.46555440477095544338,-2.981887264626,0.0184636982329783,-299.139606921598
738534.46555449522566050291,-2.981887264626,0.0184636982329783,-299.065752128666
738534.46555458568036556244,-2.96342356639302,0.00923184911648915,-299.102679525132
738534.46555467613507062197,-2.95419171727653,0.0553910946989349,-299.121143223365
738534.46555476647336035967,-2.93572801904355,0.0738547929319132,-299.093447676016
738534.46555485692806541920,-2.93572801904355,0.0738547929319132,-299.093447676016
738534.46555494738277047873,-2.89880062257759,0.0738547929319132,-299.111911374248
738534.46555503783747553825,-2.8895687734611,0.0923184911648915,-299.084215826899
738534.46555512829218059778,-2.85264137699515,0.11078218939787,-299.038056581317
738534.46555521874688565731,-2.84340952787866,0.147709585863826,-299.084215826899
738534.46555530920159071684,-2.8064821314127,0.166173284096805,-299.084215826899
738534.46555539953988045454,-2.78801843317972,0.184636982329783,-299.093447676016
738534.46555548999458551407,-2.76955473494675,0.22156437879574,-299.074983977782
738534.46555558044929057360,-2.73262733848079,0.258491775261696,-299.05652027955
738534.46555567090399563313,-2.71416364024781,0.267723624378185,-299.093447676016
738534.46555576135870069265,-2.68646809289834,0.286187322611164,-299.038056581317
738534.46555585181340575218,-2.67723624378185,0.313882869960631,-299.0288247322
738534.46555594226811081171,-2.65877254554888,0.313882869960631,-299.074983977782
738534.46555603260640054941,-2.65877254554888,0.350810266426588,-299.074983977782
738534.46555612306110560894,-2.6403088473159,0.313882869960631,-298.991897335734
738534.46555621351581066847,-2.66800439466536,0.304651020844142,-299.05652027955
738534.46555630397051572800,-2.69569994201483,0.21233252967925,-299.074983977782
738534.46555639442522078753,-2.74185918759728,0.175405133213294,-299.019592883084
738534.46555648487992584705,-2.78801843317972,0.101550340281381,-299.084215826899
738534.46555657533463090658,-2.84340952787866,0.0553910946989349,-299.139606921598
738534.46555666567292064428,-2.87110507522813,0.0369273964659566,-299.0288247322
738534.46555675612762570381,-2.90803247169408,0.0369273964659566,-299.038056581317
738534.46555684658233076334,-2.92649616992706,0.00923184911648915,-299.065752128666
738534.46555693703703582287,-2.93572801904355,0.00923184911648915,-299.065752128666
738534.46555702749174088240,-2.95419171727653,-0.0184636982329783,-298.890346995453
738534.46555711794644594193,-2.95419171727653,-0.0369273964659566,-299.019592883084
738534.46555720840115100145,-2.95419171727653,-0.0369273964659566,-299.038056581317
738534.46555729873944073915,-2.94495986816004,-0.00923184911648915,-299.047288430433
738534.46555738919414579868,-2.94495986816004,0.00923184911648915,-299.102679525132
738534.46555747964885085821,-2.93572801904355,-0.00923184911648915,-299.084215826899
738534.46555757010355591774,-2.94495986816004,0,-299.038056581317
738534.46555766055826097727,-2.92649616992706,-0.0184636982329783,-299.047288430433
738534.46555775101296603680,-2.93572801904355,-0.0184636982329783,-299.084215826899
738534.46555784146767109632,-2.93572801904355,-0.0184636982329783,-299.05652027955
738534.46555793180596083403,-2.94495986816004,-0.00923184911648915,-299.111911374248
738534.46555802226066589355,-2.92649616992706,-0.0276955473494674,-299.093447676016
738534.46555811271537095308,-2.94495986816004,-0.0184636982329783,-299.065752128666
738534.46555820317007601261,-2.94495986816004,0,-299.065752128666
738534.46555829362478107214,-2.93572801904355,0,-299.102679525132
738534.46555838407948613167,-2.94495986816004,-0.00923184911648915,-299.093447676016
738534.46555847453419119120,-2.95419171727653,-0.0276955473494674,-299.084215826899
738534.46555856487248092890,-2.95419171727653,-0.0276955473494674,-299.139606921598
738534.46555865532718598843,-2.94495986816004,0.00923184911648915,-299.102679525132
738534.46555874578189104795,-2.97265541550951,-0.0184636982329783,-299.111911374248
738534.46555883623659610748,-2.97265541550951,-0.0276955473494674,-299.130375072481
738534.46555892669130116701,-2.97265541550951,-0.0184636982329783,-299.130375072481
738534.46555901714600622654,-2.97265541550951,-0.0461592455824458,-299.139606921598
738534.46555910748429596424,-2.99111911374248,-0.00923184911648915,-299.130375072481
738534.46555919793900102377,-2.981887264626,-0.00923184911648915,-299.139606921598
738534.46555928839370608330,-2.981887264626,-0.0369273964659566,-299.139606921598
738534.46555937884841114283,-2.981887264626,-0.0553910946989349,-299.130375072481
738534.46555946930311620235,-2.99111911374248,-0.0369273964659566,-299.139606921598
738534.46555955975782126188,-2.981887264626,-0.0276955473494674,-299.121143223365
738534.46555965021252632141,-2.99111911374248,-0.0461592455824458,-299.158070619831
738534.46555974055081605911,-2.99111911374248,-0.0276955473494674,-299.148838770714
738534.46555983100552111864,-2.99111911374248,-0.0461592455824458,-299.176534318064
738534.46555992146022617817,-2.981887264626,-0.0276955473494674,-299.093447676016
738534.46556001191493123770,-2.99111911374248,-0.0276955473494674,-299.121143223365
738534.46556010236963629723,-2.99111911374248,-0.0369273964659566,-299.158070619831
738534.46556019282434135675,-2.981887264626,-0.064622943815424,-299.065752128666
738534.46556028327904641628,-3.00035096285897,-0.0369273964659566,-299.139606921598
738534.46556037361733615398,-2.981887264626,-0.0461592455824458,-299.167302468947
738534.46556046407204121351,-2.99111911374248,-0.00923184911648915,-299.102679525132
738534.46556055452674627304,-2.99111911374248,-0.0369273964659566,-298.973433637501
738534.46556064498145133257,-3.00035096285897,-0.0184636982329783,-299.074983977782
738534.46556073543615639210,-2.97265541550951,-0.0369273964659566,-299.093447676016
738534.46556082589086145163,-2.95419171727653,-0.0276955473494674,-299.111911374248
738534.46556091634556651115,-2.91726432081057,-0.0553910946989349,-299.093447676016
738534.46556100668385624886,-2.91726432081057,-0.0276955473494674,-299.05652027955
738534.46556109713856130838,-2.91726432081057,0.0369273964659566,-299.093447676016
738534.46556118759326636791,-2.88033692434461,0.0184636982329783,-299.139606921598
738534.46556127804797142744,-2.87110507522813,0.00923184911648915,-299.176534318064
738534.46556136850267648697,-2.86187322611164,0.00923184911648915,-299.158070619831
738534.46556145895738154650,-2.90803247169408,-0.0184636982329783,-299.102679525132
738534.46556154941208660603,-2.92649616992706,-0.0184636982329783,-299.074983977782
738534.46556163975037634373,-2.95419171727653,0,-299.084215826899
738534.46556173020508140326,-2.95419171727653,-0.00923184911648915,-299.093447676016
738534.46556182065978646278,-2.99111911374248,-0.0184636982329783,-299.111911374248
738534.46556191111449152231,-3.00958281197546,-0.0369273964659566,-299.093447676016
738534.46556200156919658184,-3.01881466109195,-0.0276955473494674,-299.102679525132
738534.46556209202390164137,-3.01881466109195,-0.0461592455824458,-299.05652027955
738534.46556218247860670090,-3.02804651020844,-0.0369273964659566,-299.05652027955
738534.46556227281689643860,-3.02804651020844,-0.064622943815424,-299.093447676016
738534.46556236327160149813,-3.02804651020844,-0.0830866420484024,-299.084215826899
738534.46556245372630655766,-3.01881466109195,-0.0553910946989349,-299.093447676016
738534.46556254418101161718,-3.02804651020844,-0.0276955473494674,-299.074983977782
738534.46556263463571667671,-2.88033692434461,0.0276955473494674,-299.084215826899
738534.46556272509042173624,-2.4649037141026,0.21233252967925,-299.010361033967
738534.46556281542871147394,-2.18794824060793,0.240028077028718,-299.019592883084
738534.46556290588341653347,-1.64326914273507,0.184636982329783,-299.05652027955
738534.46556299633812159300,-1.65250099185156,0.184636982329783,-299.065752128666
738534.46556308679282665253,-2.2987304300058,-0.129245887630848,-299.065752128666
738534.46556317724753171206,-2.60338145084994,-0.267723624378185,-299.204229865413
738534.46556326770223677158,-2.66800439466536,-0.120014038514359,-299.204229865413
738534.46556335815694183111,-2.65877254554888,-0.0738547929319132,-299.194998016297
738534.46556344849523156881,-2.65877254554888,-0.0830866420484024,-299.167302468947
738534.46556353894993662834,-2.65877254554888,-0.00923184911648915,-299.194998016297
738534.46556362940464168787,-2.65877254554888,0.0276955473494674,-299.158070619831
738534.46556371985934674740,-2.6403088473159,0.0276955473494674,-299.111911374248
738534.46556381031405180693,-2.65877254554888,0,-299.167302468947
738534.46556390076875686646,-2.68646809289834,0.0276955473494674,-299.204229865413
738534.46556399122346192598,-2.64954069643239,0.0738547929319132,-299.074983977782
738534.46556408156175166368,-2.6403088473159,0.120014038514359,-299.001129184851
738534.46556417201645672321,-2.62184514908292,0.064622943815424,-299.084215826899
738534.46556426247116178274,-2.64954069643239,0.0184636982329783,-299.148838770714
738534.46556435292586684227,-2.59414960173345,0.0738547929319132,-299.18576616718
738534.46556444338057190180,-2.57568590350047,0.0738547929319132,-299.194998016297
738534.46556453383527696133,-2.57568590350047,0.0461592455824458,-299.167302468947
738534.46556462428998202085,-2.56645405438398,0.0738547929319132,-299.093447676016
738534.46556471462827175856,-2.56645405438398,0.120014038514359,-299.130375072481
738534.46556480508297681808,-2.52952665791803,0.129245887630848,-299.167302468947
738534.46556489553768187761,-2.51106295968505,0.129245887630848,-299.139606921598
738534.46556498599238693714,-2.4649037141026,0.101550340281381,-299.102679525132
738534.46556507644709199667,-2.45567186498611,0.138477736747337,-299.176534318064
738534.46556516690179705620,-2.41874446852016,0.184636982329783,-299.074983977782
738534.46556525735650211573,-2.42797631763665,0.249259926145207,-299.065752128666
738534.46556534769479185343,-2.40028077028718,0.258491775261696,-299.074983977782
738534.46556543814949691296,-2.40951261940367,0.32311471907712,-299.065752128666
738534.46556552860420197248,-2.40028077028718,0.360042115543077,-299.065752128666
738534.46556561905890703201,-2.40951261940367,0.387737662892544,-299.065752128666
738534.46556570951361209154,-2.44644001586962,0.369273964659566,-298.991897335734
738534.46556579996831715107,-2.45567186498611,0.341578417310099,-298.982665486618
738534.46556589042302221060,-2.50183111056856,0.332346568193609,-298.991897335734
738534.46556598076131194830,-2.53875850703452,0.295419171727653,-298.991897335734
738534.46556607121601700783,-2.61261329996643,0.22156437879574,-299.019592883084
738534.46556616167072206736,-2.66800439466536,0.156941434980316,-299.038056581317
738534.46556625212542712688,-2.74185918759728,0.129245887630848,-299.093447676016
738534.46556634258013218641,-2.79725028229621,0.0738547929319132,-299.093447676016
738534.46556643303483724594,-2.84340952787866,0.0461592455824458,-299.074983977782
738534.46556652348954230547,-2.86187322611164,0,-299.05652027955
738534.46556661382783204317,-2.88033692434461,0,-299.148838770714
738534.46556670428253710270,-2.90803247169408,-0.0184636982329783,-299.194998016297
738534.46556679473724216223,-2.90803247169408,-0.0276955473494674,-299.05652027955
738534.46556688519194722176,-2.92649616992706,-0.064622943815424,-299.084215826899
738534.46556697564665228128,-2.91726432081057,-0.00923184911648915,-299.121143223365
738534.46556706610135734081,-2.92649616992706,0.00923184911648915,-299.139606921598
738534.46556715643964707851,-2.92649616992706,-0.0184636982329783,-299.111911374248
738534.46556724689435213804,-2.93572801904355,-0.0184636982329783,-299.139606921598
738534.46556733734905719757,-2.93572801904355,-0.0276955473494674,-299.139606921598
738534.46556742780376225710,-2.94495986816004,-0.0184636982329783,-299.139606921598
738534.46556751825846731663,-2.92649616992706,-0.0461592455824458,-299.084215826899
738534.46556760871317237616,-2.94495986816004,-0.0276955473494674,-299.0288247322
738534.46556769916787743568,-2.92649616992706,0,-299.084215826899
738534.46556778950616717339,-2.93572801904355,0.00923184911648915,-299.111911374248
738534.46556787996087223291,-2.93572801904355,-0.0184636982329783,-299.130375072481
738534.46556797041557729244,-2.94495986816004,-0.0184636982329783,-299.139606921598
738534.46556806087028235197,-2.93572801904355,-0.0184636982329783,-299.167302468947
738534.46556815132498741150,-2.95419171727653,-0.00923184911648915,-299.148838770714
738534.46556824177969247103,-2.95419171727653,-0.0369273964659566,-299.158070619831
738534.46556833223439753056,-2.95419171727653,0,-299.148838770714
738534.46556842257268726826,-2.95419171727653,-0.0184636982329783,-299.084215826899
738534.46556851302739232779,-2.96342356639302,-0.00923184911648915,-299.158070619831
738534.46556860348209738731,-2.981887264626,-0.00923184911648915,-299.148838770714
738534.46556869393680244684,-2.97265541550951,-0.0461592455824458,-299.148838770714
738534.46556878439150750637,-3.00958281197546,-0.0461592455824458,-299.148838770714
738534.46556887484621256590,-2.981887264626,-0.0461592455824458,-299.194998016297
738534.46556896530091762543,-3.00035096285897,-0.0276955473494674,-299.176534318064
738534.46556905563920736313,-2.981887264626,-0.0553910946989349,-299.148838770714
738534.46556914609391242266,-3.00035096285897,-0.0276955473494674,-299.158070619831
738534.46556923654861748219,-2.99111911374248,-0.0369273964659566,-299.148838770714
738534.46556932700332254171,-3.00035096285897,-0.0184636982329783,-299.074983977782
738534.46556941745802760124,-3.00035096285897,-0.064622943815424,-299.148838770714
738534.46556950791273266077,-3.01881466109195,-0.064622943815424,-299.158070619831
738534.46556959836743772030,-3.00035096285897,-0.064622943815424,-299.121143223365
738534.46556968870572745800,-3.01881466109195,-0.0461592455824458,-299.139606921598
738534.46556977916043251753,-3.00958281197546,-0.064622943815424,-299.167302468947
738534.46556986961513757706,-3.00958281197546,-0.00923184911648915,-299.065752128666
738534.46556996006984263659,-3.00035096285897,-0.0461592455824458,-299.047288430433
738534.46557005052454769611,-3.00958281197546,-0.0276955473494674,-299.047288430433
738534.46557014097925275564,-3.00958281197546,-0.0553910946989349,-299.05652027955
738534.46557023143395781517,-3.00958281197546,-0.0369273964659566,-299.065752128666
738534.46557032177224755287,-3.01881466109195,-0.0276955473494674,-299.019592883084
738534.46557041222695261240,-3.00035096285897,-0.0461592455824458,-299.074983977782
738534.46557050268165767193,-3.01881466109195,-0.0553910946989349,-299.102679525132
738534.46557059313636273146,-3.00035096285897,-0.064622943815424,-299.121143223365
738534.46557068359106779099,-3.01881466109195,-0.00923184911648915,-299.093447676016
738534.46557077404577285051,-3.00958281197546,-0.0369273964659566,-299.130375072481
738534.46557086450047791004,-3.00958281197546,-0.00923184911648915,-299.111911374248
738534.46557095483876764774,-2.99111911374248,-0.0276955473494674,-299.111911374248
738534.46557104529347270727,-2.96342356639302,-0.0276955473494674,-299.121143223365
738534.46557113574817776680,-2.94495986816004,-0.0184636982329783,-299.05652027955
738534.46557122620288282633,-2.94495986816004,0.00923184911648915,-299.001129184851
738534.46557131665758788586,-2.91726432081057,0,-299.111911374248
738534.46557140711229294538,-2.89880062257759,-0.0184636982329783,-299.111911374248
738534.46557149745058268309,-2.88033692434461,0.00923184911648915,-299.148838770714
738534.46557158790528774261,-2.89880062257759,0.0369273964659566,-299.139606921598
738534.46557167835999280214,-2.93572801904355,0.0184636982329783,-299.130375072481
738534.46557176881469786167,-2.96342356639302,0.0184636982329783,-299.176534318064
738534.46557185926940292120,-2.981887264626,-0.00923184911648915,-299.167302468947
738534.46557194972410798073,-2.99111911374248,-0.0369273964659566,-299.148838770714
738534.46557204017881304026,-3.02804651020844,-0.0553910946989349,-299.139606921598
738534.46557213051710277796,-3.03727835932493,-0.11078218939787,-299.167302468947
738534.46557222097180783749,-3.05574205755791,-0.064622943815424,-299.158070619831
738534.46557231142651289701,-3.04651020844142,-0.00923184911648915,-299.139606921598
738534.46557240188121795654,-3.03727835932493,-0.0184636982329783,-299.139606921598
738534.46557249233592301607,-3.03727835932493,-0.0276955473494674,-299.18576616718
738534.46557258279062807560,-3.04651020844142,-0.0369273964659566,-299.18576616718
738534.46557267324533313513,-3.03727835932493,-0.0461592455824458,-299.121143223365
738534.46557276358362287283,-3.04651020844142,-0.00923184911648915,-299.148838770714
738534.46557285403832793236,-2.8895687734611,0.0369273964659566,-299.121143223365
738534.46557294449303299189,-2.43720816675314,0.22156437879574,-299.019592883084
738534.46557303494773805141,-1.93868831446272,0.249259926145207,-299.047288430433
738534.46557312540244311094,-1.76328318124943,0.193868831446272,-299.05652027955
738534.46557321585714817047,-2.34488967558824,-0.0276955473494674,-299.038056581317
738534.46557330631185323000,-2.78801843317972,-0.369273964659566,-299.148838770714
738534.46557339665014296770,-2.981887264626,-0.258491775261696,-299.121143223365
738534.46557348710484802723,-3.00035096285897,-0.120014038514359,-299.111911374248
738534.46557357755955308676,-3.00958281197546,-0.0738547929319132,-299.102679525132
738534.46557366801425814629,-3.00958281197546,-0.0830866420484024,-299.102679525132
738534.46557375846896320581,-3.00958281197546,0.0369273964659566,-299.084215826899
738534.46557384892366826534,-3.00035096285897,0.0184636982329783,-299.102679525132
738534.46557393937837332487,-3.01881466109195,0.0369273964659566,-299.065752128666
738534.46557402971666306257,-3.01881466109195,0.0276955473494674,-299.093447676016
738534.46557412017136812210,-3.00958281197546,0.0184636982329783,-299.093447676016
738534.46557421062607318163,-3.00958281197546,0.0369273964659566,-299.074983977782
738534.46557430108077824116,-2.99111911374248,0.0276955473494674,-299.084215826899
738534.46557439153548330069,-3.00035096285897,0,-299.111911374248
738534.46557448199018836021,-2.97265541550951,0.0461592455824458,-299.05652027955
738534.46557457244489341974,-2.981887264626,0.0830866420484024,-299.047288430433
738534.46557466278318315744,-2.94495986816004,0.0830866420484024,-298.973433637501
738534.46557475323788821697,-2.96342356639302,0.0923184911648915,-298.964201788385
738534.46557484369259327650,-2.91726432081057,0.101550340281381,-299.019592883084
738534.46557493414729833603,-2.92649616992706,0.0923184911648915,-299.047288430433
738534.46557502460200339556,-2.8895687734611,0.120014038514359,-299.093447676016
738534.46557511505670845509,-2.87110507522813,0.184636982329783,-299.0288247322
738534.46557520551141351461,-2.83417767876217,0.138477736747337,-299.102679525132
738534.46557529584970325232,-2.81571398052919,0.184636982329783,-299.05652027955
738534.46557538630440831184,-2.76955473494675,0.276955473494675,-299.019592883084
738534.46557547675911337137,-2.75109103671377,0.32311471907712,-299.010361033967
738534.46557556721381843090,-2.71416364024781,0.313882869960631,-299.05652027955
738534.46557565766852349043,-2.69569994201483,0.32311471907712,-299.065752128666
738534.46557574812322854996,-2.66800439466536,0.350810266426588,-299.074983977782
738534.46557583846151828766,-2.65877254554888,0.415433210242012,-299.074983977782
738534.46557592891622334719,-2.65877254554888,0.396969512009033,-299.084215826899
738534.46557601937092840672,-2.63107699819941,0.360042115543077,-299.019592883084
738534.46557610982563346624,-2.64954069643239,0.341578417310099,-299.093447676016
738534.46557620028033852577,-2.64954069643239,0.32311471907712,-299.111911374248
738534.46557629073504358530,-2.70493179113132,0.258491775261696,-299.121143223365
738534.46557638118974864483,-2.74185918759728,0.175405133213294,-299.084215826899
738534.46557647152803838253,-2.8064821314127,0.129245887630848,-299.111911374248
738534.46557656198274344206,-2.84340952787866,0.0553910946989349,-299.139606921598
738534.46557665243744850159,-2.89880062257759,0.0369273964659566,-299.158070619831
738534.46557674289215356112,-2.90803247169408,0.0369273964659566,-299.139606921598
738534.46557683334685862064,-2.94495986816004,0.0369273964659566,-299.148838770714
738534.46557692380156368017,-2.95419171727653,-0.0184636982329783,-299.139606921598
738534.46557701425626873970,-2.96342356639302,0.0184636982329783,-299.130375072481
738534.46557710459455847740,-2.96342356639302,0,-299.139606921598
738534.46557719504926353693,-2.96342356639302,-0.00923184911648915,-299.176534318064
738534.46557728550396859646,-2.96342356639302,-0.00923184911648915,-299.102679525132
738534.46557737595867365599,-2.97265541550951,-0.00923184911648915,-299.139606921598
738534.46557746641337871552,-2.95419171727653,0,-299.148838770714
738534.46557755686808377504,-2.95419171727653,0,-299.102679525132
738534.46557764732278883457,-2.95419171727653,-0.00923184911648915,-299.130375072481
738534.46557773766107857227,-2.94495986816004,-0.0184636982329783,-299.158070619831
738534.46557782811578363180,-2.95419171727653,0.00923184911648915,-299.176534318064
738534.46557791857048869133,-2.93572801904355,0,-299.111911374248
738534.46557800902519375086,-2.95419171727653,0.00923184911648915,-299.176534318064
738534.46557809947989881039,-2.92649616992706,0.00923184911648915,-299.148838770714
738534.46557818993460386992,-2.94495986816004,0.0184636982329783,-299.019592883084
738534.46557828038930892944,-2.93572801904355,-0.00923184911648915,-298.945738090152
738534.46557837072759866714,-2.95419171727653,0.00923184911648915,-299.019592883084
738534.46557846118230372667,-2.95419171727653,-0.0184636982329783,-299.05652027955
738534.46557855163700878620,-2.95419171727653,-0.00923184911648915,-299.065752128666
738534.46557864209171384573,-2.96342356639302,0.0276955473494674,-299.05652027955
738534.46557873254641890526,-2.96342356639302,0,-299.05652027955
738534.46557882300112396479,-2.96342356639302,0,-299.130375072481
738534.46557891345582902431,-2.97265541550951,-0.00923184911648915,-299.167302468947
738534.46557900379411876202,-2.97265541550951,-0.00923184911648915,-299.084215826899
738534.46557909424882382154,-2.981887264626,-0.0184636982329783,-299.130375072481
738534.46557918470352888107,-2.981887264626,-0.0184636982329783,-299.148838770714
738534.46557927515823394060,-2.981887264626,-0.0369273964659566,-299.158070619831
738534.46557936561293900013,-2.99111911374248,-0.0184636982329783,-299.130375072481
738534.46557945606764405966,-2.981887264626,0,-299.167302468947
738534.46557954652234911919,-2.99111911374248,-0.00923184911648915,-299.139606921598
738534.46557963686063885689,-2.981887264626,0,-299.084215826899
738534.46557972731534391642,-3.00035096285897,0,-299.130375072481
738534.46557981777004897594,-2.99111911374248,-0.0184636982329783,-299.158070619831
738534.46557990822475403547,-2.99111911374248,-0.0276955473494674,-299.148838770714
738534.46557999867945909500,-2.99111911374248,-0.0276955473494674,-299.111911374248
738534.46558008913416415453,-2.99111911374248,-0.00923184911648915,-299.167302468947
738534.46558017947245389223,-2.99111911374248,-0.0461592455824458,-299.158070619831
738534.46558026992715895176,-2.981887264626,0,-299.093447676016
738534.46558036038186401129,-2.981887264626,0.00923184911648915,-299.130375072481
738534.46558045083656907082,-2.99111911374248,-0.00923184911648915,-299.176534318064
738534.46558054129127413034,-3.00035096285897,-0.0184636982329783,-299.065752128666
738534.46558063174597918987,-2.99111911374248,-0.0276955473494674,-299.121143223365
738534.46558072220068424940,-2.99111911374248,-0.0276955473494674,-299.111911374248
738534.46558081253897398710,-2.981887264626,-0.0369273964659566,-299.074983977782
738534.46558090299367904663,-2.99111911374248,-0.0184636982329783,-299.130375072481
738534.46558099344838410616,-2.97265541550951,-0.0184636982329783,-299.121143223365
738534.46558108390308916569,-3.00035096285897,0.0184636982329783,-299.111911374248
738534.46558117435779422522,-2.981887264626,-0.00923184911648915,-299.102679525132
738534.46558126481249928474,-2.99111911374248,-0.0276955473494674,-299.139606921598
738534.46558135526720434427,-2.94495986816004,-0.0184636982329783,-299.139606921598
738534.46558144560549408197,-2.93572801904355,0,-299.102679525132
738534.46558153606019914150,-2.92649616992706,0,-299.139606921598
738534.46558162651490420103,-2.90803247169408,0,-299.148838770714
738534.46558171696960926056,-2.91726432081057,0.0276955473494674,-299.093447676016
738534.46558180742431432009,-2.86187322611164,0.00923184911648915,-299.019592883084
738534.46558189787901937962,-2.87110507522813,0.0184636982329783,-299.065752128666
738534.46558198833372443914,-2.87110507522813,0.0276955473494674,-299.093447676016
738534.46558207867201417685,-2.91726432081057,0.00923184911648915,-299.102679525132
738534.46558216912671923637,-2.92649616992706,0,-299.084215826899
738534.46558225958142429590,-2.96342356639302,0.0184636982329783,-299.093447676016
738534.46558235003612935543,-2.95419171727653,-0.0276955473494674,-299.093447676016
738534.46558244049083441496,-2.99111911374248,-0.0369273964659566,-299.074983977782
738534.46558253094553947449,-3.00035096285897,-0.0461592455824458,-299.139606921598
738534.46558262140024453402,-3.00958281197546,-0.0184636982329783,-299.05652027955
738534.46558271173853427172,-3.01881466109195,-0.0461592455824458,-299.111911374248
738534.46558280219323933125,-3.02804651020844,-0.0369273964659566,-299.148838770714
738534.46558289264794439077,-3.00958281197546,-0.0184636982329783,-299.001129184851
738534.46558298310264945030,-3.01881466109195,-0.0184636982329783,-299.0288247322
738534.46558307355735450983,-3.00958281197546,-0.064622943815424,-299.047288430433
738534.46558316401205956936,-3.00035096285897,0.0461592455824458,-299.0288247322
738534.46558325446676462889,-2.71416364024781,0.166173284096805,-299.047288430433
738534.46558334480505436659,-2.20641193884091,0.267723624378185,-299.010361033967
738534.46558343525975942612,-1.94792016357921,0.22156437879574,-298.973433637501
738534.46558352571446448565,-1.68019653920103,0.166173284096805,-299.010361033967
738534.46558361616916954517,-2.17871639149144,0.0276955473494674,-299.065752128666
738534.46558370662387460470,-2.71416364024781,-0.350810266426588,-299.176534318064
738534.46558379707857966423,-2.93572801904355,-0.276955473494675,-299.111911374248
738534.46558388753328472376,-2.96342356639302,-0.129245887630848,-299.074983977782
738534.46558397787157446146,-2.97265541550951,-0.0369273964659566,-299.074983977782
738534.46558406832627952099,-2.97265541550951,0,-299.139606921598
738534.46558415878098458052,-2.981887264626,0.00923184911648915,-299.139606921598
738534.46558424923568964005,-2.97265541550951,-0.00923184911648915,-299.102679525132
738534.46558433969039469957,-2.97265541550951,0.0184636982329783,-299.139606921598
738534.46558443014509975910,-2.97265541550951,-0.0184636982329783,-299.148838770714
738534.46558452048338949680,-2.97265541550951,0.0276955473494674,-299.111911374248
738534.46558461093809455633,-2.95419171727653,0.0553910946989349,-299.158070619831
738534.46558470139279961586,-2.95419171727653,0.0553910946989349,-299.139606921598
738534.46558479184750467539,-2.95419171727653,0.0553910946989349,-299.065752128666
738534.46558488230220973492,-2.93572801904355,0.064622943815424,-299.121143223365
738534.46558497275691479445,-2.92649616992706,0.0738547929319132,-299.121143223365
738534.46558506321161985397,-2.91726432081057,0.0553910946989349,-299.148838770714
738534.46558515354990959167,-2.90803247169408,0.0830866420484024,-299.102679525132
738534.46558524400461465120,-2.88033692434461,0.101550340281381,-299.074983977782
738534.46558533445931971073,-2.87110507522813,0.138477736747337,-298.982665486618
738534.46558542491402477026,-2.85264137699515,0.129245887630848,-299.093447676016
738534.46558551536872982979,-2.83417767876217,0.175405133213294,-299.093447676016
738534.46558560582343488932,-2.79725028229621,0.184636982329783,-299.111911374248
738534.46558569627813994884,-2.77878658406323,0.230796227912229,-299.121143223365
738534.46558578661642968655,-2.75109103671377,0.230796227912229,-299.084215826899
738534.46558587707113474607,-2.70493179113132,0.258491775261696,-299.065752128666
738534.46558596752583980560,-2.66800439466536,0.304651020844142,-299.093447676016
738534.46558605798054486513,-2.6403088473159,0.387737662892544,-299.019592883084
738534.46558614843524992466,-2.63107699819941,0.387737662892544,-299.05652027955
738534.46558623888995498419,-2.59414960173345,0.396969512009033,-299.102679525132
738534.46558632934466004372,-2.59414960173345,0.424665059358501,-298.982665486618
738534.46558641968294978142,-2.58491775261696,0.387737662892544,-299.038056581317
738534.46558651013765484095,-2.61261329996643,0.332346568193609,-299.084215826899
738534.46558660059235990047,-2.63107699819941,0.240028077028718,-299.010361033967
738534.46558669104706496000,-2.68646809289834,0.249259926145207,-299.047288430433
738534.46558678150177001953,-2.7233954893643,0.184636982329783,-299.038056581317
738534.46558687195647507906,-2.78801843317972,0.147709585863826,-299.05652027955
738534.46558696241118013859,-2.83417767876217,0.0923184911648915,-299.074983977782
738534.46558705274946987629,-2.87110507522813,0.0553910946989349,-299.084215826899
738534.46558714320417493582,-2.88033692434461,0.0276955473494674,-299.05652027955
738534.46558723365887999535,-2.90803247169408,0.0369273964659566,-299.130375072481
738534.46558732411358505487,-2.92649616992706,0,-299.065752128666
738534.46558741456829011440,-2.93572801904355,0,-299.065752128666
738534.46558750502299517393,-2.94495986816004,0.0184636982329783,-299.111911374248
738534.46558759547770023346,-2.93572801904355,0,-299.019592883084
738534.46558768581598997116,-2.94495986816004,0.00923184911648915,-299.121143223365
738534.46558777627069503069,-2.92649616992706,0.00923184911648915,-299.167302468947
738534.46558786672540009022,-2.93572801904355,0,-299.158070619831
738534.46558795718010514975,-2.92649616992706,-0.00923184911648915,-298.982665486618
738534.46558804763481020927,-2.92649616992706,0.00923184911648915,-299.065752128666
738534.46558813808951526880,-2.92649616992706,-0.0184636982329783,-299.148838770714
738534.46558822854422032833,-2.92649616992706,0,-299.167302468947
738534.46558831888251006603,-2.90803247169408,0.0276955473494674,-299.05652027955
738534.46558840933721512556,-2.91726432081057,0.0184636982329783,-299.148838770714
738534.46558849979192018509,-2.91726432081057,-0.0184636982329783,-299.148838770714
738534.46558859024662524462,-2.92649616992706,0.00923184911648915,-299.111911374248
738534.46558868070133030415,-2.91726432081057,0.00923184911648915,-299.130375072481
738534.46558877115603536367,-2.93572801904355,0.00923184911648915,-298.973433637501
738534.46558886149432510138,-2.92649616992706,-0.0276955473494674,-299.074983977782
738534.46558895194903016090,-2.94495986816004,0.00923184911648915,-299.102679525132
738534.46558904240373522043,-2.94495986816004,0.00923184911648915,-299.130375072481
738534.46558913285844027996,-2.93572801904355,-0.00923184911648915,-299.158070619831
738534.46558922331314533949,-2.94495986816004,0,-299.111911374248
738534.46558931376785039902,-2.93572801904355,0.00923184911648915,-299.121143223365
738534.46558940422255545855,-2.96342356639302,-0.0184636982329783,-299.167302468947
738534.46558949456084519625,-2.95419171727653,-0.0276955473494674,-299.130375072481
738534.46558958501555025578,-2.96342356639302,0,-299.093447676016
738534.46558967547025531530,-2.95419171727653,-0.00923184911648915,-299.121143223365
738534.46558976592496037483,-2.97265541550951,-0.0276955473494674,-299.139606921598
738534.46558985637966543436,-2.96342356639302,-0.0276955473494674,-299.158070619831
738534.46558994683437049389,-2.97265541550951,0,-299.093447676016
738534.46559003728907555342,-2.96342356639302,-0.0276955473494674,-299.139606921598
738534.46559012762736529112,-2.97265541550951,-0.0184636982329783,-299.148838770714
738534.46559021808207035065,-2.96342356639302,-0.0184636982329783,-299.05652027955
738534.46559030853677541018,-2.97265541550951,-0.00923184911648915,-299.05652027955
738534.46559039899148046970,-2.96342356639302,-0.0276955473494674,-299.047288430433
738534.46559048944618552923,-2.97265541550951,-0.0184636982329783,-299.05652027955
738534.46559057990089058876,-2.97265541550951,-0.00923184911648915,-299.0288247322
738534.46559067035559564829,-2.97265541550951,-0.0276955473494674,-299.05652027955
738534.46559076069388538599,-2.97265541550951,-0.0276955473494674,-299.102679525132
738534.46559085114859044552,-2.97265541550951,-0.0461592455824458,-299.111911374248
738534.46559094160329550505,-2.981887264626,0,-299.102679525132
738534.46559103205800056458,-2.97265541550951,-0.00923184911648915,-299.148838770714
738534.46559112251270562410,-2.99111911374248,-0.0276955473494674,-299.167302468947
738534.46559121296741068363,-2.97265541550951,-0.0461592455824458,-299.05652027955
738534.46559130342211574316,-2.981887264626,-0.0369273964659566,-299.130375072481
738534.46559139376040548086,-2.97265541550951,-0.0184636982329783,-299.158070619831
738534.46559148421511054039,-2.981887264626,-0.0461592455824458,-299.093447676016
738534.46559157466981559992,-2.981887264626,-0.0184636982329783,-299.038056581317
738534.46559166512452065945,-2.99111911374248,-0.0276955473494674,-299.121143223365
738534.46559175557922571898,-2.981887264626,-0.0276955473494674,-299.167302468947
738534.46559184603393077850,-2.981887264626,-0.0184636982329783,-299.074983977782
738534.46559193648863583803,-2.97265541550951,-0.0369273964659566,-299.121143223365
738534.46559202682692557573,-2.93572801904355,0,-299.167302468947
738534.46559211728163063526,-2.90803247169408,0,-299.093447676016
738534.46559220773633569479,-2.91726432081057,0,-299.0288247322
738534.46559229819104075432,-2.91726432081057,0.00923184911648915,-298.908810693686
738534.46559238864574581385,-2.86187322611164,0.00923184911648915,-299.010361033967
738534.46559247910045087337,-2.86187322611164,0.0369273964659566,-299.074983977782
738534.46559256955515593290,-2.87110507522813,0.0184636982329783,-299.065752128666
738534.46559265989344567060,-2.92649616992706,0.0276955473494674,-299.065752128666
738534.46559275034815073013,-2.92649616992706,0.00923184911648915,-299.0288247322
738534.46559284080285578966,-2.94495986816004,-0.0184636982329783,-299.139606921598
738534.46559293125756084919,-2.94495986816004,0.0276955473494674,-299.139606921598
738534.46559302171226590872,-2.981887264626,-0.0276955473494674,-299.130375072481
738534.46559311216697096825,-3.00958281197546,-0.0461592455824458,-299.093447676016
738534.46559320250526070595,-3.00035096285897,-0.00923184911648915,-299.121143223365
738534.46559329295996576548,-3.01881466109195,-0.0276955473494674,-299.102679525132
738534.46559338341467082500,-3.01881466109195,-0.064622943815424,-299.05652027955
738534.46559347386937588453,-3.02804651020844,-0.0461592455824458,-299.111911374248
738534.46559356432408094406,-3.01881466109195,-0.064622943815424,-299.130375072481
738534.46559365477878600359,-3.01881466109195,-0.00923184911648915,-299.05652027955
738534.46559374523349106312,-3.01881466109195,0.00923184911648915,-299.111911374248
738534.46559383557178080082,-2.87110507522813,0.0830866420484024,-299.065752128666
738534.46559392602648586035,-2.41874446852016,0.22156437879574,-298.964201788385
738534.46559401648119091988,-1.93868831446272,0.22156437879574,-298.954969939268
738534.46559410693589597940,-1.72635578478347,0.166173284096805,-298.945738090152
738534.46559419739060103893,-2.27103488265633,0.0184636982329783,-299.001129184851
738534.46559428784530609846,-2.75109103671377,-0.360042115543077,-299.130375072481
738534.46559437830001115799,-2.93572801904355,-0.267723624378185,-299.167302468947
738534.46559446863830089569,-2.981887264626,-0.120014038514359,-299.121143223365
738534.46559455909300595522,-2.97265541550951,-0.0276955473494674,-299.093447676016
738534.46559464954771101475,-2.97265541550951,-0.00923184911648915,-299.102679525132
738534.46559474000241607428,-2.981887264626,-0.0184636982329783,-299.111911374248
738534.46559483045712113380,-2.99111911374248,0,-299.065752128666
738534.46559492091182619333,-2.97265541550951,0.0184636982329783,-299.05652027955
738534.46559501136653125286,-2.981887264626,0.00923184911648915,-299.093447676016
738534.46559510170482099056,-2.97265541550951,0.00923184911648915,-299.093447676016
738534.46559519215952605009,-2.981887264626,0.0553910946989349,-299.019592883084
738534.46559528261423110962,-2.96342356639302,0.0276955473494674,-299.047288430433
738534.46559537306893616915,-2.97265541550951,0.0461592455824458,-299.148838770714
738534.46559546352364122868,-2.94495986816004,0.0553910946989349,-299.139606921598
738534.46559555397834628820,-2.96342356639302,0.0461592455824458,-299.05652027955
738534.46559564443305134773,-2.92649616992706,0.0738547929319132,-299.093447676016
738534.46559573477134108543,-2.92649616992706,0.0923184911648915,-299.093447676016
738534.46559582522604614496,-2.91726432081057,0.0553910946989349,-298.936506241035
738534.46559591568075120449,-2.90803247169408,0.101550340281381,-299.010361033967
738534.46559600613545626402,-2.87110507522813,0.175405133213294,-299.074983977782
738534.46559609659016132355,-2.84340952787866,0.184636982329783,-299.05652027955
738534.46559618704486638308,-2.81571398052919,0.203100680562761,-299.074983977782
738534.46559627749957144260,-2.78801843317972,0.240028077028718,-299.05652027955
738534.46559636783786118031,-2.75109103671377,0.249259926145207,-299.047288430433
738534.46559645829256623983,-2.73262733848079,0.258491775261696,-298.991897335734
738534.46559654874727129936,-2.70493179113132,0.304651020844142,-299.05652027955
738534.46559663920197635889,-2.67723624378185,0.32311471907712,-299.047288430433
738534.46559672965668141842,-2.65877254554888,0.350810266426588,-299.0288247322
738534.46559682011138647795,-2.63107699819941,0.378505813776055,-299.038056581317
738534.46559691056609153748,-2.61261329996643,0.396969512009033,-298.982665486618
738534.46559700090438127518,-2.59414960173345,0.415433210242012,-298.964201788385
738534.46559709135908633471,-2.60338145084994,0.415433210242012,-298.964201788385
738534.46559718181379139423,-2.63107699819941,0.341578417310099,-298.982665486618
738534.46559727226849645376,-2.67723624378185,0.286187322611164,-298.973433637501
738534.46559736272320151329,-2.73262733848079,0.22156437879574,-299.047288430433
738534.46559745317790657282,-2.79725028229621,0.129245887630848,-299.084215826899
738534.46559754351619631052,-2.83417767876217,0.0830866420484024,-299.084215826899
738534.46559763397090137005,-2.8895687734611,0.0461592455824458,-299.065752128666
738534.46559772442560642958,-2.90803247169408,0.00923184911648915,-299.102679525132
738534.46559781488031148911,-2.92649616992706,0.064622943815424,-299.102679525132
738534.46559790533501654863,-2.95419171727653,0.0276955473494674,-299.074983977782
738534.46559799578972160816,-2.96342356639302,0.0184636982329783,-299.093447676016
738534.46559808624442666769,-2.97265541550951,0.00923184911648915,-299.102679525132
738534.46559817658271640539,-2.97265541550951,0.0184636982329783,-299.084215826899
738534.46559826703742146492,-2.97265541550951,0.00923184911648915,-299.111911374248
738534.46559835749212652445,-2.95419171727653,0,-299.111911374248
738534.46559844794683158398,-2.97265541550951,0,-299.111911374248
738534.46559853840153664351,-2.96342356639302,-0.0369273964659566,-299.102679525132
738534.46559862885624170303,-2.97265541550951,0.0276955473494674,-299.111911374248
738534.46559871931094676256,-2.97265541550951,0.0184636982329783,-299.111911374248
738534.46559880964923650026,-2.981887264626,-0.0184636982329783,-299.111911374248
738534.46559890010394155979,-2.981887264626,-0.00923184911648915,-299.084215826899
738534.46559899055864661932,-2.97265541550951,-0.0369273964659566,-299.111911374248
738534.46559908101335167885,-2.97265541550951,-0.0184636982329783,-299.093447676016
738534.46559917146805673838,-2.981887264626,0.0184636982329783,-298.991897335734
738534.46559926192276179790,-2.981887264626,-0.00923184911648915,-299.111911374248
738534.46559935237746685743,-2.97265541550951,-0.00923184911648915,-298.936506241035
738534.46559944271575659513,-2.99111911374248,0,-298.982665486618
738534.46559953317046165466,-2.981887264626,-0.0276955473494674,-299.074983977782
738534.46559962362516671419,-3.00035096285897,-0.00923184911648915,-299.074983977782
738534.46559971407987177372,-3.00035096285897,0,-299.084215826899
738534.46559980453457683325,-3.01881466109195,-0.00923184911648915,-299.121143223365
738534.46559989498928189278,-3.00958281197546,-0.0184636982329783,-299.05652027955
738534.46559998544398695230,-3.02804651020844,-0.0369273964659566,-299.074983977782
738534.46560007578227669001,-3.02804651020844,-0.0461592455824458,-299.084215826899
738534.46560016623698174953,-3.02804651020844,0.00923184911648915,-299.102679525132
738534.46560025669168680906,-3.03727835932493,0,-299.084215826899
738534.46560034714639186859,-3.03727835932493,-0.0553910946989349,-299.084215826899
738534.46560043760109692812,-3.04651020844142,-0.00923184911648915,-299.065752128666
738534.46560052805580198765,-3.03727835932493,0.0184636982329783,-299.084215826899
738534.46560061851050704718,-3.05574205755791,-0.0184636982329783,-299.084215826899
738534.46560070884879678488,-3.04651020844142,-0.0369273964659566,-299.074983977782
738534.46560079930350184441,-3.0649739066744,-0.0184636982329783,-299.084215826899
738534.46560088975820690393,-3.03727835932493,-0.0184636982329783,-299.093447676016
738534.46560098021291196346,-3.0649739066744,-0.0276955473494674,-299.111911374248
738534.46560107066761702299,-3.03727835932493,-0.0923184911648915,-299.130375072481
738534.46560116112232208252,-3.0649739066744,-0.00923184911648915,-299.176534318064
738534.46560125157702714205,-3.04651020844142,-0.0276955473494674,-299.148838770714
738534.46560134191531687975,-3.05574205755791,-0.0369273964659566,-299.093447676016
738534.46560143237002193928,-3.05574205755791,-0.00923184911648915,-299.158070619831
738534.46560152282472699881,-3.04651020844142,0.00923184911648915,-299.18576616718
738534.46560161327943205833,-3.03727835932493,-0.0369273964659566,-299.074983977782
738534.46560170373413711786,-3.05574205755791,-0.0184636982329783,-299.139606921598
738534.46560179418884217739,-3.02804651020844,-0.0369273964659566,-299.148838770714
738534.46560188452713191509,-3.04651020844142,-0.0369273964659566,-299.130375072481
738534.46560197498183697462,-3.03727835932493,-0.00923184911648915,-299.176534318064
738534.46560206543654203415,-3.02804651020844,-0.00923184911648915,-299.148838770714
738534.46560215589124709368,-3.05574205755791,-0.0369273964659566,-299.158070619831
738534.46560224634595215321,-3.02804651020844,-0.0553910946989349,-299.130375072481
738534.46560233680065721273,-3.03727835932493,-0.00923184911648915,-299.176534318064
738534.46560242725536227226,-3.01881466109195,-0.00923184911648915,-299.158070619831
738534.46560251759365200996,-3.02804651020844,-0.0184636982329783,-299.130375072481
738534.46560260804835706949,-2.99111911374248,-0.00923184911648915,-299.139606921598
738534.46560269850306212902,-2.96342356639302,0.0184636982329783,-299.158070619831
738534.46560278895776718855,-2.94495986816004,0.0184636982329783,-299.176534318064
738534.46560287941247224808,-2.95419171727653,0.0553910946989349,-299.0288247322
738534.46560296986717730761,-2.91726432081057,0.0553910946989349,-299.019592883084
738534.46560306032188236713,-2.89880062257759,0.0276955473494674,-299.093447676016
738534.46560315066017210484,-2.8895687734611,0.0276955473494674,-299.121143223365
738534.46560324111487716436,-2.91726432081057,0.0553910946989349,-299.093447676016
738534.46560333156958222389,-2.93572801904355,0.0184636982329783,-299.084215826899
738534.46560342202428728342,-2.96342356639302,0.0276955473494674,-299.102679525132
738534.46560351247899234295,-2.97265541550951,0.0276955473494674,-299.130375072481
738534.46560360293369740248,-3.00035096285897,0.0276955473494674,-299.084215826899
738534.46560369338840246201,-3.01881466109195,-0.00923184911648915,-299.111911374248
738534.46560378372669219971,-3.02804651020844,0,-299.102679525132
738534.46560387418139725924,-3.03727835932493,0.0276955473494674,-299.074983977782
738534.46560396463610231876,-3.02804651020844,0.0184636982329783,-299.102679525132
738534.46560405509080737829,-3.03727835932493,0,-299.102679525132
738534.46560414554551243782,-3.01881466109195,-0.00923184911648915,-299.074983977782
738534.46560423600021749735,-3.03727835932493,0.00923184911648915,-299.148838770714
738534.46560432645492255688,-3.00958281197546,0,-299.139606921598
738534.46560441679321229458,-3.01881466109195,0.0738547929319132,-299.102679525132
738534.46560450724791735411,-2.76955473494675,0.147709585863826,-299.074983977782
738534.46560459770262241364,-2.32642597735527,0.304651020844142,-299.010361033967
738534.46560468815732747316,-1.86483352153081,0.267723624378185,-299.065752128666
738534.46560477861203253269,-1.89252906888028,0.22156437879574,-299.038056581317
738534.46560486906673759222,-2.58491775261696,-0.101550340281381,-299.074983977782
738534.46560495952144265175,-2.87110507522813,-0.350810266426588,-299.204229865413
738534.46560504985973238945,-2.981887264626,-0.193868831446272,-299.176534318064
738534.46560514031443744898,-2.97265541550951,-0.064622943815424,-299.139606921598
738534.46560523076914250851,-2.981887264626,0.0184636982329783,-299.121143223365
738534.46560532122384756804,-2.97265541550951,0.0184636982329783,-299.176534318064
738534.46560541167855262756,-2.99111911374248,0.0461592455824458,-299.074983977782
738534.46560550213325768709,-3.00035096285897,0.0369273964659566,-299.074983977782
738534.46560559247154742479,-3.00958281197546,0.0369273964659566,-299.084215826899
738534.46560568292625248432,-2.97265541550951,0.0830866420484024,-299.074983977782
738534.46560577338095754385,-2.981887264626,0.064622943815424,-299.065752128666
738534.46560586383566260338,-2.97265541550951,0.0553910946989349,-299.074983977782
738534.46560595429036766291,-2.97265541550951,0.101550340281381,-299.130375072481
738534.46560604474507272243,-2.96342356639302,0.0923184911648915,-299.139606921598
738534.46560613519977778196,-2.96342356639302,0.0830866420484024,-299.047288430433
738534.46560622553806751966,-2.94495986816004,0.129245887630848,-299.111911374248
738534.46560631599277257919,-2.92649616992706,0.138477736747337,-299.139606921598
738534.46560640644747763872,-2.91726432081057,0.147709585863826,-299.05652027955
738534.46560649690218269825,-2.8895687734611,0.147709585863826,-299.038056581317
738534.46560658735688775778,-2.88033692434461,0.166173284096805,-299.121143223365
738534.46560667781159281731,-2.85264137699515,0.203100680562761,-299.093447676016
738534.46560676826629787683,-2.85264137699515,0.21233252967925,-299.102679525132
738534.46560685860458761454,-2.79725028229621,0.249259926145207,-299.121143223365
738534.46560694905929267406,-2.77878658406323,0.313882869960631,-299.148838770714
738534.46560703951399773359,-2.73262733848079,0.332346568193609,-299.047288430433
738534.46560712996870279312,-2.70493179113132,0.332346568193609,-299.084215826899
738534.46560722042340785265,-2.65877254554888,0.406201361125523,-299.093447676016
738534.46560731087811291218,-2.6403088473159,0.461592455824458,-299.010361033967
738534.46560740133281797171,-2.60338145084994,0.406201361125523,-299.065752128666
738534.46560749167110770941,-2.59414960173345,0.415433210242012,-299.084215826899
738534.46560758212581276894,-2.57568590350047,0.507751701406903,-299.019592883084
738534.46560767258051782846,-2.58491775261696,0.535447248756371,-299.038056581317
738534.46560776303522288799,-2.60338145084994,0.452360606707968,-299.074983977782
738534.46560785348992794752,-2.63107699819941,0.387737662892544,-299.065752128666
738534.46560794394463300705,-2.68646809289834,0.304651020844142,-299.05652027955
738534.46560803439933806658,-2.7233954893643,0.240028077028718,-299.093447676016
738534.46560812473762780428,-2.77878658406323,0.203100680562761,-299.130375072481
738534.46560821519233286381,-2.84340952787866,0.120014038514359,-299.05652027955
738534.46560830564703792334,-2.87110507522813,0.101550340281381,-299.065752128666
738534.46560839610174298286,-2.8895687734611,0.0923184911648915,-299.093447676016
738534.46560848655644804239,-2.93572801904355,0.0553910946989349,-299.038056581317
738534.46560857701115310192,-2.93572801904355,0.00923184911648915,-299.093447676016
738534.46560866746585816145,-2.94495986816004,0.0369273964659566,-299.093447676016
738534.46560875780414789915,-2.95419171727653,0.0369273964659566,-299.084215826899
738534.46560884825885295868,-2.96342356639302,0.0461592455824458,-299.074983977782
738534.46560893871355801821,-2.95419171727653,0.064622943815424,-299.130375072481
738534.46560902916826307774,-2.94495986816004,0.0553910946989349,-299.05652027955
738534.46560911962296813726,-2.94495986816004,0.00923184911648915,-299.093447676016
738534.46560921007767319679,-2.93572801904355,0.064622943815424,-299.074983977782
738534.46560930053237825632,-2.93572801904355,0.064622943815424,-299.084215826899
738534.46560939087066799402,-2.92649616992706,0.0553910946989349,-299.074983977782
738534.46560948132537305355,-2.93572801904355,-0.0184636982329783,-299.111911374248
738534.46560957178007811308,-2.92649616992706,-0.0553910946989349,-299.093447676016
738534.46560966223478317261,-2.92649616992706,0.0738547929319132,-299.102679525132
738534.46560975268948823214,-2.92649616992706,0.0923184911648915,-299.111911374248
738534.46560984314419329166,-2.91726432081057,0.064622943815424,-299.111911374248
738534.46560993348248302937,-2.91726432081057,0.0369273964659566,-299.074983977782
738534.46561002393718808889,-2.93572801904355,0.064622943815424,-299.0288247322
738534.46561011439189314842,-2.93572801904355,0.0461592455824458,-299.130375072481
738534.46561020484659820795,-2.93572801904355,0.0553910946989349,-299.167302468947
738534.46561029530130326748,-2.93572801904355,0.0276955473494674,-299.148838770714
738534.46561038575600832701,-2.95419171727653,0.0461592455824458,-299.05652027955
738534.46561047621071338654,-2.95419171727653,0.0276955473494674,-299.065752128666
738534.46561056654900312424,-2.95419171727653,0.0461592455824458,-299.065752128666
738534.46561065700370818377,-2.96342356639302,0,-299.038056581317
738534.46561074745841324329,-2.94495986816004,0.00923184911648915,-299.065752128666
738534.46561083791311830282,-2.96342356639302,0.064622943815424,-299.093447676016
738534.46561092836782336235,-2.96342356639302,0.0276955473494674,-299.121143223365
738534.46561101882252842188,-2.97265541550951,0.0184636982329783,-299.111911374248
738534.46561110927723348141,-2.981887264626,-0.00923184911648915,-299.139606921598
738534.46561119961552321911,-2.981887264626,0.00923184911648915,-299.176534318064
738534.46561129007022827864,-2.97265541550951,0.0276955473494674,-299.084215826899
738534.46561138052493333817,-2.99111911374248,0.0369273964659566,-299.148838770714
738534.46561147097963839769,-2.99111911374248,0.0184636982329783,-299.121143223365
738534.46561156143434345722,-2.99111911374248,0.00923184911648915,-299.130375072481
738534.46561165188904851675,-2.981887264626,-0.0184636982329783,-299.111911374248
738534.46561174234375357628,-3.00035096285897,-0.0276955473494674,-299.148838770714
738534.46561183268204331398,-2.981887264626,-0.00923184911648915,-299.139606921598
738534.46561192313674837351,-2.981887264626,0.0276955473494674,-299.093447676016
738534.46561201359145343304,-3.00035096285897,0,-299.148838770714
738534.46561210404615849257,-2.99111911374248,0.00923184911648915,-299.148838770714
738534.46561219450086355209,-3.00958281197546,0.0276955473494674,-299.093447676016
738534.46561228495556861162,-2.981887264626,0.0553910946989349,-299.121143223365
738534.46561237541027367115,-3.00958281197546,0.00923184911648915,-299.139606921598
738534.46561246574856340885,-3.00958281197546,0.00923184911648915,-299.111911374248
738534.46561255620326846838,-3.00958281197546,-0.00923184911648915,-299.158070619831
738534.46561264665797352791,-2.99111911374248,-0.00923184911648915,-299.148838770714
738534.46561273711267858744,-2.97265541550951,0,-299.176534318064
738534.46561282756738364697,-2.94495986816004,-0.00923184911648915,-299.102679525132
738534.46561291802208870649,-2.94495986816004,0.0184636982329783,-299.074983977782
738534.46561300847679376602,-2.93572801904355,0.00923184911648915,-299.102679525132
738534.46561309881508350372,-2.90803247169408,0.0369273964659566,-299.167302468947
738534.46561318926978856325,-2.86187322611164,0.0553910946989349,-299.167302468947
738534.46561327972449362278,-2.85264137699515,0.0553910946989349,-299.167302468947
738534.46561337017919868231,-2.86187322611164,0.064622943815424,-299.139606921598
738534.46561346063390374184,-2.91726432081057,0.00923184911648915,-299.102679525132
738534.46561355108860880136,-2.95419171727653,0.0184636982329783,-298.982665486618
738534.46561364154331386089,-2.95419171727653,0.00923184911648915,-299.074983977782
738534.46561373188160359859,-2.97265541550951,-0.00923184911648915,-299.084215826899
738534.46561382233630865812,-3.01881466109195,-0.0369273964659566,-299.102679525132
738534.46561391279101371765,-3.03727835932493,-0.0184636982329783,-299.139606921598
738534.46561400324571877718,-3.02804651020844,-0.00923184911648915,-299.074983977782
738534.46561409370042383671,-3.05574205755791,-0.0184636982329783,-299.130375072481
738534.46561418415512889624,-3.04651020844142,-0.0184636982329783,-299.139606921598
738534.46561427449341863394,-3.05574205755791,-0.00923184911648915,-299.121143223365
738534.46561436494812369347,-3.03727835932493,-0.0276955473494674,-299.121143223365
738534.46561445540282875299,-3.02804651020844,0,-299.148838770714
738534.46561454585753381252,-2.99111911374248,0.064622943815424,-299.111911374248
738534.46561463631223887205,-2.66800439466536,0.156941434980316,-299.093447676016
738534.46561472676694393158,-2.18794824060793,0.267723624378185,-299.0288247322
738534.46561481722164899111,-1.81867427594836,0.22156437879574,-299.05652027955
738534.46561490755993872881,-2.02177495651112,0.064622943815424,-299.05652027955
738534.46561499801464378834,-2.69569994201483,-0.276955473494675,-299.194998016297
738534.46561508846934884787,-2.94495986816004,-0.360042115543077,-299.204229865413
738534.46561517892405390739,-2.99111911374248,-0.276955473494675,-299.18576616718
738534.46561526937875896692,-3.02804651020844,-0.120014038514359,-299.121143223365
738534.46561535983346402645,-3.00035096285897,-0.0276955473494674,-299.130375072481
738534.46561545028816908598,-3.00035096285897,-0.0276955473494674,-299.167302468947
738534.46561554062645882368,-3.00035096285897,-0.00923184911648915,-299.065752128666
738534.46561563108116388321,-2.99111911374248,0.0553910946989349,-299.047288430433
738534.46561572153586894274,-2.99111911374248,0.0461592455824458,-299.047288430433
738534.46561581199057400227,-3.00035096285897,0.0184636982329783,-299.121143223365
738534.46561590244527906179,-2.99111911374248,0.0276955473494674,-299.047288430433
738534.46561599289998412132,-2.981887264626,0.0830866420484024,-299.074983977782
738534.46561608335468918085,-2.97265541550951,0.0923184911648915,-299.121143223365
738534.46561617369297891855,-2.97265541550951,0.0369273964659566,-299.111911374248
738534.46561626414768397808,-2.97265541550951,0.11078218939787,-299.05652027955
738534.46561635460238903761,-2.94495986816004,0.120014038514359,-299.102679525132
738534.46561644505709409714,-2.94495986816004,0.11078218939787,-299.093447676016
738534.46561653551179915667,-2.91726432081057,0.129245887630848,-299.047288430433
738534.46561662596650421619,-2.89880062257759,0.138477736747337,-299.093447676016
738534.46561671642120927572,-2.8895687734611,0.101550340281381,-299.102679525132
738534.46561680675949901342,-2.86187322611164,0.203100680562761,-299.102679525132
738534.46561689721420407295,-2.83417767876217,0.22156437879574,-299.0288247322
738534.46561698766890913248,-2.81571398052919,0.203100680562761,-299.038056581317
738534.46561707812361419201,-2.79725028229621,0.21233252967925,-298.936506241035
738534.46561716857831925154,-2.76032288583026,0.304651020844142,-299.074983977782
738534.46561725903302431107,-2.71416364024781,0.332346568193609,-299.038056581317
738534.46561734948772937059,-2.66800439466536,0.360042115543077,-299.05652027955
738534.46561743982601910830,-2.6403088473159,0.378505813776055,-298.982665486618
738534.46561753028072416782,-2.62184514908292,0.443128757591479,-298.973433637501
738534.46561762073542922735,-2.60338145084994,0.350810266426588,-299.0288247322
738534.46561771119013428688,-2.60338145084994,0.424665059358501,-298.982665486618
738534.46561780164483934641,-2.59414960173345,0.470824304940947,-298.982665486618
738534.46561789209954440594,-2.60338145084994,0.406201361125523,-299.010361033967
738534.46561798255424946547,-2.65877254554888,0.32311471907712,-299.019592883084
738534.46561807289253920317,-2.70493179113132,0.258491775261696,-299.111911374248
738534.46561816334724426270,-2.76032288583026,0.156941434980316,-299.047288430433
738534.46561825380194932222,-2.8064821314127,0.138477736747337,-299.065752128666
738534.46561834425665438175,-2.87110507522813,0.129245887630848,-299.102679525132
738534.46561843471135944128,-2.89880062257759,0.0738547929319132,-299.047288430433
738534.46561852516606450081,-2.92649616992706,0.0553910946989349,-298.991897335734
738534.46561861550435423851,-2.95419171727653,0.0276955473494674,-299.047288430433
738534.46561870595905929804,-2.96342356639302,0.0461592455824458,-299.047288430433
738534.46561879641376435757,-2.95419171727653,-0.00923184911648915,-299.0288247322
738534.46561888686846941710,-2.96342356639302,0.00923184911648915,-299.074983977782
738534.46561897732317447662,-2.97265541550951,0.0276955473494674,-299.111911374248
738534.46561906777787953615,-2.97265541550951,0.0184636982329783,-299.158070619831
738534.46561915823258459568,-2.981887264626,0,-299.093447676016
738534.46561924857087433338,-2.96342356639302,-0.0369273964659566,-299.139606921598
738534.46561933902557939291,-2.94495986816004,0.0276955473494674,-299.158070619831
738534.46561942948028445244,-2.94495986816004,0.0276955473494674,-299.102679525132
738534.46561951993498951197,-2.95419171727653,0.0369273964659566,-299.121143223365
738534.46561961038969457150,-2.93572801904355,0.0276955473494674,-299.148838770714
738534.46561970084439963102,-2.95419171727653,-0.0461592455824458,-299.102679525132
738534.46561979129910469055,-2.96342356639302,-0.00923184911648915,-299.158070619831
738534.46561988163739442825,-2.95419171727653,0.064622943815424,-299.102679525132
738534.46561997209209948778,-2.94495986816004,0.00923184911648915,-299.093447676016
738534.46562006254680454731,-2.96342356639302,0.0276955473494674,-299.038056581317
738534.46562015300150960684,-2.94495986816004,0.0276955473494674,-299.019592883084
738534.46562024345621466637,-2.96342356639302,0.0276955473494674,-299.065752128666
738534.46562033391091972589,-2.96342356639302,-0.0553910946989349,-299.065752128666
738534.46562042436562478542,-2.96342356639302,0,-299.111911374248
738534.46562051470391452312,-2.96342356639302,0.0369273964659566,-298.927274391919
738534.46562060515861958265,-2.981887264626,0.0276955473494674,-299.047288430433
738534.46562069561332464218,-2.981887264626,0.00923184911648915,-299.130375072481
738534.46562078606802970171,-2.96342356639302,0.0184636982329783,-299.093447676016
738534.46562087652273476124,-2.981887264626,0.0184636982329783,-299.05652027955
738534.46562096697743982077,-2.99111911374248,0.00923184911648915,-299.102679525132
738534.46562105743214488029,-2.99111911374248,0.00923184911648915,-299.084215826899
738534.46562114777043461800,-2.981887264626,0,-299.093447676016
738534.46562123822513967752,-3.00035096285897,-0.00923184911648915,-299.065752128666
738534.46562132867984473705,-3.00035096285897,-0.0184636982329783,-299.074983977782
738534.46562141913454979658,-3.00035096285897,0,-299.047288430433
738534.46562150958925485611,-3.00958281197546,-0.0184636982329783,-299.0288247322
738534.46562160004395991564,-3.00035096285897,-0.0184636982329783,-299.010361033967
738534.46562169049866497517,-3.00958281197546,-0.0276955473494674,-299.05652027955
738534.46562178083695471287,-3.00958281197546,-0.0276955473494674,-299.065752128666
738534.46562187129165977240,-3.00035096285897,-0.0369273964659566,-299.065752128666
738534.46562196174636483192,-3.00035096285897,-0.00923184911648915,-299.111911374248
738534.46562205220106989145,-3.00035096285897,-0.0369273964659566,-299.139606921598
738534.46562214265577495098,-3.00958281197546,-0.00923184911648915,-299.139606921598
738534.46562223311048001051,-3.00958281197546,-0.0184636982329783,-299.084215826899
738534.46562232356518507004,-2.981887264626,0.0369273964659566,-299.148838770714
738534.46562241390347480774,-2.94495986816004,0.0184636982329783,-299.148838770714
738534.46562250435817986727,-2.91726432081057,0.0461592455824458,-299.074983977782
738534.46562259481288492680,-2.8895687734611,0.064622943815424,-299.093447676016
738534.46562268526758998632,-2.88033692434461,0.0553910946989349,-299.130375072481
738534.46562277572229504585,-2.92649616992706,0.0553910946989349,-299.139606921598
738534.46562286617700010538,-2.86187322611164,0.0184636982329783,-299.074983977782
738534.46562295651528984308,-2.83417767876217,0.0184636982329783,-299.111911374248
738534.46562304696999490261,-2.90803247169408,-0.0553910946989349,-299.158070619831
738534.46562313742469996214,-2.96342356639302,-0.0369273964659566,-299.139606921598
738534.46562322787940502167,-2.97265541550951,-0.00923184911648915,-299.102679525132
738534.46562331833411008120,-2.88033692434461,0.0923184911648915,-299.111911374248
738534.46562340878881514072,-2.82494582964568,0.138477736747337,-299.121143223365
738534.46562349924352020025,-2.85264137699515,0.156941434980316,-299.102679525132
738534.46562358958180993795,-2.85264137699515,0.175405133213294,-299.121143223365
738534.46562368003651499748,-3.08343760490738,-0.064622943815424,-299.130375072481
738534.46562377049122005701,-3.0649739066744,-0.0553910946989349,-299.121143223365
738534.46562386094592511654,-3.05574205755791,-0.064622943815424,-299.130375072481
738534.46562395140063017607,-3.19421979430525,-0.166173284096805,-299.176534318064
738534.46562404185533523560,-3.09266945402387,-0.11078218939787,-298.964201788385
738534.46562413231004029512,-3.01881466109195,0.0184636982329783,-299.010361033967
738534.46562422264833003283,-2.95419171727653,0.0923184911648915,-299.038056581317
738534.46562431310303509235,-2.56645405438398,0.267723624378185,-299.001129184851
738534.46562440355774015188,-1.99407940916166,0.387737662892544,-298.954969939268
738534.46562449401244521141,-1.92022461622974,0.21233252967925,-298.945738090152
738534.46562458446715027094,-1.76328318124943,0.193868831446272,-298.945738090152
738534.46562467492185533047,-2.52952665791803,-0.129245887630848,-299.05652027955
738534.46562476537656039000,-2.86187322611164,-0.396969512009033,-299.093447676016
738534.46562485571485012770,-3.01881466109195,-0.276955473494675,-299.167302468947
738534.46562494616955518723,-2.89880062257759,0.00923184911648915,-299.158070619831
738534.46562503662426024675,-3.07420575579089,-0.120014038514359,-299.130375072481
738534.46562512707896530628,-3.03727835932493,-0.0830866420484024,-299.093447676016
738534.46562521753367036581,-3.01881466109195,-0.0461592455824458,-299.139606921598
738534.46562530798837542534,-3.00958281197546,-0.0184636982329783,-299.130375072481
738534.46562539844308048487,-3.03727835932493,-0.0369273964659566,-299.065752128666
738534.46562548878137022257,-2.99111911374248,0.0184636982329783,-299.121143223365
738534.46562557923607528210,-3.09266945402387,-0.0830866420484024,-299.148838770714
738534.46562566969078034163,-3.07420575579089,-0.0553910946989349,-299.047288430433
738534.46562576014548540115,-2.94495986816004,0.064622943815424,-299.102679525132
738534.46562585060019046068,-2.99111911374248,0.0461592455824458,-299.111911374248
738534.46562594105489552021,-2.90803247169408,0.11078218939787,-299.065752128666
738534.46562603150960057974,-3.07420575579089,-0.0553910946989349,-299.111911374248
738534.46562612184789031744,-3.04651020844142,-0.0461592455824458,-299.111911374248
738534.46562621230259537697,-2.94495986816004,0.0923184911648915,-299.093447676016
738534.46562630275730043650,-2.8895687734611,0.11078218939787,-299.001129184851
738534.46562639321200549603,-2.95419171727653,0.0461592455824458,-299.001129184851
738534.46562648366671055555,-2.89880062257759,0.120014038514359,-299.019592883084
738534.46562657412141561508,-2.78801843317972,0.22156437879574,-298.991897335734
738534.46562666457612067461,-2.89880062257759,0.101550340281381,-298.991897335734
738534.46562675491441041231,-2.88033692434461,0.11078218939787,-299.001129184851
738534.46562684536911547184,-2.81571398052919,0.203100680562761,-299.038056581317
738534.46562693582382053137,-2.73262733848079,0.249259926145207,-299.065752128666
738534.46562702627852559090,-2.68646809289834,0.295419171727653,-298.991897335734
738534.46562711673323065042,-2.64954069643239,0.341578417310099,-299.05652027955
738534.46562720718793570995,-2.71416364024781,0.295419171727653,-299.111911374248
738534.46562729752622544765,-2.65877254554888,0.32311471907712,-299.047288430433
738534.46562738798093050718,-2.58491775261696,0.415433210242012,-299.038056581317
738534.46562747843563556671,-2.55722220526749,0.415433210242012,-299.047288430433
738534.46562756889034062624,-2.68646809289834,0.304651020844142,-298.945738090152
738534.46562765934504568577,-2.69569994201483,0.22156437879574,-298.954969939268
738534.46562774979975074530,-2.79725028229621,0.147709585863826,-299.102679525132
738534.46562784025445580482,-2.81571398052919,0.0553910946989349,-299.121143223365
738534.46562793059274554253,-2.93572801904355,-0.00923184911648915,-299.05652027955
738534.46562802104745060205,-2.94495986816004,-0.0184636982329783,-299.158070619831
738534.46562811150215566158,-2.89880062257759,0.0461592455824458,-299.130375072481
738534.46562820195686072111,-2.981887264626,-0.0276955473494674,-299.167302468947
738534.46562829241156578064,-2.91726432081057,0.0276955473494674,-299.102679525132
738534.46562838286627084017,-2.94495986816004,0.00923184911648915,-299.158070619831
738534.46562847332097589970,-3.10190130314035,-0.147709585863826,-299.204229865413
738534.46562856365926563740,-3.12959685048982,-0.147709585863826,-299.074983977782
738534.46562865411397069693,-3.01881466109195,-0.0923184911648915,-299.130375072481
738534.46562874456867575645,-3.00035096285897,-0.0369273964659566,-299.074983977782
738534.46562883502338081598,-3.03727835932493,-0.0830866420484024,-299.093447676016
738534.46562892547808587551,-3.00958281197546,-0.0553910946989349,-299.093447676016
738534.46562901593279093504,-2.97265541550951,-0.0461592455824458,-299.139606921598
738534.46562910638749599457,-3.03727835932493,-0.0830866420484024,-299.102679525132
738534.46562919672578573227,-2.99111911374248,-0.064622943815424,-299.084215826899
738534.46562928718049079180,-3.0649739066744,-0.138477736747337,-299.102679525132
738534.46562937763519585133,-3.03727835932493,-0.11078218939787,-299.130375072481
738534.46562946808990091085,-2.981887264626,-0.0553910946989349,-299.084215826899
738534.46562955854460597038,-2.981887264626,-0.0830866420484024,-299.084215826899
738534.46562964899931102991,-3.04651020844142,-0.129245887630848,-299.074983977782
738534.46562973945401608944,-2.91726432081057,0,-299.074983977782
738534.46562982979230582714,-2.95419171727653,-0.0276955473494674,-299.093447676016
738534.46562992024701088667,-3.16652424695578,-0.230796227912229,-299.130375072481
738534.46563001070171594620,-2.93572801904355,-0.0184636982329783,-299.05652027955
738534.46563010115642100573,-2.95419171727653,-0.0276955473494674,-299.084215826899
738534.46563019161112606525,-2.96342356639302,-0.0553910946989349,-299.111911374248
738534.46563028206583112478,-3.13882869960631,-0.21233252967925,-299.139606921598
738534.46563037252053618431,-2.94495986816004,-0.0461592455824458,-299.158070619831
738534.46563046285882592201,-3.01881466109195,-0.064622943815424,-299.065752128666
738534.46563055331353098154,-3.12959685048982,-0.203100680562761,-299.019592883084
738534.46563064376823604107,-3.03727835932493,-0.101550340281381,-299.102679525132
738534.46563073422294110060,-3.02804651020844,-0.11078218939787,-299.05652027955
738534.46563082467764616013,-3.01881466109195,-0.0738547929319132,-299.074983977782
738534.46563091513235121965,-3.08343760490738,-0.156941434980316,-299.074983977782
738534.46563100558705627918,-2.96342356639302,-0.0369273964659566,-299.093447676016
738534.46563109592534601688,-3.05574205755791,-0.120014038514359,-299.010361033967
738534.46563118638005107641,-3.09266945402387,-0.156941434980316,-299.065752128666
738534.46563127683475613594,-3.07420575579089,-0.147709585863826,-299.158070619831
738534.46563136728946119547,-2.97265541550951,-0.0461592455824458,-299.139606921598
738534.46563145774416625500,-3.01881466109195,-0.064622943815424,-299.176534318064
738534.46563154819887131453,-3.13882869960631,-0.21233252967925,-299.158070619831
738534.46563163853716105223,-3.00958281197546,-0.064622943815424,-299.121143223365
738534.46563172899186611176,-2.90803247169408,0.0184636982329783,-299.139606921598
738534.46563181944657117128,-3.0649739066744,-0.120014038514359,-299.167302468947
738534.46563190990127623081,-3.17575609607227,-0.240028077028718,-299.084215826899
738534.46563200035598129034,-3.11113315225684,-0.193868831446272,-299.167302468947
738534.46563209081068634987,-3.00035096285897,-0.120014038514359,-299.167302468947
738534.46563218126539140940,-2.981887264626,-0.0923184911648915,-299.176534318064
738534.46563227160368114710,-2.95419171727653,-0.0738547929319132,-299.121143223365
738534.46563236205838620663,-2.87110507522813,-0.0184636982329783,-299.121143223365
738534.46563245251309126616,-2.88033692434461,-0.0553910946989349,-299.18576616718
738534.46563254296779632568,-2.981887264626,-0.175405133213294,-299.093447676016
738534.46563263342250138521,-2.981887264626,-0.138477736747337,-299.148838770714
738534.46563272387720644474,-2.981887264626,-0.0830866420484024,-299.148838770714
738534.46563281433191150427,-2.93572801904355,-0.00923184911648915,-299.111911374248
738534.46563290467020124197,-2.96342356639302,-0.0830866420484024,-299.130375072481
738534.46563299512490630150,-3.0649739066744,-0.138477736747337,-299.148838770714
738534.46563308557961136103,-3.09266945402387,-0.166173284096805,-299.18576616718
738534.46563317603431642056,-3.07420575579089,-0.120014038514359,-299.139606921598
738534.46563326648902148008,-3.08343760490738,-0.138477736747337,-299.18576616718
738534.46563335694372653961,-3.07420575579089,-0.120014038514359,-299.18576616718
738534.46563344739843159914,-3.08343760490738,-0.147709585863826,-299.084215826899
738534.46563353773672133684,-3.07420575579089,-0.11078218939787,-299.139606921598
738534.46563362819142639637,-3.04651020844142,-0.120014038514359,-299.167302468947
738534.46563371864613145590,-3.0649739066744,-0.0830866420484024,-299.074983977782
738534.46563380910083651543,-2.84340952787866,0.00923184911648915,-299.093447676016
738534.46563389955554157495,-2.64954069643239,0.0738547929319132,-299.102679525132
738534.46563399001024663448,-2.2156437879574,0.166173284096805,-299.047288430433
738534.46563408046495169401,-1.83713797418134,0.166173284096805,-298.954969939268
738534.46563417080324143171,-2.06793420209357,0.129245887630848,-299.019592883084
738534.46563426125794649124,-2.76032288583026,-0.369273964659566,-299.204229865413
738534.46563435171265155077,-2.97265541550951,-0.406201361125523,-299.130375072481
738534.46563444216735661030,-3.00958281197546,-0.230796227912229,-299.148838770714
738534.46563453262206166983,-3.02804651020844,-0.138477736747337,-299.158070619831
738534.46563462307676672935,-3.01881466109195,-0.120014038514359,-299.019592883084
738534.46563471353147178888,-3.03727835932493,-0.101550340281381,-299.010361033967
738534.46563480386976152658,-3.02804651020844,-0.101550340281381,-299.121143223365
738534.46563489432446658611,-3.00958281197546,-0.064622943815424,-299.121143223365
738534.46563498477917164564,-3.00958281197546,-0.0830866420484024,-299.047288430433
738534.46563507523387670517,-3.01881466109195,-0.064622943815424,-299.111911374248
738534.46563516568858176470,-2.99111911374248,-0.064622943815424,-299.05652027955
738534.46563525614328682423,-3.00958281197546,-0.0553910946989349,-299.102679525132
738534.46563534659799188375,-2.99111911374248,-0.0461592455824458,-299.111911374248
738534.46563543693628162146,-2.97265541550951,-0.0276955473494674,-299.102679525132
738534.46563552739098668098,-2.95419171727653,-0.0184636982329783,-299.047288430433
738534.46563561784569174051,-2.96342356639302,-0.00923184911648915,-298.982665486618
738534.46563570830039680004,-2.981887264626,-0.00923184911648915,-299.0288247322
738534.46563579875510185957,-2.93572801904355,-0.00923184911648915,-299.047288430433
738534.46563588920980691910,-2.92649616992706,0.0184636982329783,-299.038056581317
738534.46563597954809665680,-2.90803247169408,0.0184636982329783,-299.010361033967
738534.46563607000280171633,-2.8895687734611,0.0553910946989349,-299.084215826899
738534.46563616045750677586,-2.84340952787866,0.0738547929319132,-299.074983977782
738534.46563625091221183538,-2.83417767876217,0.11078218939787,-299.047288430433
738534.46563634136691689491,-2.78801843317972,0.138477736747337,-299.065752128666
738534.46563643182162195444,-2.76032288583026,0.175405133213294,-299.05652027955
738534.46563652227632701397,-2.70493179113132,0.22156437879574,-299.0288247322
738534.46563661261461675167,-2.66800439466536,0.267723624378185,-299.047288430433
738534.46563670306932181120,-2.63107699819941,0.286187322611164,-299.0288247322
738534.46563679352402687073,-2.60338145084994,0.32311471907712,-299.019592883084
738534.46563688397873193026,-2.59414960173345,0.32311471907712,-299.019592883084
738534.46563697443343698978,-2.58491775261696,0.313882869960631,-299.0288247322
738534.46563706488814204931,-2.60338145084994,0.276955473494675,-299.038056581317
738534.46563715534284710884,-2.62184514908292,0.22156437879574,-299.038056581317
738534.46563724568113684654,-2.68646809289834,0.156941434980316,-298.982665486618
738534.46563733613584190607,-2.74185918759728,0.0923184911648915,-299.019592883084
738534.46563742659054696560,-2.79725028229621,0.0369273964659566,-299.038056581317
738534.46563751704525202513,-2.84340952787866,-0.0369273964659566,-299.065752128666
738534.46563760749995708466,-2.86187322611164,-0.0553910946989349,-299.074983977782
738534.46563769795466214418,-2.90803247169408,-0.0830866420484024,-299.074983977782
738534.46563778840936720371,-2.92649616992706,-0.101550340281381,-299.074983977782
738534.46563787874765694141,-2.94495986816004,-0.175405133213294,-299.084215826899
738534.46563796920236200094,-2.92649616992706,-0.147709585863826,-299.121143223365
738534.46563805965706706047,-2.92649616992706,-0.138477736747337,-299.111911374248
738534.46563815011177212000,-2.94495986816004,-0.138477736747337,-299.0288247322
738534.46563824056647717953,-2.93572801904355,-0.138477736747337,-299.019592883084
738534.46563833102118223906,-2.89880062257759,-0.120014038514359,-299.05652027955
738534.46563842147588729858,-2.89880062257759,-0.11078218939787,-299.065752128666
738534.46563851181417703629,-2.87110507522813,-0.0923184911648915,-299.038056581317
738534.46563860226888209581,-2.84340952787866,-0.101550340281381,-299.047288430433
738534.46563869272358715534,-2.8064821314127,-0.0738547929319132,-299.065752128666
738534.46563878317829221487,-2.81571398052919,-0.0461592455824458,-299.111911374248
738534.46563887363299727440,-2.8064821314127,-0.064622943815424,-299.084215826899
738534.46563896408770233393,-2.79725028229621,-0.064622943815424,-299.084215826899
738534.46563905454240739346,-2.79725028229621,-0.0830866420484024,-299.084215826899
738534.46563914488069713116,-2.8064821314127,-0.064622943815424,-299.102679525132
738534.46563923533540219069,-2.82494582964568,-0.11078218939787,-299.158070619831
738534.46563932579010725021,-2.83417767876217,-0.0830866420484024,-299.139606921598
738534.46563941624481230974,-2.85264137699515,-0.101550340281381,-299.148838770714
738534.46563950669951736927,-2.83417767876217,-0.11078218939787,-299.093447676016
738534.46563959715422242880,-2.83417767876217,-0.129245887630848,-299.084215826899
738534.46563968760892748833,-2.83417767876217,-0.11078218939787,-299.05652027955
738534.46563977794721722603,-2.87110507522813,-0.138477736747337,-299.047288430433
738534.46563986840192228556,-2.87110507522813,-0.129245887630848,-299.065752128666
738534.46563995885662734509,-2.87110507522813,-0.0830866420484024,-299.047288430433
738534.46564004931133240461,-2.85264137699515,-0.0923184911648915,-299.074983977782
738534.46564013976603746414,-2.8895687734611,-0.0738547929319132,-299.139606921598
738534.46564023022074252367,-2.88033692434461,-0.0830866420484024,-299.139606921598
738534.46564032055903226137,-2.88033692434461,-0.0923184911648915,-299.158070619831
738534.46564041101373732090,-2.84340952787866,-0.0830866420484024,-299.121143223365
738534.46564050146844238043,-2.91726432081057,-0.0830866420484024,-299.121143223365
738534.46564059192314743996,-2.90803247169408,-0.0923184911648915,-299.130375072481
738534.46564068237785249949,-2.91726432081057,-0.0923184911648915,-299.093447676016
738534.46564077283255755901,-2.93572801904355,-0.11078218939787,-299.121143223365
738534.46564086328726261854,-2.95419171727653,-0.101550340281381,-299.158070619831
738534.46564095362555235624,-2.95419171727653,-0.120014038514359,-299.084215826899
738534.46564104408025741577,-2.96342356639302,-0.101550340281381,-299.121143223365
738534.46564113453496247530,-3.00035096285897,-0.11078218939787,-299.084215826899
738534.46564122498966753483,-3.01881466109195,-0.11078218939787,-299.065752128666
738534.46564131544437259436,-3.00958281197546,-0.120014038514359,-299.084215826899
738534.46564140589907765388,-2.981887264626,-0.11078218939787,-299.065752128666
738534.46564149635378271341,-3.02804651020844,-0.0923184911648915,-299.074983977782
738534.46564158669207245111,-2.981887264626,-0.101550340281381,-299.084215826899
738534.46564167714677751064,-2.97265541550951,-0.0830866420484024,-299.047288430433
738534.46564176760148257017,-2.94495986816004,-0.0738547929319132,-298.982665486618
738534.46564185805618762970,-2.92649616992706,-0.0461592455824458,-299.111911374248
738534.46564194851089268923,-2.93572801904355,-0.064622943815424,-299.111911374248
738534.46564203896559774876,-2.8895687734611,-0.0369273964659566,-299.084215826899
738534.46564212942030280828,-2.87110507522813,-0.0461592455824458,-299.065752128666
738534.46564221975859254599,-2.8895687734611,-0.0369273964659566,-299.102679525132
738534.46564231021329760551,-2.92649616992706,-0.0553910946989349,-299.121143223365
738534.46564240066800266504,-2.95419171727653,-0.0184636982329783,-299.111911374248
738534.46564249112270772457,-2.981887264626,-0.0553910946989349,-299.148838770714
738534.46564258157741278410,-3.00958281197546,-0.0738547929319132,-299.111911374248
738534.46564267203211784363,-3.03727835932493,-0.0738547929319132,-299.139606921598
738534.46564276248682290316,-3.02804651020844,-0.0830866420484024,-299.148838770714
738534.46564285282511264086,-3.04651020844142,-0.0923184911648915,-299.074983977782
738534.46564294327981770039,-3.03727835932493,-0.120014038514359,-299.176534318064
738534.46564303373452275991,-3.05574205755791,-0.138477736747337,-299.084215826899
738534.46564312418922781944,-3.03727835932493,-0.138477736747337,-299.121143223365
738534.46564321464393287897,-3.02804651020844,-0.11078218939787,-299.065752128666
738534.46564330509863793850,-2.99111911374248,-0.11078218939787,-299.102679525132
738534.46564339555334299803,-2.99111911374248,-0.064622943815424,-299.130375072481
738534.46564348589163273573,-2.78801843317972,-0.00923184911648915,-299.102679525132
738534.46564357634633779526,-2.28026673177282,0.175405133213294,-298.945738090152
738534.46564366680104285479,-1.77251503036592,0.147709585863826,-298.991897335734
738534.46564375725574791431,-1.76328318124943,0.101550340281381,-298.964201788385
738534.46564384771045297384,-2.51106295968505,-0.156941434980316,-299.093447676016
738534.46564393816515803337,-2.8895687734611,-0.470824304940947,-299.194998016297
738534.46564402861986309290,-2.99111911374248,-0.369273964659566,-299.176534318064
738534.46564411895815283060,-2.95419171727653,-0.184636982329783,-299.139606921598
738534.46564420941285789013,-2.94495986816004,-0.11078218939787,-299.130375072481
738534.46564429986756294966,-2.95419171727653,-0.0923184911648915,-299.130375072481
738534.46564439032226800919,-2.981887264626,-0.064622943815424,-299.111911374248
738534.46564448077697306871,-2.94495986816004,-0.0738547929319132,-299.148838770714
738534.46564457123167812824,-2.91726432081057,-0.0553910946989349,-299.148838770714
738534.46564466156996786594,-2.93572801904355,-0.0738547929319132,-299.102679525132
738534.46564475202467292547,-2.91726432081057,-0.0461592455824458,-299.130375072481
738534.46564484247937798500,-2.88033692434461,-0.0276955473494674,-299.121143223365
738534.46564493293408304453,-2.87110507522813,0.0184636982329783,-299.158070619831
738534.46564502338878810406,-2.8064821314127,0.0276955473494674,-299.102679525132
738534.46564511384349316359,-2.79725028229621,0.0553910946989349,-299.121143223365
738534.46564520429819822311,-2.79725028229621,0.064622943815424,-299.111911374248
738534.46564529463648796082,-2.73262733848079,0.11078218939787,-299.001129184851
738534.46564538509119302034,-2.69569994201483,0.156941434980316,-299.121143223365
738534.46564547554589807987,-2.62184514908292,0.21233252967925,-299.047288430433
738534.46564556600060313940,-2.57568590350047,0.267723624378185,-299.0288247322
738534.46564565645530819893,-2.48336741233558,0.304651020844142,-299.065752128666
738534.46564574691001325846,-2.42797631763665,0.369273964659566,-299.0288247322
738534.46564583736471831799,-2.35412152470473,0.43389690847499,-299.05652027955
738534.46564592770300805569,-2.26180303353984,0.54467909787286,-299.038056581317
738534.46564601815771311522,-2.25257118442335,0.526215399639882,-299.019592883084
738534.46564610861241817474,-2.2156437879574,0.54467909787286,-299.0288247322
738534.46564619906712323427,-2.14178899502548,0.572374645222327,-299.038056581317
738534.46564628952182829380,-2.19718008972442,0.600070192571795,-299.038056581317
738534.46564637997653335333,-2.10486159855953,0.636997589037751,-299.05652027955
738534.46564647043123841286,-2.1233252967925,0.636997589037751,-299.074983977782
738534.46564656076952815056,-2.13255714590899,0.600070192571795,-299.074983977782
738534.46564665122423321009,-2.16948454237495,0.590838343455306,-298.936506241035
738534.46564674167893826962,-2.20641193884091,0.526215399639882,-299.093447676016
738534.46564683213364332914,-2.16948454237495,0.553910946989349,-299.093447676016
738534.46564692258834838867,-2.2156437879574,0.498519852290414,-299.111911374248
738534.46564701304305344820,-2.3818170720542,0.304651020844142,-299.0288247322
738534.46564710349775850773,-2.45567186498611,0.276955473494675,-299.0288247322
738534.46564719383604824543,-2.49259926145207,0.258491775261696,-299.093447676016
738534.46564728429075330496,-2.47413556321909,0.276955473494675,-299.084215826899
738534.46564737474545836449,-2.47413556321909,0.276955473494675,-299.074983977782
738534.46564746520016342402,-2.52952665791803,0.258491775261696,-299.111911374248
738534.46564755565486848354,-2.52029480880154,0.21233252967925,-299.074983977782
738534.46564764610957354307,-2.52952665791803,0.22156437879574,-299.139606921598
738534.46564773656427860260,-2.55722220526749,0.175405133213294,-299.194998016297
738534.46564782690256834030,-2.57568590350047,0.175405133213294,-299.093447676016
738534.46564791735727339983,-2.57568590350047,0.147709585863826,-299.158070619831
738534.46564800781197845936,-2.60338145084994,0.147709585863826,-299.167302468947
738534.46564809826668351889,-2.6403088473159,0.101550340281381,-299.194998016297
738534.46564818872138857841,-2.63107699819941,0.101550340281381,-299.093447676016
738534.46564827917609363794,-2.64954069643239,0.0461592455824458,-299.194998016297
738534.46564836963079869747,-2.64954069643239,0.0923184911648915,-299.204229865413
738534.46564845996908843517,-2.69569994201483,0.0461592455824458,-299.130375072481
738534.46564855042379349470,-2.74185918759728,0.0184636982329783,-299.167302468947
738534.46564864087849855423,-2.77878658406323,0.00923184911648915,-299.167302468947
738534.46564873133320361376,-2.81571398052919,-0.0276955473494674,-298.991897335734
738534.46564882178790867329,-2.83417767876217,-0.0184636982329783,-298.991897335734
738534.46564891224261373281,-2.84340952787866,-0.0369273964659566,-299.167302468947
738534.46564900258090347052,-2.81571398052919,-0.0184636982329783,-299.204229865413
738534.46564909303560853004,-2.84340952787866,-0.0461592455824458,-299.139606921598
738534.46564918349031358957,-2.84340952787866,-0.0184636982329783,-299.167302468947
738534.46564927394501864910,-2.86187322611164,-0.0369273964659566,-299.18576616718
738534.46564936439972370863,-2.86187322611164,-0.0276955473494674,-299.194998016297
738534.46564945485442876816,-2.88033692434461,-0.0553910946989349,-299.176534318064
738534.46564954530913382769,-2.8895687734611,-0.0369273964659566,-299.167302468947
738534.46564963564742356539,-2.8895687734611,-0.0553910946989349,-299.111911374248
738534.46564972610212862492,-2.8895687734611,-0.0461592455824458,-299.139606921598
738534.46564981655683368444,-2.89880062257759,-0.064622943815424,-299.130375072481
738534.46564990701153874397,-2.87110507522813,-0.0461592455824458,-299.130375072481
738534.46564999746624380350,-2.8895687734611,-0.0553910946989349,-299.139606921598
738534.46565008792094886303,-2.89880062257759,-0.0553910946989349,-299.176534318064
738534.46565017837565392256,-2.90803247169408,-0.0738547929319132,-299.194998016297
738534.46565026871394366026,-2.8895687734611,-0.064622943815424,-299.158070619831
738534.46565035916864871979,-2.8895687734611,-0.064622943815424,-299.139606921598
738534.46565044962335377932,-2.8895687734611,-0.0738547929319132,-299.102679525132
738534.46565054007805883884,-2.88033692434461,-0.0553910946989349,-299.074983977782
738534.46565063053276389837,-2.86187322611164,-0.064622943815424,-299.074983977782
738534.46565072098746895790,-2.8895687734611,-0.0461592455824458,-299.065752128666
738534.46565081144217401743,-2.86187322611164,-0.0553910946989349,-299.074983977782
738534.46565090178046375513,-2.85264137699515,-0.0461592455824458,-299.074983977782
738534.46565099223516881466,-2.86187322611164,-0.064622943815424,-299.065752128666
738534.46565108268987387419,-2.84340952787866,-0.0553910946989349,-299.05652027955
738534.46565117314457893372,-2.81571398052919,-0.0461592455824458,-299.111911374248
738534.46565126359928399324,-2.77878658406323,0.00923184911648915,-299.130375072481
738534.46565135405398905277,-2.76032288583026,-0.00923184911648915,-299.111911374248
738534.46565144450869411230,-2.77878658406323,0,-299.121143223365
738534.46565153484698385000,-2.77878658406323,-0.0276955473494674,-299.158070619831
738534.46565162530168890953,-2.54799035615101,0.156941434980316,-299.158070619831
738534.46565171575639396906,-2.8895687734611,-0.147709585863826,-299.093447676016
738534.46565180621109902859,-2.84340952787866,-0.0830866420484024,-299.148838770714
738534.46565189666580408812,-2.93572801904355,-0.0923184911648915,-299.158070619831
738534.46565198712050914764,-2.86187322611164,-0.0369273964659566,-299.065752128666
738534.46565207757521420717,-2.97265541550951,-0.129245887630848,-299.121143223365
738534.46565216791350394487,-2.96342356639302,-0.120014038514359,-299.130375072481
738534.46565225836820900440,-2.93572801904355,-0.0553910946989349,-298.954969939268
738534.46565234882291406393,-3.00035096285897,-0.120014038514359,-299.093447676016
738534.46565243927761912346,-3.00035096285897,-0.120014038514359,-299.21346171453
738534.46565252973232418299,-2.94495986816004,-0.064622943815424,-299.176534318064
738534.46565262018702924252,-2.97265541550951,-0.0923184911648915,-299.167302468947
738534.46565271052531898022,-3.05574205755791,-0.156941434980316,-299.18576616718
738534.46565280098002403975,-3.00958281197546,-0.138477736747337,-299.18576616718
738534.46565289143472909927,-3.02804651020844,-0.0923184911648915,-299.111911374248
738534.46565298188943415880,-2.88033692434461,-0.064622943815424,-299.167302468947
738534.46565307234413921833,-2.31719412823878,0.203100680562761,-299.139606921598
738534.46565316279884427786,-1.71712393566698,0.295419171727653,-299.010361033967
738534.46565325325354933739,-1.80021057771538,0.0738547929319132,-299.05652027955
738534.46565334359183907509,-2.50183111056856,-0.156941434980316,-299.130375072481
738534.46565343404654413462,-2.95419171727653,-0.572374645222327,-299.21346171453
738534.46565352450124919415,-2.97265541550951,-0.387737662892544,-299.241157261879
738534.46565361495595425367,-2.981887264626,-0.175405133213294,-299.222693563646
738534.46565370541065931320,-2.97265541550951,-0.129245887630848,-299.194998016297
738534.46565379586536437273,-3.00035096285897,-0.138477736747337,-299.121143223365
738534.46565388632006943226,-2.97265541550951,-0.11078218939787,-299.167302468947
738534.46565397665835916996,-2.97265541550951,-0.0738547929319132,-299.158070619831
738534.46565406711306422949,-3.02804651020844,-0.147709585863826,-299.121143223365
738534.46565415756776928902,-3.00958281197546,-0.101550340281381,-299.176534318064
738534.46565424802247434855,-3.00035096285897,-0.101550340281381,-299.111911374248
738534.46565433847717940807,-2.96342356639302,-0.0553910946989349,-299.158070619831
738534.46565442893188446760,-2.95419171727653,-0.0276955473494674,-299.18576616718
738534.46565451938658952713,-2.99111911374248,-0.101550340281381,-299.176534318064
738534.46565460972487926483,-2.99111911374248,-0.0738547929319132,-299.084215826899
738534.46565470017958432436,-2.93572801904355,-0.0461592455824458,-299.158070619831
738534.46565479063428938389,-2.90803247169408,0.0184636982329783,-299.167302468947
738534.46565488108899444342,-2.90803247169408,-0.00923184911648915,-299.158070619831
738534.46565497154369950294,-2.88033692434461,0.0276955473494674,-299.158070619831
738534.46565506199840456247,-2.90803247169408,-0.0276955473494674,-299.167302468947
738534.46565515245310962200,-2.78801843317972,0.101550340281381,-299.148838770714
738534.46565524279139935970,-2.91726432081057,-0.0276955473494674,-299.102679525132
738534.46565533324610441923,-2.85264137699515,0.064622943815424,-299.176534318064
738534.46565542370080947876,-2.8064821314127,0.0738547929319132,-299.148838770714
738534.46565551415551453829,-2.76032288583026,0.147709585863826,-299.05652027955
738534.46565560461021959782,-2.70493179113132,0.166173284096805,-299.093447676016
738534.46565569506492465734,-2.65877254554888,0.21233252967925,-299.001129184851
738534.46565578551962971687,-2.62184514908292,0.276955473494675,-298.890346995453
738534.46565587585791945457,-2.57568590350047,0.313882869960631,-298.918042542802
738534.46565596631262451410,-2.57568590350047,0.304651020844142,-299.019592883084
738534.46565605676732957363,-2.53875850703452,0.341578417310099,-298.991897335734
738534.46565614722203463316,-2.58491775261696,0.286187322611164,-298.973433637501
738534.46565623767673969269,-2.60338145084994,0.21233252967925,-298.991897335734
738534.46565632813144475222,-2.63107699819941,0.184636982329783,-299.047288430433
738534.46565641858614981174,-2.66800439466536,0.175405133213294,-299.05652027955
738534.46565650892443954945,-2.74185918759728,0.0738547929319132,-299.093447676016
738534.46565659937914460897,-2.84340952787866,-0.0369273964659566,-299.102679525132
738534.46565668983384966850,-2.86187322611164,-0.0276955473494674,-299.158070619831
738534.46565678028855472803,-2.86187322611164,-0.0369273964659566,-299.176534318064
738534.46565687074325978756,-2.90803247169408,-0.0830866420484024,-299.130375072481
738534.46565696119796484709,-2.94495986816004,-0.11078218939787,-299.204229865413
738534.46565705153625458479,-2.91726432081057,-0.0738547929319132,-299.167302468947
738534.46565714199095964432,-2.93572801904355,-0.064622943815424,-299.158070619831
738534.46565723244566470385,-2.94495986816004,-0.0923184911648915,-299.18576616718
738534.46565732290036976337,-2.95419171727653,-0.11078218939787,-299.194998016297
738534.46565741335507482290,-2.97265541550951,-0.11078218939787,-299.222693563646
738534.46565750380977988243,-2.96342356639302,-0.0923184911648915,-299.158070619831
738534.46565759426448494196,-2.97265541550951,-0.11078218939787,-299.176534318064
738534.46565768460277467966,-2.95419171727653,-0.11078218939787,-299.194998016297
738534.46565777505747973919,-2.96342356639302,-0.147709585863826,-299.231925412763
738534.46565786551218479872,-2.94495986816004,-0.120014038514359,-299.167302468947
738534.46565795596688985825,-2.90803247169408,-0.0553910946989349,-299.231925412763
738534.46565804642159491777,-2.90803247169408,-0.0553910946989349,-299.21346171453
738534.46565813687629997730,-2.93572801904355,-0.120014038514359,-299.231925412763
738534.46565822733100503683,-2.96342356639302,-0.156941434980316,-299.148838770714
738534.46565831766929477453,-2.94495986816004,-0.11078218939787,-299.204229865413
738534.46565840812399983406,-2.92649616992706,-0.129245887630848,-299.204229865413
738534.46565849857870489359,-2.88033692434461,-0.0369273964659566,-299.130375072481
738534.46565858903340995312,-2.8895687734611,-0.0461592455824458,-299.167302468947
738534.46565867948811501265,-2.96342356639302,-0.11078218939787,-299.167302468947
738534.46565876994282007217,-2.94495986816004,-0.101550340281381,-299.158070619831
738534.46565886039752513170,-2.90803247169408,-0.064622943815424,-299.148838770714
738534.46565895073581486940,-2.94495986816004,-0.11078218939787,-299.167302468947
738534.46565904119051992893,-2.94495986816004,-0.0738547929319132,-299.111911374248
738534.46565913164522498846,-2.8895687734611,-0.0830866420484024,-299.093447676016
738534.46565922209993004799,-2.94495986816004,-0.120014038514359,-299.084215826899
738534.46565931255463510752,-2.88033692434461,-0.0369273964659566,-298.954969939268
738534.46565940300934016705,-2.96342356639302,-0.0738547929319132,-299.001129184851
738534.46565949346404522657,-2.92649616992706,-0.11078218939787,-299.074983977782
738534.46565958380233496428,-2.92649616992706,-0.0553910946989349,-299.084215826899
738534.46565967425704002380,-2.87110507522813,-0.0369273964659566,-299.130375072481
738534.46565976471174508333,-2.94495986816004,-0.101550340281381,-299.111911374248
738534.46565985516645014286,-2.90803247169408,-0.0923184911648915,-299.148838770714
738534.46565994562115520239,-2.91726432081057,-0.064622943815424,-299.121143223365
738534.46566003607586026192,-2.92649616992706,-0.0830866420484024,-299.111911374248
738534.46566012653056532145,-2.90803247169408,-0.0923184911648915,-299.139606921598
738534.46566021686885505915,-2.90803247169408,-0.0553910946989349,-299.139606921598
738534.46566030732356011868,-2.93572801904355,-0.101550340281381,-299.139606921598
738534.46566039777826517820,-2.92649616992706,-0.0738547929319132,-299.121143223365
738534.46566048823297023773,-2.8895687734611,-0.064622943815424,-299.158070619831
738534.46566057868767529726,-2.93572801904355,-0.064622943815424,-299.139606921598
738534.46566066914238035679,-2.91726432081057,-0.11078218939787,-299.121143223365
738534.46566075959708541632,-2.86187322611164,-0.0461592455824458,-299.111911374248
738534.46566084993537515402,-2.89880062257759,-0.11078218939787,-299.148838770714
738534.46566094039008021355,-2.87110507522813,-0.064622943815424,-299.21346171453
