time_dn,ecg_projection_ll_ra_mV,ecg_projection_la_ra_mV,ecg_projection_vx_rl_mV
738534.42114689364098012447,-6.45306253242592,-2.24333933530686,-298.68724631489
738534.42114698409568518400,-6.42536698507645,-2.25257118442335,-298.678014465773
738534.42114707455039024353,-6.45306253242592,-2.25257118442335,-298.659550767541
738534.42114716488867998123,-6.41613513595996,-2.26180303353984,-298.650318918424
738534.42114725534338504076,-6.44383068330943,-2.24333933530686,-298.68724631489
738534.42114734579809010029,-6.41613513595996,-2.26180303353984,-298.724173711356
738534.42114743625279515982,-6.44383068330943,-2.25257118442335,-298.68724631489
738534.42114752670750021935,-6.40690328684347,-2.26180303353984,-298.733405560472
738534.42114761704578995705,-6.44383068330943,-2.25257118442335,-298.770332956938
738534.42114770750049501657,-6.41613513595996,-2.26180303353984,-298.761101107822
738534.42114779795520007610,-6.43459883419294,-2.25257118442335,-298.742637409589
738534.42114788840990513563,-6.41613513595996,-2.26180303353984,-298.770332956938
738534.42114797886461019516,-6.43459883419294,-2.26180303353984,-298.816492202521
738534.42114806931931525469,-6.41613513595996,-2.26180303353984,-298.696478164006
738534.42114815965760499239,-6.42536698507645,-2.25257118442335,-298.761101107822
738534.42114825011231005192,-6.42536698507645,-2.26180303353984,-298.779564806055
738534.42114834056701511145,-6.40690328684347,-2.26180303353984,-298.779564806055
738534.42114843102172017097,-6.42536698507645,-2.25257118442335,-298.724173711356
738534.42114852147642523050,-6.36997589037751,-2.25257118442335,-298.742637409589
738534.42114861181471496820,-6.36997589037751,-2.23410748619037,-298.742637409589
738534.42114870226942002773,-6.31458479567858,-2.24333933530686,-298.68724631489
738534.42114879272412508726,-6.34228034302805,-2.23410748619037,-298.751869258705
738534.42114888317883014679,-6.27765739921262,-2.22487563707389,-298.650318918424
738534.42114897363353520632,-6.27765739921262,-2.23410748619037,-298.641087069308
738534.42114906397182494402,-6.24073000274667,-2.23410748619037,-298.714941862239
738534.42114915442653000355,-6.30535294656209,-2.23410748619037,-298.742637409589
738534.42114924488123506308,-6.31458479567858,-2.23410748619037,-298.724173711356
738534.42114933533594012260,-6.35151219214454,-2.2156437879574,-298.678014465773
738534.42114942579064518213,-6.35151219214454,-2.26180303353984,-298.742637409589
738534.42114951612893491983,-6.39767143772698,-2.26180303353984,-298.742637409589
738534.42114960658363997936,-6.42536698507645,-2.27103488265633,-298.714941862239
738534.42114969703834503889,-6.42536698507645,-2.27103488265633,-298.733405560472
738534.42114978749305009842,-6.43459883419294,-2.27103488265633,-298.724173711356
738534.42114987794775515795,-6.42536698507645,-2.28026673177282,-298.733405560472
738534.42114996840246021748,-6.44383068330943,-2.27103488265633,-298.678014465773
738534.42115005874074995518,-6.42536698507645,-2.28026673177282,-298.678014465773
738534.42115014919545501471,-6.44383068330943,-2.26180303353984,-298.724173711356
738534.42115023965016007423,-6.41613513595996,-2.23410748619037,-298.68724631489
738534.42115033010486513376,-6.26842555009613,-2.16025269325846,-298.668782616657
738534.42115042055957019329,-5.80683309427168,-2.01254310739463,-298.604159672842
738534.42115051089785993099,-5.31754509109775,-2.00331125827815,-298.585695974609
738534.42115060135256499052,-5.13290810876797,-2.0402386547441,-298.622623371075
738534.42115069180727005005,-5.70528275399029,-2.2156437879574,-298.622623371075
738534.42115078226197510958,-6.19457075716422,-2.61261329996643,-298.761101107822
738534.42115087271668016911,-6.379207739494,-2.53875850703452,-298.761101107822
738534.42115096305496990681,-6.42536698507645,-2.3818170720542,-298.770332956938
738534.42115105350967496634,-6.39767143772698,-2.2987304300058,-298.696478164006
738534.42115114396438002586,-6.40690328684347,-2.27103488265633,-298.641087069308
738534.42115123441908508539,-6.38843958861049,-2.25257118442335,-298.678014465773
738534.42115132487379014492,-6.41613513595996,-2.24333933530686,-298.678014465773
738534.42115141521207988262,-6.38843958861049,-2.24333933530686,-298.650318918424
738534.42115150566678494215,-6.40690328684347,-2.22487563707389,-298.733405560472
738534.42115159612149000168,-6.36997589037751,-2.22487563707389,-298.742637409589
738534.42115168657619506121,-6.39767143772698,-2.2156437879574,-298.724173711356
738534.42115177703090012074,-6.36074404126102,-2.2156437879574,-298.714941862239
738534.42115186748560518026,-6.39767143772698,-2.19718008972442,-298.770332956938
738534.42115195782389491796,-6.35151219214454,-2.19718008972442,-298.761101107822
738534.42115204827859997749,-6.36074404126102,-2.18794824060793,-298.714941862239
738534.42115213873330503702,-6.34228034302805,-2.17871639149144,-298.751869258705
738534.42115222918801009655,-6.31458479567858,-2.17871639149144,-298.761101107822
738534.42115231964271515608,-6.31458479567858,-2.16025269325846,-298.724173711356
738534.42115240998100489378,-6.26842555009613,-2.14178899502548,-298.696478164006
738534.42115250043570995331,-6.27765739921262,-2.11409344767602,-298.641087069308
738534.42115259089041501284,-6.2130344553972,-2.09562974944304,-298.751869258705
738534.42115268134512007236,-6.2130344553972,-2.05870235297708,-298.68724631489
738534.42115277179982513189,-6.14841151158177,-2.03100680562761,-298.714941862239
738534.42115286213811486959,-6.13917966246528,-1.98484756004517,-298.724173711356
738534.42115295259281992912,-6.04686117130039,-1.94792016357921,-298.631855220191
738534.42115304304752498865,-6.02839747306742,-1.89252906888028,-298.714941862239
738534.42115313350223004818,-5.9545426801355,-1.86483352153081,-298.668782616657
738534.42115322395693510771,-5.94531083101901,-1.82790612506485,-298.613391521958
738534.42115331429522484541,-5.88068788720359,-1.81867427594836,-298.650318918424
738534.42115340474992990494,-5.91761528366955,-1.80944242683187,-298.641087069308
738534.42115349520463496447,-5.88068788720359,-1.82790612506485,-298.585695974609
738534.42115358565934002399,-5.92684713278603,-1.86483352153081,-298.659550767541
738534.42115367611404508352,-5.9545426801355,-1.93868831446272,-298.659550767541
738534.42115376656875014305,-6.04686117130039,-2.00331125827815,-298.659550767541
738534.42115385690703988075,-6.09302041688284,-2.06793420209357,-298.650318918424
738534.42115394736174494028,-6.12071596423231,-2.09562974944304,-298.668782616657
738534.42115403781644999981,-6.2130344553972,-2.14178899502548,-298.68724631489
738534.42115412827115505934,-6.22226630451369,-2.17871639149144,-298.68724631489
738534.42115421872586011887,-6.2961210974456,-2.19718008972442,-298.68724631489
738534.42115430906414985657,-6.27765739921262,-2.22487563707389,-298.714941862239
738534.42115439951885491610,-6.32381664479507,-2.22487563707389,-298.733405560472
738534.42115448997355997562,-6.30535294656209,-2.24333933530686,-298.678014465773
738534.42115458042826503515,-6.33304849391156,-2.23410748619037,-298.68724631489
738534.42115467088297009468,-6.30535294656209,-2.24333933530686,-298.696478164006
738534.42115476122125983238,-6.34228034302805,-2.24333933530686,-298.696478164006
738534.42115485167596489191,-6.30535294656209,-2.24333933530686,-298.714941862239
738534.42115494213066995144,-6.33304849391156,-2.24333933530686,-298.705710013123
738534.42115503258537501097,-6.31458479567858,-2.24333933530686,-298.705710013123
738534.42115512304008007050,-6.31458479567858,-2.23410748619037,-298.678014465773
738534.42115521349478513002,-6.2961210974456,-2.24333933530686,-298.705710013123
738534.42115530383307486773,-6.30535294656209,-2.24333933530686,-298.705710013123
738534.42115539428777992725,-6.2961210974456,-2.24333933530686,-298.659550767541
738534.42115548474248498678,-6.27765739921262,-2.24333933530686,-298.751869258705
738534.42115557519719004631,-6.28688924832911,-2.24333933530686,-298.68724631489
738534.42115566565189510584,-6.27765739921262,-2.24333933530686,-298.751869258705
738534.42115575599018484354,-6.2961210974456,-2.23410748619037,-298.779564806055
738534.42115584644488990307,-6.26842555009613,-2.24333933530686,-298.714941862239
738534.42115593689959496260,-6.2961210974456,-2.23410748619037,-298.678014465773
738534.42115602735430002213,-6.27765739921262,-2.24333933530686,-298.622623371075
738534.42115611780900508165,-6.30535294656209,-2.23410748619037,-298.788796655171
738534.42115620814729481936,-6.28688924832911,-2.24333933530686,-298.714941862239
738534.42115629860199987888,-6.31458479567858,-2.24333933530686,-298.798028504288
738534.42115638905670493841,-6.2961210974456,-2.24333933530686,-298.761101107822
738534.42115647951140999794,-6.30535294656209,-2.25257118442335,-298.705710013123
738534.42115656996611505747,-6.30535294656209,-2.25257118442335,-298.68724631489
738534.42115666030440479517,-6.30535294656209,-2.25257118442335,-298.68724631489
738534.42115675075910985470,-6.31458479567858,-2.25257118442335,-298.659550767541
738534.42115684121381491423,-6.30535294656209,-2.25257118442335,-298.678014465773
738534.42115693166851997375,-6.33304849391156,-2.25257118442335,-298.714941862239
738534.42115702212322503328,-6.30535294656209,-2.25257118442335,-298.705710013123
738534.42115711257793009281,-6.33304849391156,-2.24333933530686,-298.742637409589
738534.42115720291621983051,-6.30535294656209,-2.25257118442335,-298.733405560472
738534.42115729337092489004,-6.33304849391156,-2.24333933530686,-298.733405560472
738534.42115738382562994957,-6.30535294656209,-2.25257118442335,-298.696478164006
738534.42115747428033500910,-6.33304849391156,-2.24333933530686,-298.733405560472
738534.42115756473504006863,-6.30535294656209,-2.25257118442335,-298.613391521958
738534.42115765507332980633,-6.31458479567858,-2.25257118442335,-298.622623371075
738534.42115774552803486586,-6.31458479567858,-2.25257118442335,-298.724173711356
738534.42115783598273992538,-6.32381664479507,-2.25257118442335,-298.724173711356
738534.42115792643744498491,-6.31458479567858,-2.25257118442335,-298.705710013123
738534.42115801689215004444,-6.30535294656209,-2.25257118442335,-298.724173711356
738534.42115810723043978214,-6.32381664479507,-2.25257118442335,-298.761101107822
738534.42115819768514484167,-6.31458479567858,-2.26180303353984,-298.779564806055
738534.42115828813984990120,-6.33304849391156,-2.26180303353984,-298.696478164006
738534.42115837859455496073,-6.30535294656209,-2.26180303353984,-298.761101107822
738534.42115846904926002026,-6.33304849391156,-2.26180303353984,-298.742637409589
738534.42115855938754975796,-6.2961210974456,-2.26180303353984,-298.668782616657
738534.42115864984225481749,-6.33304849391156,-2.26180303353984,-298.742637409589
738534.42115874029695987701,-6.2961210974456,-2.26180303353984,-298.742637409589
738534.42115883075166493654,-6.32381664479507,-2.25257118442335,-298.714941862239
738534.42115892120636999607,-6.24996185186316,-2.25257118442335,-298.742637409589
738534.42115901166107505560,-6.25919370097964,-2.23410748619037,-298.751869258705
738534.42115910199936479330,-6.2130344553972,-2.23410748619037,-298.668782616657
738534.42115919245406985283,-6.24996185186316,-2.23410748619037,-298.696478164006
738534.42115928290877491236,-6.18533890804773,-2.22487563707389,-298.733405560472
738534.42115937336347997189,-6.18533890804773,-2.23410748619037,-298.68724631489
738534.42115946381818503141,-6.13917966246528,-2.22487563707389,-298.668782616657
738534.42115955415647476912,-6.14841151158177,-2.23410748619037,-298.576464125492
738534.42115964461117982864,-6.24996185186316,-2.24333933530686,-298.696478164006
738534.42115973506588488817,-6.23149815363018,-2.22487563707389,-298.696478164006
738534.42115982552058994770,-6.27765739921262,-2.24333933530686,-298.696478164006
738534.42115991597529500723,-6.27765739921262,-2.27103488265633,-298.742637409589
738534.42116000631358474493,-6.34228034302805,-2.26180303353984,-298.761101107822
738534.42116009676828980446,-6.30535294656209,-2.27103488265633,-298.770332956938
738534.42116018722299486399,-6.36074404126102,-2.27103488265633,-298.742637409589
738534.42116027767769992352,-6.31458479567858,-2.28026673177282,-298.751869258705
738534.42116036813240498304,-6.35151219214454,-2.27103488265633,-298.779564806055
738534.42116045847069472075,-6.33304849391156,-2.28026673177282,-298.733405560472
738534.42116054892539978027,-6.35151219214454,-2.27103488265633,-298.770332956938
738534.42116063938010483980,-6.32381664479507,-2.23410748619037,-298.779564806055
738534.42116072983480989933,-6.18533890804773,-2.16025269325846,-298.761101107822
738534.42116082028951495886,-5.72374645222327,-2.02177495651112,-298.68724631489
738534.42116091074422001839,-5.2713858455153,-2.00331125827815,-298.668782616657
738534.42116100108250975609,-5.05905331583605,-2.04947050386059,-298.68724631489
738534.42116109153721481562,-5.59450056459243,-2.17871639149144,-298.724173711356
738534.42116118199191987514,-6.10225226599933,-2.61261329996643,-298.733405560472
738534.42116127244662493467,-6.28688924832911,-2.54799035615101,-298.798028504288
738534.42116136290132999420,-6.33304849391156,-2.44644001586962,-298.807260353404
738534.42116145323961973190,-6.2961210974456,-2.32642597735527,-298.770332956938
738534.42116154369432479143,-6.32381664479507,-2.27103488265633,-298.724173711356
738534.42116163414902985096,-6.2961210974456,-2.26180303353984,-298.761101107822
738534.42116172460373491049,-6.32381664479507,-2.25257118442335,-298.751869258705
738534.42116181505843997002,-6.30535294656209,-2.24333933530686,-298.705710013123
738534.42116190539672970772,-6.33304849391156,-2.23410748619037,-298.733405560472
738534.42116199585143476725,-6.30535294656209,-2.23410748619037,-298.68724631489
738534.42116208630613982677,-6.31458479567858,-2.2156437879574,-298.659550767541
738534.42116217676084488630,-6.30535294656209,-2.2156437879574,-298.742637409589
738534.42116226721554994583,-6.2961210974456,-2.20641193884091,-298.761101107822
738534.42116235767025500536,-6.28688924832911,-2.19718008972442,-298.724173711356
738534.42116244800854474306,-6.26842555009613,-2.18794824060793,-298.733405560472
738534.42116253846324980259,-6.26842555009613,-2.17871639149144,-298.770332956938
738534.42116262891795486212,-6.24073000274667,-2.16025269325846,-298.724173711356
738534.42116271937265992165,-6.24073000274667,-2.15102084414197,-298.68724631489
738534.42116280982736498117,-6.19457075716422,-2.13255714590899,-298.714941862239
738534.42116290016565471888,-6.19457075716422,-2.11409344767602,-298.714941862239
738534.42116299062035977840,-6.14841151158177,-2.08639790032655,-298.484145634327
738534.42116308107506483793,-6.13917966246528,-2.05870235297708,-298.641087069308
738534.42116317152976989746,-6.06532486953337,-2.02177495651112,-298.696478164006
738534.42116326198447495699,-6.07455671864986,-2.00331125827815,-298.68724631489
738534.42116335232276469469,-6.02839747306742,-1.96638386181219,-298.659550767541
738534.42116344277746975422,-5.98223822748497,-1.92022461622974,-298.678014465773
738534.42116353323217481375,-5.93607898190252,-1.8740653706473,-298.641087069308
738534.42116362368687987328,-5.88991973632008,-1.83713797418134,-298.622623371075
738534.42116371414158493280,-5.8714560380871,-1.80944242683187,-298.659550767541
738534.42116380447987467051,-5.83452864162114,-1.7909787285989,-298.613391521958
738534.42116389493457973003,-5.82529679250465,-1.80021057771538,-298.594927823725
738534.42116398538928478956,-5.82529679250465,-1.82790612506485,-298.613391521958
738534.42116407584398984909,-5.88068788720359,-1.8740653706473,-298.668782616657
738534.42116416629869490862,-5.91761528366955,-1.94792016357921,-298.733405560472
738534.42116425675339996815,-6.00993377483444,-2.01254310739463,-298.724173711356
738534.42116434709168970585,-6.05609302041688,-2.07716605121006,-298.714941862239
738534.42116443754639476538,-6.13917966246528,-2.1233252967925,-298.678014465773
738534.42116452800109982491,-6.14841151158177,-2.16948454237495,-298.678014465773
738534.42116461845580488443,-6.22226630451369,-2.19718008972442,-298.668782616657
738534.42116470891050994396,-6.23149815363018,-2.2156437879574,-298.696478164006
738534.42116479924879968166,-6.26842555009613,-2.22487563707389,-298.733405560472
738534.42116488970350474119,-6.24073000274667,-2.24333933530686,-298.68724631489
738534.42116498015820980072,-6.28688924832911,-2.23410748619037,-298.770332956938
738534.42116507061291486025,-6.25919370097964,-2.24333933530686,-298.761101107822
738534.42116516106761991978,-6.25919370097964,-2.23410748619037,-298.742637409589
738534.42116525140590965748,-6.28688924832911,-2.23410748619037,-298.68724631489
738534.42116534186061471701,-6.26842555009613,-2.24333933530686,-298.751869258705
738534.42116543231531977654,-6.28688924832911,-2.23410748619037,-298.751869258705
738534.42116552277002483606,-6.25919370097964,-2.24333933530686,-298.705710013123
738534.42116561322472989559,-6.27765739921262,-2.23410748619037,-298.742637409589
738534.42116570356301963329,-6.24996185186316,-2.24333933530686,-298.751869258705
738534.42116579401772469282,-6.27765739921262,-2.23410748619037,-298.742637409589
738534.42116588447242975235,-6.24073000274667,-2.24333933530686,-298.733405560472
738534.42116597492713481188,-6.26842555009613,-2.23410748619037,-298.751869258705
738534.42116606538183987141,-6.23149815363018,-2.23410748619037,-298.742637409589
738534.42116615583654493093,-6.26842555009613,-2.23410748619037,-298.641087069308
738534.42116624617483466864,-6.23149815363018,-2.23410748619037,-298.724173711356
738534.42116633662953972816,-6.25919370097964,-2.23410748619037,-298.733405560472
738534.42116642708424478769,-6.24073000274667,-2.24333933530686,-298.733405560472
738534.42116651753894984722,-6.26842555009613,-2.23410748619037,-298.511841181677
738534.42116660799365490675,-6.24996185186316,-2.24333933530686,-298.678014465773
738534.42116669833194464445,-6.25919370097964,-2.23410748619037,-298.751869258705
738534.42116678878664970398,-6.25919370097964,-2.24333933530686,-298.68724631489
738534.42116687924135476351,-6.26842555009613,-2.24333933530686,-298.724173711356
738534.42116696969605982304,-6.27765739921262,-2.24333933530686,-298.761101107822
738534.42116706015076488256,-6.24996185186316,-2.25257118442335,-298.724173711356
738534.42116715048905462027,-6.30535294656209,-2.25257118442335,-298.68724631489
738534.42116724094375967979,-6.24996185186316,-2.25257118442335,-298.668782616657
738534.42116733139846473932,-6.30535294656209,-2.25257118442335,-298.742637409589
738534.42116742185316979885,-6.26842555009613,-2.26180303353984,-298.751869258705
738534.42116751230787485838,-6.2961210974456,-2.25257118442335,-298.696478164006
738534.42116760264616459608,-6.26842555009613,-2.26180303353984,-298.696478164006
738534.42116769310086965561,-6.2961210974456,-2.25257118442335,-298.751869258705
738534.42116778355557471514,-6.27765739921262,-2.26180303353984,-298.751869258705
738534.42116787401027977467,-6.28688924832911,-2.25257118442335,-298.696478164006
738534.42116796446498483419,-6.28688924832911,-2.26180303353984,-298.761101107822
738534.42116805491968989372,-6.2961210974456,-2.25257118442335,-298.761101107822
738534.42116814525797963142,-6.27765739921262,-2.26180303353984,-298.705710013123
738534.42116823571268469095,-6.28688924832911,-2.26180303353984,-298.714941862239
738534.42116832616738975048,-6.28688924832911,-2.26180303353984,-298.705710013123
738534.42116841662209481001,-6.27765739921262,-2.26180303353984,-298.714941862239
738534.42116850707679986954,-6.30535294656209,-2.26180303353984,-298.705710013123
738534.42116859741508960724,-6.27765739921262,-2.26180303353984,-298.733405560472
738534.42116868786979466677,-6.28688924832911,-2.26180303353984,-298.770332956938
738534.42116877832449972630,-6.26842555009613,-2.26180303353984,-298.724173711356
738534.42116886877920478582,-6.2961210974456,-2.26180303353984,-298.779564806055
738534.42116895923390984535,-6.27765739921262,-2.27103488265633,-298.770332956938
738534.42116904957219958305,-6.27765739921262,-2.26180303353984,-298.761101107822
738534.42116914002690464258,-6.28688924832911,-2.27103488265633,-298.779564806055
738534.42116923048160970211,-6.28688924832911,-2.26180303353984,-298.779564806055
738534.42116932093631476164,-6.26842555009613,-2.26180303353984,-298.788796655171
738534.42116941139101982117,-6.26842555009613,-2.25257118442335,-298.733405560472
738534.42116950184572488070,-6.25919370097964,-2.24333933530686,-298.779564806055
738534.42116959218401461840,-6.25919370097964,-2.24333933530686,-298.770332956938
738534.42116968263871967793,-6.25919370097964,-2.25257118442335,-298.733405560472
738534.42116977309342473745,-6.19457075716422,-2.22487563707389,-298.761101107822
738534.42116986354812979698,-6.12071596423231,-2.1233252967925,-298.761101107822
738534.42116995400283485651,-6.16687520981475,-2.2156437879574,-298.751869258705
738534.42117004434112459421,-6.19457075716422,-2.20641193884091,-298.751869258705
738534.42117013479582965374,-6.17610705893124,-2.26180303353984,-298.770332956938
738534.42117022525053471327,-6.18533890804773,-2.28026673177282,-298.770332956938
738534.42117031570523977280,-6.15764336069826,-2.28949858088931,-298.761101107822
738534.42117040615994483232,-6.24073000274667,-2.28026673177282,-298.770332956938
738534.42117049649823457003,-6.11148411511582,-2.14178899502548,-298.761101107822
738534.42117058695293962955,-6.17610705893124,-2.15102084414197,-298.724173711356
738534.42117067740764468908,-6.15764336069826,-2.19718008972442,-298.770332956938
738534.42117076786234974861,-6.18533890804773,-2.19718008972442,-298.761101107822
738534.42117085831705480814,-6.1299478133488,-2.09562974944304,-298.742637409589
738534.42117094865534454584,-6.35151219214454,-2.33565782647175,-298.604159672842
738534.42117103911004960537,-6.44383068330943,-2.41874446852016,-298.761101107822
738534.42117112956475466490,-6.379207739494,-2.37258522293771,-298.761101107822
738534.42117122001945972443,-6.40690328684347,-2.37258522293771,-298.751869258705
738534.42117131047416478395,-6.33304849391156,-2.32642597735527,-298.733405560472
738534.42117140092886984348,-6.35151219214454,-2.2987304300058,-298.761101107822
738534.42117149126715958118,-6.25919370097964,-2.2156437879574,-298.751869258705
738534.42117158172186464071,-6.04686117130039,-2.10486159855953,-298.668782616657
738534.42117167217656970024,-5.60373241370891,-1.99407940916166,-298.631855220191
738534.42117176263127475977,-5.12367625965148,-1.98484756004517,-298.604159672842
738534.42117185308597981930,-4.99443037202063,-1.99407940916166,-298.558000427259
738534.42117194342426955700,-5.86222418897061,-2.37258522293771,-298.668782616657
738534.42117203387897461653,-6.1299478133488,-2.62184514908292,-298.751869258705
738534.42117212433367967606,-6.32381664479507,-2.52029480880154,-298.761101107822
738534.42117221478838473558,-6.31458479567858,-2.37258522293771,-298.724173711356
738534.42117230524308979511,-6.26842555009613,-2.24333933530686,-298.770332956938
738534.42117239558137953281,-6.2130344553972,-2.19718008972442,-298.761101107822
738534.42117248603608459234,-6.24073000274667,-2.18794824060793,-298.724173711356
738534.42117257649078965187,-6.2961210974456,-2.23410748619037,-298.668782616657
738534.42117266694549471140,-6.33304849391156,-2.30796227912229,-298.761101107822
738534.42117275740019977093,-6.28688924832911,-2.2156437879574,-298.761101107822
738534.42117284773848950863,-6.25919370097964,-2.22487563707389,-298.714941862239
738534.42117293819319456816,-6.36997589037751,-2.2987304300058,-298.770332956938
738534.42117302864789962769,-6.30535294656209,-2.27103488265633,-298.761101107822
738534.42117311910260468721,-6.30535294656209,-2.22487563707389,-298.751869258705
738534.42117320955730974674,-6.14841151158177,-2.10486159855953,-298.733405560472
738534.42117330001201480627,-6.30535294656209,-2.20641193884091,-298.751869258705
738534.42117339035030454397,-6.17610705893124,-2.1233252967925,-298.742637409589
738534.42117348080500960350,-6.26842555009613,-2.19718008972442,-298.705710013123
738534.42117357125971466303,-6.20380260628071,-2.16948454237495,-298.631855220191
738534.42117366171441972256,-6.10225226599933,-2.0402386547441,-298.659550767541
738534.42117375216912478209,-6.18533890804773,-2.15102084414197,-298.68724631489
738534.42117384250741451979,-6.17610705893124,-2.11409344767602,-298.742637409589
738534.42117393296211957932,-6.11148411511582,-2.05870235297708,-298.733405560472
738534.42117402341682463884,-6.05609302041688,-2.01254310739463,-298.696478164006
738534.42117411387152969837,-6.01916562395093,-1.96638386181219,-298.705710013123
738534.42117420432623475790,-5.94531083101901,-1.91099276711325,-298.705710013123
738534.42117429466452449560,-5.93607898190252,-1.89252906888028,-298.68724631489
738534.42117438511922955513,-5.88068788720359,-1.86483352153081,-298.622623371075
738534.42117447557393461466,-5.88068788720359,-1.83713797418134,-298.678014465773
738534.42117456602863967419,-5.76990569780572,-1.76328318124943,-298.668782616657
738534.42117465648334473372,-5.83452864162114,-1.80021057771538,-298.650318918424
738534.42117474682163447142,-5.74221015045625,-1.74481948301645,-298.659550767541
738534.42117483727633953094,-5.7883693960387,-1.7909787285989,-298.668782616657
738534.42117492773104459047,-5.79760124515519,-1.84636982329783,-298.678014465773
738534.42117501818574965000,-5.91761528366955,-1.9571520126957,-298.659550767541
738534.42117510864045470953,-5.90838343455306,-1.96638386181219,-298.705710013123
738534.42117519909515976906,-5.99147007660146,-2.0402386547441,-298.705710013123
738534.42117528943344950676,-6.11148411511582,-2.15102084414197,-298.742637409589
738534.42117537988815456629,-6.15764336069826,-2.19718008972442,-298.751869258705
738534.42117547034285962582,-6.11148411511582,-2.13255714590899,-298.751869258705
738534.42117556079756468534,-6.17610705893124,-2.2156437879574,-298.724173711356
738534.42117565125226974487,-6.2130344553972,-2.2156437879574,-298.678014465773
738534.42117574159055948257,-6.11148411511582,-2.13255714590899,-298.696478164006
738534.42117583204526454210,-6.22226630451369,-2.22487563707389,-298.724173711356
738534.42117592249996960163,-6.16687520981475,-2.19718008972442,-298.714941862239
738534.42117601295467466116,-6.26842555009613,-2.28026673177282,-298.714941862239
738534.42117610340937972069,-6.23149815363018,-2.27103488265633,-298.742637409589
738534.42117619374766945839,-6.22226630451369,-2.2156437879574,-298.696478164006
738534.42117628420237451792,-6.15764336069826,-2.20641193884091,-298.68724631489
738534.42117637465707957745,-6.18533890804773,-2.22487563707389,-298.668782616657
738534.42117646511178463697,-6.20380260628071,-2.23410748619037,-298.659550767541
738534.42117655556648969650,-6.12071596423231,-2.16948454237495,-298.678014465773
738534.42117664602119475603,-6.19457075716422,-2.22487563707389,-298.68724631489
738534.42117673635948449373,-6.18533890804773,-2.24333933530686,-298.678014465773
738534.42117682681418955326,-6.22226630451369,-2.24333933530686,-298.659550767541
738534.42117691726889461279,-6.18533890804773,-2.25257118442335,-298.751869258705
738534.42117700772359967232,-6.22226630451369,-2.27103488265633,-298.761101107822
738534.42117709817830473185,-6.19457075716422,-2.25257118442335,-298.678014465773
738534.42117718851659446955,-6.20380260628071,-2.23410748619037,-298.659550767541
738534.42117727897129952908,-6.17610705893124,-2.24333933530686,-298.733405560472
738534.42117736942600458860,-6.20380260628071,-2.2156437879574,-298.816492202521
738534.42117745988070964813,-6.17610705893124,-2.22487563707389,-298.733405560472
738534.42117755033541470766,-6.2130344553972,-2.22487563707389,-298.779564806055
738534.42117764067370444536,-6.17610705893124,-2.22487563707389,-298.770332956938
738534.42117773112840950489,-6.20380260628071,-2.2156437879574,-298.770332956938
738534.42117782158311456442,-6.15764336069826,-2.22487563707389,-298.798028504288
738534.42117791203781962395,-6.22226630451369,-2.24333933530686,-298.834955900754
738534.42117800249252468348,-6.20380260628071,-2.24333933530686,-298.807260353404
738534.42117809283081442118,-6.22226630451369,-2.24333933530686,-298.733405560472
738534.42117818328551948071,-6.24073000274667,-2.24333933530686,-298.761101107822
738534.42117827374022454023,-6.20380260628071,-2.24333933530686,-298.779564806055
738534.42117836419492959976,-6.23149815363018,-2.23410748619037,-298.807260353404
738534.42117845464963465929,-6.19457075716422,-2.24333933530686,-298.770332956938
738534.42117854510433971882,-6.23149815363018,-2.23410748619037,-298.816492202521
738534.42117863544262945652,-6.19457075716422,-2.23410748619037,-298.825724051637
738534.42117872589733451605,-6.22226630451369,-2.22487563707389,-298.761101107822
738534.42117881635203957558,-6.19457075716422,-2.23410748619037,-298.770332956938
738534.42117890680674463511,-6.23149815363018,-2.22487563707389,-298.770332956938
738534.42117899726144969463,-6.19457075716422,-2.23410748619037,-298.742637409589
738534.42117908759973943233,-6.23149815363018,-2.22487563707389,-298.770332956938
738534.42117917805444449186,-6.22226630451369,-2.23410748619037,-298.761101107822
738534.42117926850914955139,-6.22226630451369,-2.22487563707389,-298.714941862239
738534.42117935896385461092,-6.2130344553972,-2.24333933530686,-298.770332956938
738534.42117944941855967045,-6.23149815363018,-2.23410748619037,-298.770332956938
738534.42117953975684940815,-6.20380260628071,-2.23410748619037,-298.724173711356
738534.42117963021155446768,-6.22226630451369,-2.22487563707389,-298.770332956938
738534.42117972066625952721,-6.2130344553972,-2.23410748619037,-298.779564806055
738534.42117981112096458673,-6.17610705893124,-2.2156437879574,-298.761101107822
738534.42117990157566964626,-6.18533890804773,-2.2156437879574,-298.761101107822
738534.42117999191395938396,-6.20380260628071,-2.2156437879574,-298.714941862239
738534.42118008236866444349,-6.22226630451369,-2.20641193884091,-298.742637409589
738534.42118017282336950302,-6.18533890804773,-2.20641193884091,-298.779564806055
738534.42118026327807456255,-6.19457075716422,-2.18794824060793,-298.742637409589
738534.42118035373277962208,-6.15764336069826,-2.19718008972442,-298.733405560472
738534.42118044418748468161,-6.14841151158177,-2.18794824060793,-298.779564806055
738534.42118053452577441931,-6.10225226599933,-2.17871639149144,-298.770332956938
738534.42118062498047947884,-6.12071596423231,-2.17871639149144,-298.696478164006
738534.42118071543518453836,-6.09302041688284,-2.17871639149144,-298.631855220191
738534.42118080588988959789,-6.06532486953337,-2.15102084414197,-298.714941862239
738534.42118089634459465742,-6.02839747306742,-2.16948454237495,-298.705710013123
738534.42118098668288439512,-6.00070192571795,-2.14178899502548,-298.714941862239
738534.42118107713758945465,-6.06532486953337,-2.14178899502548,-298.724173711356
738534.42118116759229451418,-6.10225226599933,-2.13255714590899,-298.742637409589
738534.42118125804699957371,-6.14841151158177,-2.13255714590899,-298.742637409589
738534.42118134850170463324,-6.14841151158177,-2.16948454237495,-298.770332956938
738534.42118143883999437094,-6.20380260628071,-2.17871639149144,-298.807260353404
738534.42118152929469943047,-6.18533890804773,-2.17871639149144,-298.87188329722
738534.42118161974940448999,-6.2130344553972,-2.15102084414197,-298.825724051637
738534.42118171020410954952,-6.18533890804773,-2.15102084414197,-298.779564806055
738534.42118180065881460905,-6.22226630451369,-2.15102084414197,-298.825724051637
738534.42118189099710434675,-6.19457075716422,-2.16025269325846,-298.825724051637
738534.42118198145180940628,-6.20380260628071,-2.14178899502548,-298.825724051637
738534.42118207190651446581,-6.18533890804773,-2.15102084414197,-298.788796655171
738534.42118216236121952534,-6.18533890804773,-2.09562974944304,-298.853419598987
738534.42118225281592458487,-6.00070192571795,-2.03100680562761,-298.779564806055
738534.42118234327062964439,-5.51141392254402,-1.8740653706473,-298.696478164006
738534.42118243360891938210,-4.9390392773217,-1.8740653706473,-298.696478164006
738534.42118252406362444162,-4.75440229499191,-1.88329721976379,-298.705710013123
738534.42118261451832950115,-5.42832728049562,-2.07716605121006,-298.761101107822
738534.42118270497303456068,-5.91761528366955,-2.42797631763665,-298.862651448103
738534.42118279542773962021,-6.14841151158177,-2.34488967558824,-298.87188329722
738534.42118288576602935791,-6.13917966246528,-2.22487563707389,-298.862651448103
738534.42118297622073441744,-6.19457075716422,-2.16948454237495,-298.84418774987
738534.42118306667543947697,-6.15764336069826,-2.15102084414197,-298.770332956938
738534.42118315713014453650,-6.20380260628071,-2.15102084414197,-298.761101107822
738534.42118324758484959602,-6.14841151158177,-2.14178899502548,-298.751869258705
738534.42118333792313933372,-6.16687520981475,-2.10486159855953,-298.779564806055
738534.42118342837784439325,-6.12071596423231,-2.11409344767602,-298.751869258705
738534.42118351883254945278,-6.16687520981475,-2.10486159855953,-298.807260353404
738534.42118360928725451231,-6.14841151158177,-2.11409344767602,-298.770332956938
738534.42118369974195957184,-6.2130344553972,-2.16025269325846,-298.807260353404
738534.42118379019666463137,-6.18533890804773,-2.14178899502548,-298.798028504288
738534.42118388053495436907,-6.17610705893124,-2.1233252967925,-298.770332956938
738534.42118397098965942860,-6.20380260628071,-2.11409344767602,-298.770332956938
738534.42118406144436448812,-6.13917966246528,-2.10486159855953,-298.714941862239
738534.42118415189906954765,-6.17610705893124,-2.09562974944304,-298.678014465773
738534.42118424235377460718,-6.12071596423231,-2.07716605121006,-298.613391521958
738534.42118433269206434488,-6.10225226599933,-2.04947050386059,-298.659550767541
738534.42118442314676940441,-6.02839747306742,-2.03100680562761,-298.714941862239
738534.42118451360147446394,-6.06532486953337,-2.01254310739463,-298.770332956938
738534.42118460405617952347,-6.00070192571795,-1.98484756004517,-298.742637409589
738534.42118469451088458300,-6.00993377483444,-1.94792016357921,-298.751869258705
738534.42118478484917432070,-5.91761528366955,-1.91099276711325,-298.742637409589
738534.42118487530387938023,-5.92684713278603,-1.8740653706473,-298.733405560472
738534.42118496575858443975,-5.84376049073763,-1.84636982329783,-298.751869258705
738534.42118505621328949928,-5.80683309427168,-1.7909787285989,-298.779564806055
738534.42118514666799455881,-5.75144199957274,-1.78174687948241,-298.659550767541
738534.42118523700628429651,-5.76067384868923,-1.74481948301645,-298.724173711356
738534.42118532746098935604,-5.71451460310678,-1.75405133213294,-298.68724631489
738534.42118541791569441557,-5.70528275399029,-1.75405133213294,-298.659550767541
738534.42118550837039947510,-5.74221015045625,-1.80021057771538,-298.668782616657
738534.42118559882510453463,-5.80683309427168,-1.85560167241432,-298.678014465773
738534.42118568927980959415,-5.86222418897061,-1.88329721976379,-298.68724631489
738534.42118577961809933186,-5.88068788720359,-1.94792016357921,-298.696478164006
738534.42118587007280439138,-5.97300637836848,-1.99407940916166,-298.779564806055
738534.42118596052750945091,-6.02839747306742,-2.0402386547441,-298.761101107822
738534.42118605098221451044,-6.09302041688284,-2.06793420209357,-298.825724051637
738534.42118614143691956997,-6.10225226599933,-2.11409344767602,-298.816492202521
738534.42118623177520930767,-6.14841151158177,-2.1233252967925,-298.798028504288
738534.42118632222991436720,-6.13917966246528,-2.14178899502548,-298.816492202521
738534.42118641268461942673,-6.17610705893124,-2.13255714590899,-298.825724051637
738534.42118650313932448626,-6.16687520981475,-2.14178899502548,-298.853419598987
738534.42118659359402954578,-6.17610705893124,-2.14178899502548,-298.788796655171
738534.42118668393231928349,-6.17610705893124,-2.15102084414197,-298.825724051637
738534.42118677438702434301,-6.18533890804773,-2.16025269325846,-298.853419598987
738534.42118686484172940254,-6.17610705893124,-2.15102084414197,-298.853419598987
738534.42118695529643446207,-6.15764336069826,-2.14178899502548,-298.834955900754
738534.42118704575113952160,-6.18533890804773,-2.15102084414197,-298.834955900754
738534.42118713608942925930,-6.17610705893124,-2.14178899502548,-298.834955900754
738534.42118722654413431883,-6.18533890804773,-2.13255714590899,-298.798028504288
738534.42118731699883937836,-6.14841151158177,-2.13255714590899,-298.84418774987
738534.42118740745354443789,-6.17610705893124,-2.15102084414197,-298.825724051637
738534.42118749790824949741,-6.13917966246528,-2.16025269325846,-298.779564806055
738534.42118758836295455694,-6.16687520981475,-2.15102084414197,-298.770332956938
738534.42118767870124429464,-6.14841151158177,-2.14178899502548,-298.705710013123
738534.42118776915594935417,-6.14841151158177,-2.14178899502548,-298.650318918424
738534.42118785961065441370,-6.15764336069826,-2.15102084414197,-298.779564806055
738534.42118795006535947323,-6.16687520981475,-2.14178899502548,-298.751869258705
738534.42118804052006453276,-6.16687520981475,-2.13255714590899,-298.770332956938
738534.42118813085835427046,-6.15764336069826,-2.13255714590899,-298.788796655171
738534.42118822131305932999,-6.19457075716422,-2.15102084414197,-298.798028504288
738534.42118831176776438951,-6.20380260628071,-2.15102084414197,-298.816492202521
738534.42118840222246944904,-6.2130344553972,-2.15102084414197,-298.798028504288
738534.42118849267717450857,-6.17610705893124,-2.15102084414197,-298.816492202521
738534.42118858301546424627,-6.22226630451369,-2.15102084414197,-298.779564806055
738534.42118867347016930580,-6.19457075716422,-2.16025269325846,-298.798028504288
738534.42118876392487436533,-6.23149815363018,-2.16025269325846,-298.807260353404
738534.42118885437957942486,-6.18533890804773,-2.16025269325846,-298.825724051637
738534.42118894483428448439,-6.22226630451369,-2.15102084414197,-298.84418774987
738534.42118903517257422209,-6.17610705893124,-2.16025269325846,-298.788796655171
738534.42118912562727928162,-6.25919370097964,-2.16025269325846,-298.825724051637
738534.42118921608198434114,-6.18533890804773,-2.16948454237495,-298.84418774987
738534.42118930653668940067,-6.2130344553972,-2.15102084414197,-298.834955900754
738534.42118939699139446020,-6.20380260628071,-2.16025269325846,-298.761101107822
738534.42118948744609951973,-6.2130344553972,-2.16025269325846,-298.825724051637
738534.42118957778438925743,-6.22226630451369,-2.15102084414197,-298.834955900754
738534.42118966823909431696,-6.2130344553972,-2.16948454237495,-298.825724051637
738534.42118975869379937649,-6.24073000274667,-2.16948454237495,-298.834955900754
738534.42118984914850443602,-6.23149815363018,-2.16948454237495,-298.84418774987
738534.42118993960320949554,-6.24996185186316,-2.16025269325846,-298.84418774987
738534.42119002994149923325,-6.20380260628071,-2.16948454237495,-298.834955900754
738534.42119012039620429277,-6.23149815363018,-2.16025269325846,-298.834955900754
738534.42119021085090935230,-6.23149815363018,-2.16948454237495,-298.890346995453
738534.42119030130561441183,-6.30535294656209,-2.18794824060793,-298.853419598987
738534.42119039176031947136,-6.23149815363018,-2.19718008972442,-298.84418774987
738534.42119048209860920906,-6.28688924832911,-2.16948454237495,-298.862651448103
738534.42119057255331426859,-6.20380260628071,-2.16025269325846,-298.84418774987
738534.42119066300801932812,-6.17610705893124,-2.1233252967925,-298.825724051637
738534.42119075346272438765,-6.11148411511582,-2.1233252967925,-298.853419598987
738534.42119084391742944717,-6.13917966246528,-2.1233252967925,-298.87188329722
738534.42119093437213450670,-6.10225226599933,-2.15102084414197,-298.816492202521
738534.42119102471042424440,-6.12071596423231,-2.14178899502548,-298.87188329722
738534.42119111516512930393,-6.04686117130039,-2.15102084414197,-298.899578844569
738534.42119120561983436346,-6.05609302041688,-2.15102084414197,-298.84418774987
738534.42119129607453942299,-6.08378856776635,-2.16025269325846,-298.696478164006
738534.42119138652924448252,-6.14841151158177,-2.19718008972442,-298.899578844569
738534.42119147686753422022,-6.16687520981475,-2.1233252967925,-298.834955900754
738534.42119156732223927975,-6.16687520981475,-2.18794824060793,-298.761101107822
738534.42119165777694433928,-6.23149815363018,-2.17871639149144,-298.816492202521
738534.42119174823164939880,-6.18533890804773,-2.16025269325846,-298.798028504288
738534.42119183868635445833,-6.25919370097964,-2.16025269325846,-298.788796655171
738534.42119192902464419603,-6.23149815363018,-2.17871639149144,-298.779564806055
738534.42119201947934925556,-6.26842555009613,-2.17871639149144,-298.779564806055
738534.42119210993405431509,-6.24073000274667,-2.16948454237495,-298.834955900754
738534.42119220038875937462,-6.25919370097964,-2.16948454237495,-298.779564806055
738534.42119229084346443415,-6.23149815363018,-2.18794824060793,-298.816492202521
738534.42119238118175417185,-6.26842555009613,-2.11409344767602,-298.788796655171
738534.42119247163645923138,-6.11148411511582,-2.05870235297708,-298.751869258705
738534.42119256209116429090,-5.53910946989349,-1.93868831446272,-298.751869258705
738534.42119265254586935043,-4.90211188085574,-1.97561571092868,-298.724173711356
738534.42119274300057440996,-4.74517044587542,-1.99407940916166,-298.650318918424
738534.42119283345527946949,-5.47448652607807,-2.16948454237495,-298.733405560472
738534.42119292379356920719,-5.97300637836848,-2.44644001586962,-298.862651448103
738534.42119301424827426672,-6.24073000274667,-2.36335337382122,-298.807260353404
738534.42119310470297932625,-6.23149815363018,-2.2987304300058,-298.807260353404
738534.42119319515768438578,-6.25919370097964,-2.19718008972442,-298.788796655171
738534.42119328561238944530,-6.24073000274667,-2.16948454237495,-298.816492202521
738534.42119337595067918301,-6.28688924832911,-2.14178899502548,-298.825724051637
738534.42119346640538424253,-6.24996185186316,-2.15102084414197,-298.788796655171
738534.42119355686008930206,-6.27765739921262,-2.14178899502548,-298.798028504288
738534.42119364731479436159,-6.25919370097964,-2.14178899502548,-298.779564806055
738534.42119373776949942112,-6.24996185186316,-2.13255714590899,-298.807260353404
738534.42119382810778915882,-6.25919370097964,-2.14178899502548,-298.816492202521
738534.42119391856249421835,-6.24073000274667,-2.11409344767602,-298.853419598987
738534.42119400901719927788,-6.24073000274667,-2.09562974944304,-298.853419598987
738534.42119409947190433741,-6.22226630451369,-2.09562974944304,-298.834955900754
738534.42119418992660939693,-6.2130344553972,-2.08639790032655,-298.798028504288
738534.42119428026489913464,-6.22226630451369,-2.06793420209357,-298.84418774987
738534.42119437071960419416,-6.2130344553972,-2.05870235297708,-298.862651448103
738534.42119446117430925369,-6.13917966246528,-2.04947050386059,-298.779564806055
738534.42119455162901431322,-6.14841151158177,-2.03100680562761,-298.834955900754
738534.42119464208371937275,-6.09302041688284,-2.01254310739463,-298.816492202521
738534.42119473253842443228,-6.08378856776635,-1.99407940916166,-298.622623371075
738534.42119482287671416998,-6.00070192571795,-1.97561571092868,-298.761101107822
738534.42119491333141922951,-6.01916562395093,-1.92945646534623,-298.816492202521
738534.42119500378612428904,-6.00070192571795,-1.92022461622974,-298.788796655171
738534.42119509424082934856,-5.88991973632008,-1.8740653706473,-298.705710013123
738534.42119518469553440809,-5.85299233985412,-1.84636982329783,-298.696478164006
738534.42119527503382414579,-5.7883693960387,-1.81867427594836,-298.68724631489
738534.42119536548852920532,-5.75144199957274,-1.7909787285989,-298.678014465773
738534.42119545594323426485,-5.69605090487381,-1.76328318124943,-298.714941862239
738534.42119554639793932438,-5.69605090487381,-1.74481948301645,-298.788796655171
738534.42119563685264438391,-5.66835535752434,-1.76328318124943,-298.788796655171
738534.42119572719093412161,-5.70528275399029,-1.7909787285989,-298.751869258705
738534.42119581764563918114,-5.72374645222327,-1.83713797418134,-298.807260353404
738534.42119590810034424067,-5.82529679250465,-1.90176091799676,-298.816492202521
738534.42119599855504930019,-5.89915158543657,-1.98484756004517,-298.751869258705
738534.42119608900975435972,-5.97300637836848,-2.01254310739463,-298.770332956938
738534.42119617934804409742,-5.99147007660146,-2.06793420209357,-298.751869258705
738534.42119626980274915695,-6.10225226599933,-2.08639790032655,-298.770332956938
738534.42119636025745421648,-6.10225226599933,-2.1233252967925,-298.779564806055
738534.42119645071215927601,-6.15764336069826,-2.1233252967925,-298.788796655171
738534.42119654116686433554,-6.15764336069826,-2.14178899502548,-298.798028504288
738534.42119663162156939507,-6.18533890804773,-2.15102084414197,-298.816492202521
738534.42119672195985913277,-6.16687520981475,-2.16025269325846,-298.825724051637
738534.42119681241456419230,-6.16687520981475,-2.15102084414197,-298.807260353404
738534.42119690286926925182,-6.20380260628071,-2.15102084414197,-298.788796655171
738534.42119699332397431135,-6.15764336069826,-2.15102084414197,-298.825724051637
738534.42119708377867937088,-6.19457075716422,-2.16025269325846,-298.84418774987
738534.42119717411696910858,-6.15764336069826,-2.15102084414197,-298.788796655171
738534.42119726457167416811,-6.17610705893124,-2.15102084414197,-298.853419598987
738534.42119735502637922764,-6.13917966246528,-2.15102084414197,-298.834955900754
738534.42119744548108428717,-6.15764336069826,-2.13255714590899,-298.834955900754
738534.42119753593578934669,-6.05609302041688,-2.14178899502548,-298.890346995453
738534.42119762627407908440,-6.17610705893124,-2.1233252967925,-298.881115146336
738534.42119771672878414392,-6.10225226599933,-2.14178899502548,-298.87188329722
738534.42119780718348920345,-6.10225226599933,-2.1233252967925,-298.834955900754
738534.42119789763819426298,-6.05609302041688,-2.1233252967925,-298.862651448103
738534.42119798809289932251,-6.1299478133488,-2.13255714590899,-298.770332956938
738534.42119807854760438204,-6.06532486953337,-2.1233252967925,-298.798028504288
738534.42119816888589411974,-6.07455671864986,-2.13255714590899,-298.84418774987
738534.42119825934059917927,-6.07455671864986,-2.16025269325846,-298.696478164006
738534.42119834979530423880,-6.06532486953337,-2.14178899502548,-298.788796655171
738534.42119844025000929832,-6.06532486953337,-2.13255714590899,-298.724173711356
738534.42119853070471435785,-6.06532486953337,-2.11409344767602,-298.853419598987
738534.42119862104300409555,-6.06532486953337,-2.10486159855953,-298.87188329722
738534.42119871149770915508,-6.01916562395093,-2.1233252967925,-298.881115146336
738534.42119880195241421461,-6.04686117130039,-2.1233252967925,-298.788796655171
738534.42119889240711927414,-6.02839747306742,-2.13255714590899,-298.87188329722
738534.42119898286182433367,-6.08378856776635,-2.13255714590899,-298.862651448103
738534.42119907320011407137,-6.00993377483444,-2.1233252967925,-298.807260353404
738534.42119916365481913090,-6.04686117130039,-2.10486159855953,-298.853419598987
738534.42119925410952419043,-6.02839747306742,-2.13255714590899,-298.890346995453
738534.42119934456422924995,-6.10225226599933,-2.11409344767602,-298.834955900754
738534.42119943501893430948,-6.05609302041688,-2.10486159855953,-298.84418774987
738534.42119952535722404718,-6.04686117130039,-2.10486159855953,-298.881115146336
738534.42119961581192910671,-6.08378856776635,-2.07716605121006,-298.87188329722
738534.42119970626663416624,-6.07455671864986,-2.08639790032655,-298.807260353404
738534.42119979672133922577,-6.05609302041688,-2.09562974944304,-298.87188329722
738534.42119988717604428530,-6.05609302041688,-2.10486159855953,-298.87188329722
738534.42119997763074934483,-6.15764336069826,-2.13255714590899,-298.798028504288
738534.42120006796903908253,-6.09302041688284,-2.15102084414197,-298.87188329722
738534.42120015842374414206,-6.08378856776635,-2.14178899502548,-298.890346995453
738534.42120024887844920158,-6.07455671864986,-2.16948454237495,-298.816492202521
738534.42120033933315426111,-6.11148411511582,-2.17871639149144,-298.87188329722
738534.42120042978785932064,-6.04686117130039,-2.18794824060793,-298.87188329722
738534.42120052012614905834,-6.06532486953337,-2.16025269325846,-298.87188329722
738534.42120061058085411787,-6.00993377483444,-2.16948454237495,-298.84418774987
738534.42120070103555917740,-6.05609302041688,-2.16025269325846,-298.807260353404
738534.42120079149026423693,-6.01916562395093,-2.15102084414197,-298.788796655171
738534.42120088194496929646,-6.00993377483444,-2.15102084414197,-298.788796655171
738534.42120097228325903416,-6.00070192571795,-2.13255714590899,-298.788796655171
738534.42120106273796409369,-5.98223822748497,-2.14178899502548,-298.798028504288
738534.42120115319266915321,-6.00070192571795,-2.15102084414197,-298.779564806055
738534.42120124364737421274,-5.96377452925199,-2.14178899502548,-298.807260353404
738534.42120133410207927227,-5.98223822748497,-2.11409344767602,-298.862651448103
738534.42120142444036900997,-5.8714560380871,-2.07716605121006,-298.881115146336
738534.42120151489507406950,-5.93607898190252,-2.08639790032655,-298.834955900754
738534.42120160534977912903,-5.89915158543657,-2.11409344767602,-298.881115146336
738534.42120169580448418856,-5.89915158543657,-2.17871639149144,-298.899578844569
738534.42120178625918924809,-5.85299233985412,-2.16025269325846,-298.724173711356
738534.42120187671389430761,-5.92684713278603,-2.14178899502548,-298.825724051637
738534.42120196705218404531,-5.94531083101901,-2.13255714590899,-298.890346995453
738534.42120205750688910484,-6.01916562395093,-2.07716605121006,-298.84418774987
738534.42120214796159416437,-6.00993377483444,-2.1233252967925,-298.881115146336
738534.42120223841629922390,-6.09302041688284,-2.13255714590899,-298.899578844569
738534.42120232887100428343,-6.08378856776635,-2.14178899502548,-298.853419598987
738534.42120241920929402113,-6.09302041688284,-2.13255714590899,-298.816492202521
738534.42120250966399908066,-6.1299478133488,-2.1233252967925,-298.908810693686
738534.42120260011870414019,-6.09302041688284,-2.13255714590899,-298.927274391919
738534.42120269057340919971,-6.14841151158177,-2.1233252967925,-298.853419598987
738534.42120278102811425924,-6.13917966246528,-2.13255714590899,-298.881115146336
738534.42120287136640399694,-6.15764336069826,-2.1233252967925,-298.918042542802
738534.42120296182110905647,-6.1299478133488,-2.10486159855953,-298.881115146336
738534.42120305227581411600,-6.08378856776635,-2.03100680562761,-298.881115146336
738534.42120314273051917553,-5.73297830133976,-1.9571520126957,-298.825724051637
738534.42120323318522423506,-5.20676290169988,-1.91099276711325,-298.761101107822
738534.42120332352351397276,-4.65285195471053,-1.93868831446272,-298.742637409589
738534.42120341397821903229,-4.90211188085574,-1.97561571092868,-298.751869258705
738534.42120350443292409182,-5.63142796105838,-2.36335337382122,-298.862651448103
738534.42120359488762915134,-5.99147007660146,-2.40028077028718,-298.890346995453
738534.42120368534233421087,-6.07455671864986,-2.26180303353984,-298.890346995453
738534.42120377579703927040,-6.11148411511582,-2.18794824060793,-298.862651448103
738534.42120386613532900810,-6.13917966246528,-2.17871639149144,-298.834955900754
738534.42120395659003406763,-6.13917966246528,-2.14178899502548,-298.853419598987
738534.42120404704473912716,-6.1299478133488,-2.14178899502548,-298.862651448103
738534.42120413749944418669,-6.1299478133488,-2.11409344767602,-298.816492202521
738534.42120422795414924622,-6.13917966246528,-2.11409344767602,-298.87188329722
738534.42120431829243898392,-6.12071596423231,-2.11409344767602,-298.816492202521
738534.42120440874714404345,-6.15764336069826,-2.09562974944304,-298.862651448103
738534.42120449920184910297,-6.11148411511582,-2.10486159855953,-298.825724051637
738534.42120458965655416250,-6.13917966246528,-2.08639790032655,-298.825724051637
738534.42120468011125922203,-6.12071596423231,-2.09562974944304,-298.779564806055
738534.42120477044954895973,-6.13917966246528,-2.06793420209357,-298.853419598987
738534.42120486090425401926,-6.09302041688284,-2.06793420209357,-298.834955900754
738534.42120495135895907879,-6.11148411511582,-2.04947050386059,-298.881115146336
738534.42120504181366413832,-6.06532486953337,-2.0402386547441,-298.853419598987
738534.42120513226836919785,-6.06532486953337,-2.02177495651112,-298.825724051637
738534.42120522272307425737,-6.02839747306742,-2.00331125827815,-298.798028504288
738534.42120531306136399508,-6.00993377483444,-1.98484756004517,-298.631855220191
738534.42120540351606905460,-5.97300637836848,-1.9571520126957,-298.751869258705
738534.42120549397077411413,-5.93607898190252,-1.92945646534623,-298.834955900754
738534.42120558442547917366,-5.90838343455306,-1.89252906888028,-298.798028504288
738534.42120567488018423319,-5.84376049073763,-1.85560167241432,-298.807260353404
738534.42120576521847397089,-5.80683309427168,-1.81867427594836,-298.816492202521
738534.42120585567317903042,-5.75144199957274,-1.7909787285989,-298.798028504288
738534.42120594612788408995,-5.73297830133976,-1.74481948301645,-298.696478164006
738534.42120603658258914948,-5.65912350840785,-1.73558763389996,-298.761101107822
738534.42120612703729420900,-5.64989165929136,-1.71712393566698,-298.742637409589
738534.42120621737558394670,-5.6129642628254,-1.71712393566698,-298.733405560472
738534.42120630783028900623,-5.64989165929136,-1.72635578478347,-298.68724631489
738534.42120639828499406576,-5.63142796105838,-1.76328318124943,-298.724173711356
738534.42120648873969912529,-5.69605090487381,-1.80944242683187,-298.742637409589
738534.42120657919440418482,-5.76067384868923,-1.88329721976379,-298.761101107822
738534.42120666953269392252,-5.82529679250465,-1.93868831446272,-298.807260353404
738534.42120675998739898205,-5.88068788720359,-1.98484756004517,-298.84418774987
738534.42120685044210404158,-5.94531083101901,-2.02177495651112,-298.853419598987
738534.42120694089680910110,-6.00993377483444,-2.05870235297708,-298.798028504288
738534.42120703135151416063,-6.00070192571795,-2.07716605121006,-298.87188329722
738534.42120712180621922016,-6.05609302041688,-2.08639790032655,-298.862651448103
738534.42120721214450895786,-6.04686117130039,-2.10486159855953,-298.84418774987
738534.42120730259921401739,-6.09302041688284,-2.10486159855953,-298.881115146336
738534.42120739305391907692,-6.04686117130039,-2.11409344767602,-298.87188329722
738534.42120748350862413645,-6.09302041688284,-2.10486159855953,-298.87188329722
738534.42120757396332919598,-6.06532486953337,-2.11409344767602,-298.853419598987
738534.42120766430161893368,-6.08378856776635,-2.10486159855953,-298.87188329722
738534.42120775475632399321,-6.0376293221839,-2.10486159855953,-298.87188329722
738534.42120784521102905273,-6.07455671864986,-2.10486159855953,-298.84418774987
738534.42120793566573411226,-6.01916562395093,-2.10486159855953,-298.862651448103
738534.42120802612043917179,-6.02839747306742,-2.10486159855953,-298.862651448103
738534.42120811645872890949,-6.05609302041688,-2.10486159855953,-298.853419598987
738534.42120820691343396902,-6.04686117130039,-2.11409344767602,-298.84418774987
738534.42120829736813902855,-6.04686117130039,-2.09562974944304,-298.862651448103
738534.42120838782284408808,-6.00993377483444,-2.10486159855953,-298.862651448103
738534.42120847827754914761,-6.05609302041688,-2.10486159855953,-298.834955900754
738534.42120856861583888531,-6.00070192571795,-2.11409344767602,-298.87188329722
738534.42120865907054394484,-6.04686117130039,-2.10486159855953,-298.87188329722
738534.42120874952524900436,-6.01916562395093,-2.11409344767602,-298.798028504288
738534.42120883997995406389,-6.04686117130039,-2.09562974944304,-298.751869258705
738534.42120893043465912342,-6.00993377483444,-2.11409344767602,-298.770332956938
738534.42120902088936418295,-6.05609302041688,-2.09562974944304,-298.853419598987
738534.42120911122765392065,-6.01916562395093,-2.11409344767602,-298.862651448103
738534.42120920168235898018,-6.06532486953337,-2.10486159855953,-298.798028504288
738534.42120929213706403971,-6.02839747306742,-2.11409344767602,-298.788796655171
738534.42120938259176909924,-6.06532486953337,-2.11409344767602,-298.816492202521
738534.42120947304647415876,-6.02839747306742,-2.11409344767602,-298.770332956938
738534.42120956338476389647,-6.07455671864986,-2.11409344767602,-298.862651448103
738534.42120965383946895599,-6.04686117130039,-2.13255714590899,-298.908810693686
738534.42120974429417401552,-6.05609302041688,-2.1233252967925,-298.816492202521
738534.42120983474887907505,-6.04686117130039,-2.1233252967925,-298.816492202521
738534.42120992520358413458,-6.0376293221839,-2.13255714590899,-298.816492202521
738534.42121001554187387228,-6.08378856776635,-2.11409344767602,-298.807260353404
738534.42121010599657893181,-6.04686117130039,-2.13255714590899,-298.761101107822
738534.42121019645128399134,-6.08378856776635,-2.11409344767602,-298.816492202521
738534.42121028690598905087,-6.0376293221839,-2.13255714590899,-298.834955900754
738534.42121037736069411039,-6.07455671864986,-2.11409344767602,-298.853419598987
738534.42121046769898384809,-6.04686117130039,-2.13255714590899,-298.862651448103
738534.42121055815368890762,-6.07455671864986,-2.1233252967925,-298.862651448103
738534.42121064860839396715,-6.04686117130039,-2.13255714590899,-298.853419598987
738534.42121073906309902668,-6.08378856776635,-2.1233252967925,-298.825724051637
738534.42121082951780408621,-6.0376293221839,-2.13255714590899,-298.862651448103
738534.42121091997250914574,-6.05609302041688,-2.1233252967925,-298.862651448103
738534.42121101031079888344,-6.04686117130039,-2.13255714590899,-298.84418774987
738534.42121110076550394297,-6.04686117130039,-2.11409344767602,-298.87188329722
738534.42121119122020900249,-6.06532486953337,-2.13255714590899,-298.87188329722
738534.42121128167491406202,-6.0376293221839,-2.1233252967925,-298.87188329722
738534.42121137212961912155,-6.07455671864986,-2.13255714590899,-298.834955900754
738534.42121146246790885925,-6.04686117130039,-2.13255714590899,-298.87188329722
738534.42121155292261391878,-6.05609302041688,-2.13255714590899,-298.87188329722
738534.42121164337731897831,-6.0376293221839,-2.13255714590899,-298.834955900754
738534.42121173383202403784,-6.06532486953337,-2.1233252967925,-298.825724051637
738534.42121182428672909737,-6.02839747306742,-2.13255714590899,-298.881115146336
738534.42121191462501883507,-6.00070192571795,-2.11409344767602,-298.881115146336
738534.42121200507972389460,-5.9545426801355,-2.11409344767602,-298.87188329722
738534.42121209553442895412,-5.97300637836848,-2.09562974944304,-298.87188329722
738534.42121218598913401365,-5.9545426801355,-2.10486159855953,-298.881115146336
738534.42121227644383907318,-5.91761528366955,-2.09562974944304,-298.87188329722
738534.42121236689854413271,-5.88991973632008,-2.10486159855953,-298.742637409589
738534.42121245723683387041,-5.88991973632008,-2.09562974944304,-298.779564806055
738534.42121254769153892994,-5.9545426801355,-2.11409344767602,-298.87188329722
738534.42121263814624398947,-5.97300637836848,-2.07716605121006,-298.84418774987
738534.42121272860094904900,-6.00993377483444,-2.11409344767602,-298.87188329722
738534.42121281905565410852,-6.00993377483444,-2.13255714590899,-298.816492202521
738534.42121290939394384623,-6.08378856776635,-2.13255714590899,-298.798028504288
738534.42121299984864890575,-6.04686117130039,-2.14178899502548,-298.825724051637
738534.42121309030335396528,-6.10225226599933,-2.14178899502548,-298.825724051637
738534.42121318075805902481,-6.05609302041688,-2.14178899502548,-298.807260353404
738534.42121327121276408434,-6.10225226599933,-2.13255714590899,-298.84418774987
738534.42121336155105382204,-6.06532486953337,-2.14178899502548,-298.87188329722
738534.42121345200575888157,-6.11148411511582,-2.13255714590899,-298.881115146336
738534.42121354246046394110,-6.06532486953337,-2.10486159855953,-298.825724051637
738534.42121363291516900063,-6.05609302041688,-2.05870235297708,-298.862651448103
738534.42121372336987406015,-5.79760124515519,-1.97561571092868,-298.834955900754
738534.42121381370816379786,-5.26215399639882,-1.88329721976379,-298.788796655171
738534.42121390416286885738,-4.72670674764244,-1.92945646534623,-298.733405560472
738534.42121399461757391691,-4.68054750206,-1.96638386181219,-298.779564806055
738534.42121408507227897644,-5.46525467696158,-2.26180303353984,-298.862651448103
738534.42121417552698403597,-5.84376049073763,-2.44644001586962,-298.853419598987
738534.42121426598168909550,-6.04686117130039,-2.2987304300058,-298.890346995453
738534.42121435631997883320,-6.00993377483444,-2.17871639149144,-298.853419598987
738534.42121444677468389273,-6.07455671864986,-2.14178899502548,-298.87188329722
738534.42121453722938895226,-6.01916562395093,-2.1233252967925,-298.87188329722
738534.42121462768409401178,-6.07455671864986,-2.10486159855953,-298.825724051637
738534.42121471813879907131,-6.0376293221839,-2.11409344767602,-298.862651448103
738534.42121480847708880901,-6.08378856776635,-2.09562974944304,-298.862651448103
738534.42121489893179386854,-6.01916562395093,-2.09562974944304,-298.825724051637
738534.42121498938649892807,-6.06532486953337,-2.07716605121006,-298.853419598987
738534.42121507984120398760,-6.00070192571795,-2.07716605121006,-298.87188329722
738534.42121517029590904713,-6.04686117130039,-2.06793420209357,-298.862651448103
738534.42121526063419878483,-5.99147007660146,-2.06793420209357,-298.890346995453
738534.42121535108890384436,-6.02839747306742,-2.04947050386059,-298.899578844569
738534.42121544154360890388,-5.98223822748497,-2.04947050386059,-298.899578844569
738534.42121553199831396341,-5.97300637836848,-2.0402386547441,-298.87188329722
738534.42121562245301902294,-5.99147007660146,-2.02177495651112,-298.899578844569
738534.42121571279130876064,-5.92684713278603,-2.03100680562761,-298.853419598987
738534.42121580324601382017,-5.9545426801355,-1.99407940916166,-298.862651448103
738534.42121589370071887970,-5.88068788720359,-1.98484756004517,-298.788796655171
738534.42121598415542393923,-5.89915158543657,-1.9571520126957,-298.761101107822
738534.42121607461012899876,-5.83452864162114,-1.93868831446272,-298.807260353404
738534.42121616506483405828,-5.81606494338816,-1.89252906888028,-298.834955900754
738534.42121625540312379599,-5.74221015045625,-1.86483352153081,-298.816492202521
738534.42121634585782885551,-5.72374645222327,-1.81867427594836,-298.788796655171
738534.42121643631253391504,-5.64989165929136,-1.7909787285989,-298.798028504288
738534.42121652676723897457,-5.63142796105838,-1.73558763389996,-298.798028504288
738534.42121661722194403410,-5.54834131900998,-1.71712393566698,-298.761101107822
738534.42121670756023377180,-5.54834131900998,-1.71712393566698,-298.779564806055
738534.42121679801493883133,-5.52064577166051,-1.71712393566698,-298.724173711356
738534.42121688846964389086,-5.53910946989349,-1.72635578478347,-298.761101107822
738534.42121697892434895039,-5.55757316812647,-1.78174687948241,-298.788796655171
738534.42121706937905400991,-5.62219611194189,-1.83713797418134,-298.779564806055
738534.42121715971734374762,-5.69605090487381,-1.90176091799676,-298.788796655171
738534.42121725017204880714,-5.75144199957274,-1.93868831446272,-298.84418774987
738534.42121734062675386667,-5.82529679250465,-1.97561571092868,-298.853419598987
738534.42121743108145892620,-5.83452864162114,-2.01254310739463,-298.807260353404
738534.42121752153616398573,-5.92684713278603,-2.0402386547441,-298.825724051637
738534.42121761187445372343,-5.91761528366955,-2.08639790032655,-298.84418774987
738534.42121770232915878296,-5.96377452925199,-2.06793420209357,-298.899578844569
738534.42121779278386384249,-5.94531083101901,-2.09562974944304,-298.890346995453
738534.42121788323856890202,-5.99147007660146,-2.09562974944304,-298.853419598987
738534.42121797369327396154,-5.96377452925199,-2.09562974944304,-298.890346995453
738534.42121806414797902107,-6.00070192571795,-2.10486159855953,-298.890346995453
738534.42121815448626875877,-5.98223822748497,-2.08639790032655,-298.816492202521
738534.42121824494097381830,-5.98223822748497,-2.10486159855953,-298.87188329722
738534.42121833539567887783,-5.98223822748497,-2.09562974944304,-298.918042542802
738534.42121842585038393736,-5.98223822748497,-2.09562974944304,-298.807260353404
738534.42121851630508899689,-5.97300637836848,-2.09562974944304,-298.807260353404
738534.42121860664337873459,-5.94531083101901,-2.08639790032655,-298.816492202521
738534.42121869709808379412,-5.97300637836848,-2.10486159855953,-298.807260353404
738534.42121878755278885365,-5.9545426801355,-2.09562974944304,-298.807260353404
738534.42121887800749391317,-5.96377452925199,-2.08639790032655,-298.798028504288
738534.42121896846219897270,-5.93607898190252,-2.09562974944304,-298.807260353404
738534.42121905880048871040,-5.98223822748497,-2.09562974944304,-298.834955900754
738534.42121914925519376993,-5.94531083101901,-2.09562974944304,-298.825724051637
738534.42121923970989882946,-5.96377452925199,-2.09562974944304,-298.816492202521
738534.42121933016460388899,-5.94531083101901,-2.09562974944304,-298.816492202521
738534.42121942061930894852,-5.97300637836848,-2.09562974944304,-298.770332956938
738534.42121951107401400805,-5.96377452925199,-2.10486159855953,-298.770332956938
738534.42121960141230374575,-5.96377452925199,-2.09562974944304,-298.890346995453
738534.42121969186700880527,-5.98223822748497,-2.09562974944304,-298.862651448103
738534.42121978232171386480,-5.96377452925199,-2.10486159855953,-298.825724051637
738534.42121987277641892433,-6.00070192571795,-2.11409344767602,-298.899578844569
738534.42121996323112398386,-5.98223822748497,-2.11409344767602,-298.890346995453
738534.42122005356941372156,-6.00070192571795,-2.10486159855953,-298.927274391919
738534.42122014402411878109,-5.99147007660146,-2.10486159855953,-298.890346995453
738534.42122023447882384062,-6.01916562395093,-2.10486159855953,-298.927274391919
738534.42122032493352890015,-5.99147007660146,-2.1233252967925,-298.945738090152
738534.42122041538823395967,-6.01916562395093,-2.11409344767602,-298.862651448103
738534.42122050572652369738,-5.98223822748497,-2.11409344767602,-298.908810693686
738534.42122059618122875690,-6.02839747306742,-2.10486159855953,-298.908810693686
738534.42122068663593381643,-5.97300637836848,-2.1233252967925,-298.881115146336
738534.42122077709063887596,-6.02839747306742,-2.11409344767602,-298.927274391919
738534.42122086754534393549,-6.00070192571795,-2.13255714590899,-298.945738090152
738534.42122095788363367319,-6.01916562395093,-2.1233252967925,-298.881115146336
738534.42122104833833873272,-5.99147007660146,-2.13255714590899,-298.862651448103
738534.42122113879304379225,-5.98223822748497,-2.1233252967925,-298.87188329722
738534.42122122924774885178,-6.01916562395093,-2.11409344767602,-298.881115146336
738534.42122131970245391130,-5.99147007660146,-2.1233252967925,-298.853419598987
738534.42122141015715897083,-6.02839747306742,-2.13255714590899,-298.881115146336
738534.42122150049544870853,-5.99147007660146,-2.13255714590899,-298.87188329722
738534.42122159095015376806,-6.0376293221839,-2.1233252967925,-298.853419598987
738534.42122168140485882759,-5.99147007660146,-2.14178899502548,-298.87188329722
738534.42122177185956388712,-6.0376293221839,-2.13255714590899,-298.816492202521
738534.42122186231426894665,-5.99147007660146,-2.13255714590899,-298.84418774987
738534.42122195265255868435,-6.04686117130039,-2.11409344767602,-298.853419598987
738534.42122204310726374388,-5.99147007660146,-2.14178899502548,-298.834955900754
738534.42122213356196880341,-6.02839747306742,-2.14178899502548,-298.84418774987
738534.42122222401667386293,-5.99147007660146,-2.14178899502548,-298.825724051637
738534.42122231447137892246,-6.01916562395093,-2.1233252967925,-298.862651448103
738534.42122240480966866016,-5.99147007660146,-2.14178899502548,-298.84418774987
738534.42122249526437371969,-6.01916562395093,-2.13255714590899,-298.87188329722
738534.42122258571907877922,-5.96377452925199,-2.1233252967925,-298.881115146336
738534.42122267617378383875,-5.9545426801355,-2.1233252967925,-298.853419598987
738534.42122276662848889828,-5.92684713278603,-2.11409344767602,-298.807260353404
738534.42122285696677863598,-5.94531083101901,-2.1233252967925,-298.807260353404
738534.42122294742148369551,-5.97300637836848,-2.11409344767602,-298.816492202521
738534.42122303787618875504,-5.88068788720359,-2.1233252967925,-298.714941862239
738534.42122312833089381456,-5.88991973632008,-2.1233252967925,-298.862651448103
738534.42122321878559887409,-5.84376049073763,-2.1233252967925,-298.84418774987
738534.42122330924030393362,-5.92684713278603,-2.1233252967925,-298.87188329722
738534.42122339957859367132,-5.93607898190252,-2.11409344767602,-298.87188329722
738534.42122349003329873085,-5.96377452925199,-2.09562974944304,-298.87188329722
738534.42122358048800379038,-5.96377452925199,-2.15102084414197,-298.918042542802
738534.42122367094270884991,-6.02839747306742,-2.14178899502548,-298.918042542802
738534.42122376139741390944,-6.02839747306742,-2.16025269325846,-298.862651448103
738534.42122385173570364714,-6.05609302041688,-2.15102084414197,-298.908810693686
738534.42122394219040870667,-6.0376293221839,-2.16948454237495,-298.918042542802
738534.42122403264511376619,-6.04686117130039,-2.16948454237495,-298.908810693686
738534.42122412309981882572,-6.05609302041688,-2.16948454237495,-298.862651448103
738534.42122421355452388525,-6.04686117130039,-2.16025269325846,-298.918042542802
738534.42122430389281362295,-6.07455671864986,-2.15102084414197,-298.908810693686
738534.42122439434751868248,-6.00993377483444,-2.10486159855953,-298.862651448103
738534.42122448480222374201,-5.73297830133976,-2.00331125827815,-298.87188329722
738534.42122457525692880154,-5.17906735435041,-1.89252906888028,-298.816492202521
738534.42122466571163386106,-4.70824304940947,-1.9571520126957,-298.807260353404
738534.42122475604992359877,-4.74517044587542,-2.00331125827815,-298.751869258705
738534.42122484650462865829,-5.16060365611744,-2.09562974944304,-298.834955900754
738534.42122493695933371782,-5.72374645222327,-2.49259926145207,-298.954969939268
738534.42122502741403877735,-5.97300637836848,-2.41874446852016,-298.936506241035
738534.42122511786874383688,-6.00993377483444,-2.26180303353984,-298.881115146336
738534.42122520832344889641,-6.01916562395093,-2.17871639149144,-298.899578844569
738534.42122529866173863411,-6.02839747306742,-2.16948454237495,-298.936506241035
738534.42122538911644369364,-6.01916562395093,-2.16025269325846,-298.825724051637
738534.42122547957114875317,-6.02839747306742,-2.15102084414197,-298.908810693686
738534.42122557002585381269,-6.00993377483444,-2.13255714590899,-298.927274391919
738534.42122566048055887222,-6.02839747306742,-2.11409344767602,-298.881115146336
738534.42122575081884860992,-6.00993377483444,-2.1233252967925,-298.87188329722
738534.42122584127355366945,-6.0376293221839,-2.11409344767602,-298.899578844569
738534.42122593172825872898,-6.00070192571795,-2.11409344767602,-298.84418774987
738534.42122602218296378851,-6.01916562395093,-2.10486159855953,-298.87188329722
738534.42122611263766884804,-5.99147007660146,-2.11409344767602,-298.87188329722
738534.42122620297595858574,-6.01916562395093,-2.08639790032655,-298.881115146336
738534.42122629343066364527,-5.96377452925199,-2.09562974944304,-298.788796655171
738534.42122638388536870480,-5.96377452925199,-2.05870235297708,-298.881115146336
738534.42122647434007376432,-5.89915158543657,-2.05870235297708,-298.714941862239
738534.42122656479477882385,-5.91761528366955,-2.03100680562761,-298.807260353404
738534.42122665524948388338,-5.85299233985412,-2.01254310739463,-298.87188329722
738534.42122674558777362108,-5.84376049073763,-1.99407940916166,-298.798028504288
738534.42122683604247868061,-5.84376049073763,-1.97561571092868,-298.816492202521
738534.42122692649718374014,-5.77913754692221,-1.93868831446272,-298.798028504288
738534.42122701695188879967,-5.77913754692221,-1.91099276711325,-298.788796655171
738534.42122710740659385920,-5.70528275399029,-1.88329721976379,-298.84418774987
738534.42122719774488359690,-5.69605090487381,-1.83713797418134,-298.862651448103
738534.42122728819958865643,-5.60373241370891,-1.80021057771538,-298.84418774987
738534.42122737865429371595,-5.6129642628254,-1.76328318124943,-298.807260353404
738534.42122746910899877548,-5.54834131900998,-1.75405133213294,-298.825724051637
738534.42122755956370383501,-5.56680501724296,-1.73558763389996,-298.816492202521
738534.42122764990199357271,-5.52064577166051,-1.74481948301645,-298.779564806055
738534.42122774035669863224,-5.56680501724296,-1.77251503036592,-298.84418774987
738534.42122783081140369177,-5.56680501724296,-1.82790612506485,-298.881115146336
738534.42122792126610875130,-5.65912350840785,-1.88329721976379,-298.798028504288
738534.42122801172081381083,-5.69605090487381,-1.96638386181219,-298.881115146336
738534.42122810205910354853,-5.79760124515519,-2.01254310739463,-298.899578844569
738534.42122819251380860806,-5.82529679250465,-2.06793420209357,-298.862651448103
738534.42122828296851366758,-5.88991973632008,-2.08639790032655,-298.899578844569
738534.42122837342321872711,-5.90838343455306,-2.11409344767602,-298.908810693686
738534.42122846387792378664,-5.94531083101901,-2.1233252967925,-298.918042542802
738534.42122855433262884617,-5.97300637836848,-2.13255714590899,-298.84418774987
738534.42122864467091858387,-5.94531083101901,-2.14178899502548,-298.918042542802
738534.42122873512562364340,-5.99147007660146,-2.13255714590899,-298.84418774987
738534.42122882558032870293,-5.94531083101901,-2.15102084414197,-298.807260353404
738534.42122891603503376245,-5.99147007660146,-2.14178899502548,-298.84418774987
738534.42122900648973882198,-5.9545426801355,-2.15102084414197,-298.84418774987
738534.42122909682802855968,-5.99147007660146,-2.13255714590899,-298.862651448103
738534.42122918728273361921,-5.94531083101901,-2.14178899502548,-298.881115146336
738534.42122927773743867874,-5.96377452925199,-2.13255714590899,-298.945738090152
738534.42122936819214373827,-5.93607898190252,-2.14178899502548,-298.945738090152
738534.42122945864684879780,-5.96377452925199,-2.13255714590899,-298.84418774987
738534.42122954898513853550,-5.93607898190252,-2.14178899502548,-298.954969939268
738534.42122963943984359503,-5.9545426801355,-2.14178899502548,-298.936506241035
738534.42122972989454865456,-5.93607898190252,-2.15102084414197,-298.908810693686
738534.42122982034925371408,-5.94531083101901,-2.13255714590899,-298.881115146336
738534.42122991080395877361,-5.94531083101901,-2.14178899502548,-298.945738090152
738534.42123000114224851131,-5.93607898190252,-2.14178899502548,-298.770332956938
738534.42123009159695357084,-5.97300637836848,-2.14178899502548,-298.834955900754
738534.42123018205165863037,-5.9545426801355,-2.14178899502548,-298.899578844569
738534.42123027250636368990,-5.97300637836848,-2.14178899502548,-298.936506241035
738534.42123036296106874943,-5.94531083101901,-2.14178899502548,-298.918042542802
738534.42123045341577380896,-5.98223822748497,-2.14178899502548,-298.881115146336
738534.42123054375406354666,-5.94531083101901,-2.15102084414197,-298.908810693686
738534.42123063420876860619,-5.99147007660146,-2.15102084414197,-298.918042542802
738534.42123072466347366571,-5.9545426801355,-2.15102084414197,-298.899578844569
738534.42123081511817872524,-5.97300637836848,-2.15102084414197,-298.825724051637
738534.42123090557288378477,-5.97300637836848,-2.16025269325846,-298.908810693686
738534.42123099591117352247,-5.97300637836848,-2.15102084414197,-298.918042542802
738534.42123108636587858200,-5.97300637836848,-2.16025269325846,-298.87188329722
738534.42123117682058364153,-5.98223822748497,-2.16948454237495,-298.918042542802
738534.42123126727528870106,-6.00070192571795,-2.16948454237495,-298.918042542802
738534.42123135772999376059,-5.98223822748497,-2.16948454237495,-298.908810693686
738534.42123144806828349829,-6.00070192571795,-2.16025269325846,-298.908810693686
738534.42123153852298855782,-5.98223822748497,-2.16948454237495,-298.918042542802
738534.42123162897769361734,-6.00070192571795,-2.16025269325846,-298.881115146336
738534.42123171943239867687,-5.97300637836848,-2.16948454237495,-298.87188329722
738534.42123180988710373640,-6.00993377483444,-2.16025269325846,-298.84418774987
738534.42123190022539347410,-5.96377452925199,-2.16025269325846,-298.927274391919
738534.42123199068009853363,-6.00070192571795,-2.15102084414197,-298.890346995453
738534.42123208113480359316,-5.96377452925199,-2.16948454237495,-298.881115146336
738534.42123217158950865269,-6.01916562395093,-2.16025269325846,-298.890346995453
738534.42123226204421371222,-5.99147007660146,-2.16025269325846,-298.954969939268
738534.42123235249891877174,-5.98223822748497,-2.15102084414197,-298.982665486618
738534.42123244283720850945,-5.99147007660146,-2.16025269325846,-298.927274391919
738534.42123253329191356897,-5.97300637836848,-2.15102084414197,-298.908810693686
738534.42123262374661862850,-6.00993377483444,-2.15102084414197,-298.936506241035
738534.42123271420132368803,-5.98223822748497,-2.16025269325846,-298.927274391919
738534.42123280465602874756,-6.00070192571795,-2.15102084414197,-298.908810693686
738534.42123289499431848526,-5.97300637836848,-2.16025269325846,-298.918042542802
738534.42123298544902354479,-6.00993377483444,-2.16025269325846,-298.936506241035
738534.42123307590372860432,-5.97300637836848,-2.16025269325846,-298.899578844569
738534.42123316635843366385,-6.02839747306742,-2.15102084414197,-298.918042542802
738534.42123325681313872337,-5.97300637836848,-2.16948454237495,-298.927274391919
738534.42123334715142846107,-6.01916562395093,-2.15102084414197,-298.908810693686
738534.42123343760613352060,-5.96377452925199,-2.16025269325846,-298.918042542802
738534.42123352806083858013,-6.00993377483444,-2.16025269325846,-298.779564806055
738534.42123361851554363966,-5.92684713278603,-2.15102084414197,-298.834955900754
738534.42123370897024869919,-5.96377452925199,-2.13255714590899,-298.936506241035
738534.42123379942495375872,-5.89915158543657,-2.14178899502548,-298.927274391919
738534.42123388976324349642,-5.92684713278603,-2.1233252967925,-298.918042542802
738534.42123398021794855595,-5.8714560380871,-2.14178899502548,-298.908810693686
738534.42123407067265361547,-5.86222418897061,-2.13255714590899,-298.927274391919
738534.42123416112735867500,-5.86222418897061,-2.13255714590899,-298.890346995453
738534.42123425158206373453,-5.83452864162114,-2.14178899502548,-298.881115146336
738534.42123434192035347223,-5.94531083101901,-2.14178899502548,-298.908810693686
738534.42123443237505853176,-5.90838343455306,-2.1233252967925,-298.881115146336
738534.42123452282976359129,-5.97300637836848,-2.14178899502548,-298.881115146336
738534.42123461328446865082,-5.9545426801355,-2.17871639149144,-298.881115146336
738534.42123470373917371035,-6.0376293221839,-2.16948454237495,-298.84418774987
738534.42123479407746344805,-6.00070192571795,-2.17871639149144,-298.881115146336
738534.42123488453216850758,-6.04686117130039,-2.16948454237495,-298.936506241035
738534.42123497498687356710,-6.01916562395093,-2.17871639149144,-298.890346995453
738534.42123506544157862663,-6.05609302041688,-2.16948454237495,-298.945738090152
738534.42123515589628368616,-6.00993377483444,-2.17871639149144,-298.936506241035
738534.42123524623457342386,-6.0376293221839,-2.16948454237495,-298.927274391919
738534.42123533668927848339,-6.02839747306742,-2.14178899502548,-298.927274391919
738534.42123542714398354292,-5.88991973632008,-2.05870235297708,-298.918042542802
738534.42123551759868860245,-5.4467909787286,-1.94792016357921,-298.87188329722
738534.42123560805339366198,-4.94827112643818,-1.93868831446272,-298.798028504288
738534.42123569850809872150,-4.69901120029298,-1.98484756004517,-298.834955900754
738534.42123578884638845921,-5.19753105258339,-2.11409344767602,-298.881115146336
738534.42123587930109351873,-5.72374645222327,-2.51106295968505,-298.927274391919
738534.42123596975579857826,-5.9545426801355,-2.42797631763665,-298.991897335734
738534.42123606021050363779,-6.01916562395093,-2.33565782647175,-298.964201788385
738534.42123615066520869732,-5.99147007660146,-2.22487563707389,-298.918042542802
738534.42123624100349843502,-6.01916562395093,-2.17871639149144,-298.954969939268
738534.42123633145820349455,-5.99147007660146,-2.16948454237495,-298.87188329722
738534.42123642191290855408,-6.0376293221839,-2.15102084414197,-298.918042542802
738534.42123651236761361361,-6.01916562395093,-2.16025269325846,-298.954969939268
738534.42123660282231867313,-6.01916562395093,-2.13255714590899,-298.964201788385
738534.42123669316060841084,-6.00070192571795,-2.13255714590899,-298.87188329722
738534.42123678361531347036,-6.00070192571795,-2.11409344767602,-298.945738090152
738534.42123687407001852989,-5.99147007660146,-2.11409344767602,-298.982665486618
738534.42123696452472358942,-5.98223822748497,-2.10486159855953,-298.945738090152
738534.42123705497942864895,-5.99147007660146,-2.10486159855953,-298.798028504288
738534.42123714531771838665,-5.97300637836848,-2.09562974944304,-298.862651448103
738534.42123723577242344618,-5.98223822748497,-2.08639790032655,-298.945738090152
738534.42123732622712850571,-5.93607898190252,-2.06793420209357,-298.908810693686
738534.42123741668183356524,-5.93607898190252,-2.04947050386059,-298.936506241035
738534.42123750713653862476,-5.88991973632008,-2.0402386547441,-298.918042542802
738534.42123759759124368429,-5.89915158543657,-2.02177495651112,-298.881115146336
738534.42123768792953342199,-5.84376049073763,-2.00331125827815,-298.918042542802
738534.42123777838423848152,-5.85299233985412,-1.96638386181219,-298.908810693686
738534.42123786883894354105,-5.80683309427168,-1.9571520126957,-298.899578844569
738534.42123795929364860058,-5.7883693960387,-1.92022461622974,-298.899578844569
738534.42123804974835366011,-5.74221015045625,-1.88329721976379,-298.899578844569
738534.42123814008664339781,-5.69605090487381,-1.83713797418134,-298.890346995453
738534.42123823054134845734,-5.64989165929136,-1.80021057771538,-298.890346995453
738534.42123832099605351686,-5.58526871547594,-1.76328318124943,-298.84418774987
738534.42123841145075857639,-5.57603686635945,-1.73558763389996,-298.862651448103
738534.42123850190546363592,-5.53910946989349,-1.72635578478347,-298.779564806055
738534.42123859224375337362,-5.54834131900998,-1.71712393566698,-298.862651448103
738534.42123868269845843315,-5.50218207342753,-1.73558763389996,-298.853419598987
738534.42123877315316349268,-5.58526871547594,-1.78174687948241,-298.798028504288
738534.42123886360786855221,-5.59450056459243,-1.84636982329783,-298.834955900754
738534.42123895406257361174,-5.71451460310678,-1.91099276711325,-298.853419598987
738534.42123904440086334944,-5.72374645222327,-1.98484756004517,-298.84418774987
738534.42123913485556840897,-5.82529679250465,-2.01254310739463,-298.862651448103
738534.42123922531027346849,-5.83452864162114,-2.06793420209357,-298.881115146336
738534.42123931576497852802,-5.92684713278603,-2.08639790032655,-298.927274391919
738534.42123940621968358755,-5.89915158543657,-2.1233252967925,-298.918042542802
738534.42123949667438864708,-5.9545426801355,-2.11409344767602,-298.936506241035
738534.42123958701267838478,-5.93607898190252,-2.14178899502548,-298.927274391919
738534.42123967746738344431,-5.97300637836848,-2.1233252967925,-298.918042542802
738534.42123976792208850384,-5.97300637836848,-2.13255714590899,-298.899578844569
738534.42123985837679356337,-5.94531083101901,-2.14178899502548,-298.936506241035
738534.42123994883149862289,-5.98223822748497,-2.13255714590899,-298.927274391919
738534.42124003916978836060,-5.94531083101901,-2.14178899502548,-298.853419598987
738534.42124012962449342012,-5.98223822748497,-2.14178899502548,-298.936506241035
738534.42124022007919847965,-5.93607898190252,-2.14178899502548,-298.927274391919
738534.42124031053390353918,-5.97300637836848,-2.13255714590899,-298.890346995453
738534.42124040098860859871,-5.93607898190252,-2.14178899502548,-298.936506241035
738534.42124049132689833641,-5.97300637836848,-2.13255714590899,-298.936506241035
738534.42124058178160339594,-5.91761528366955,-2.15102084414197,-298.825724051637
738534.42124067223630845547,-5.96377452925199,-2.14178899502548,-298.788796655171
738534.42124076269101351500,-5.90838343455306,-2.14178899502548,-298.936506241035
738534.42124085314571857452,-5.9545426801355,-2.13255714590899,-298.936506241035
738534.42124094360042363405,-5.93607898190252,-2.14178899502548,-298.936506241035
738534.42124103393871337175,-5.9545426801355,-2.13255714590899,-298.899578844569
738534.42124112439341843128,-5.91761528366955,-2.13255714590899,-298.936506241035
738534.42124121484812349081,-5.94531083101901,-2.1233252967925,-298.945738090152
738534.42124130530282855034,-5.92684713278603,-2.13255714590899,-298.945738090152
738534.42124139575753360987,-5.94531083101901,-2.13255714590899,-298.908810693686
738534.42124148609582334757,-5.9545426801355,-2.14178899502548,-298.936506241035
738534.42124157655052840710,-5.9545426801355,-2.14178899502548,-298.936506241035
738534.42124166700523346663,-5.97300637836848,-2.13255714590899,-298.945738090152
738534.42124175745993852615,-5.9545426801355,-2.15102084414197,-298.881115146336
738534.42124184791464358568,-5.97300637836848,-2.14178899502548,-298.936506241035
738534.42124193825293332338,-5.93607898190252,-2.15102084414197,-298.936506241035
738534.42124202870763838291,-5.97300637836848,-2.15102084414197,-298.899578844569
738534.42124211916234344244,-5.9545426801355,-2.16025269325846,-298.936506241035
738534.42124220961704850197,-5.99147007660146,-2.14178899502548,-298.954969939268
738534.42124230007175356150,-5.96377452925199,-2.15102084414197,-298.927274391919
738534.42124239041004329920,-5.99147007660146,-2.15102084414197,-298.936506241035
738534.42124248086474835873,-5.9545426801355,-2.15102084414197,-298.954969939268
738534.42124257131945341825,-5.96377452925199,-2.15102084414197,-298.945738090152
738534.42124266177415847778,-5.96377452925199,-2.15102084414197,-298.918042542802
738534.42124275222886353731,-5.96377452925199,-2.15102084414197,-298.954969939268
738534.42124284268356859684,-5.97300637836848,-2.15102084414197,-298.945738090152
738534.42124293302185833454,-5.97300637836848,-2.16025269325846,-298.881115146336
738534.42124302347656339407,-5.98223822748497,-2.15102084414197,-298.945738090152
738534.42124311393126845360,-5.9545426801355,-2.14178899502548,-298.936506241035
738534.42124320438597351313,-5.96377452925199,-2.15102084414197,-298.87188329722
738534.42124329484067857265,-5.9545426801355,-2.15102084414197,-298.890346995453
738534.42124338517896831036,-5.98223822748497,-2.15102084414197,-298.890346995453
738534.42124347563367336988,-5.94531083101901,-2.15102084414197,-298.862651448103
738534.42124356608837842941,-5.97300637836848,-2.14178899502548,-298.87188329722
738534.42124365654308348894,-5.9545426801355,-2.15102084414197,-298.862651448103
738534.42124374699778854847,-5.97300637836848,-2.15102084414197,-298.899578844569
738534.42124383733607828617,-5.9545426801355,-2.15102084414197,-298.927274391919
738534.42124392779078334570,-5.94531083101901,-2.14178899502548,-298.945738090152
738534.42124401824548840523,-5.94531083101901,-2.15102084414197,-298.945738090152
738534.42124410870019346476,-5.96377452925199,-2.15102084414197,-298.816492202521
738534.42124419915489852428,-5.97300637836848,-2.15102084414197,-298.862651448103
738534.42124428949318826199,-5.94531083101901,-2.14178899502548,-298.982665486618
738534.42124437994789332151,-5.96377452925199,-2.14178899502548,-298.964201788385
738534.42124447040259838104,-5.89915158543657,-2.13255714590899,-298.954969939268
738534.42124456085730344057,-5.89915158543657,-2.1233252967925,-298.954969939268
738534.42124465131200850010,-5.8714560380871,-2.1233252967925,-298.908810693686
738534.42124474176671355963,-5.88991973632008,-2.11409344767602,-298.908810693686
738534.42124483210500329733,-5.82529679250465,-2.1233252967925,-298.862651448103
738534.42124492255970835686,-5.82529679250465,-2.1233252967925,-298.973433637501
738534.42124501301441341639,-5.7883693960387,-2.1233252967925,-298.945738090152
738534.42124510346911847591,-5.88991973632008,-2.1233252967925,-298.936506241035
738534.42124519392382353544,-5.8714560380871,-2.10486159855953,-298.936506241035
738534.42124528426211327314,-5.92684713278603,-2.10486159855953,-298.954969939268
738534.42124537471681833267,-5.90838343455306,-2.13255714590899,-298.954969939268
738534.42124546517152339220,-5.93607898190252,-2.15102084414197,-298.964201788385
738534.42124555562622845173,-5.99147007660146,-2.15102084414197,-298.936506241035
738534.42124564608093351126,-5.97300637836848,-2.15102084414197,-298.964201788385
738534.42124573641922324896,-6.00993377483444,-2.15102084414197,-298.964201788385
738534.42124582687392830849,-5.96377452925199,-2.15102084414197,-298.936506241035
738534.42124591732863336802,-6.00070192571795,-2.15102084414197,-298.964201788385
738534.42124600778333842754,-5.98223822748497,-2.16025269325846,-298.964201788385
738534.42124609823804348707,-6.00993377483444,-2.14178899502548,-298.936506241035
738534.42124618857633322477,-5.97300637836848,-2.10486159855953,-298.936506241035
738534.42124627903103828430,-5.82529679250465,-2.02177495651112,-298.936506241035
738534.42124636948574334383,-5.31754509109775,-1.89252906888028,-298.862651448103
738534.42124645994044840336,-4.83748893704032,-1.92022461622974,-298.862651448103
738534.42124655039515346289,-4.67131565294351,-1.97561571092868,-298.853419598987
738534.42124664084985852242,-5.34524063844722,-2.17871639149144,-298.87188329722
738534.42124673118814826012,-5.73297830133976,-2.51106295968505,-298.936506241035
738534.42124682164285331964,-5.94531083101901,-2.37258522293771,-298.945738090152
738534.42124691209755837917,-5.96377452925199,-2.24333933530686,-298.918042542802
738534.42124700255226343870,-5.97300637836848,-2.16025269325846,-298.881115146336
738534.42124709300696849823,-5.96377452925199,-2.14178899502548,-298.945738090152
738534.42124718334525823593,-5.9545426801355,-2.14178899502548,-298.945738090152
738534.42124727379996329546,-6.00070192571795,-2.1233252967925,-298.908810693686
738534.42124736425466835499,-5.9545426801355,-2.1233252967925,-298.87188329722
738534.42124745470937341452,-5.98223822748497,-2.10486159855953,-298.945738090152
738534.42124754516407847404,-5.92684713278603,-2.11409344767602,-298.936506241035
738534.42124763550236821175,-5.97300637836848,-2.09562974944304,-298.87188329722
738534.42124772595707327127,-5.93607898190252,-2.09562974944304,-298.816492202521
738534.42124781641177833080,-5.96377452925199,-2.08639790032655,-298.890346995453
738534.42124790686648339033,-5.91761528366955,-2.08639790032655,-298.918042542802
738534.42124799732118844986,-5.94531083101901,-2.06793420209357,-298.881115146336
738534.42124808777589350939,-5.90838343455306,-2.06793420209357,-298.954969939268
738534.42124817811418324709,-5.91761528366955,-2.04947050386059,-298.991897335734
738534.42124826856888830662,-5.8714560380871,-2.0402386547441,-298.87188329722
738534.42124835902359336615,-5.8714560380871,-2.02177495651112,-298.908810693686
738534.42124844947829842567,-5.84376049073763,-2.00331125827815,-298.945738090152
738534.42124853993300348520,-5.81606494338816,-1.97561571092868,-299.001129184851
738534.42124863027129322290,-5.77913754692221,-1.94792016357921,-298.816492202521
738534.42124872072599828243,-5.74221015045625,-1.91099276711325,-298.954969939268
738534.42124881118070334196,-5.72374645222327,-1.8740653706473,-298.945738090152
738534.42124890163540840149,-5.65912350840785,-1.82790612506485,-298.899578844569
738534.42124899209011346102,-5.64989165929136,-1.80021057771538,-298.899578844569
738534.42124908242840319872,-5.57603686635945,-1.78174687948241,-298.899578844569
738534.42124917288310825825,-5.56680501724296,-1.73558763389996,-298.890346995453
738534.42124926333781331778,-5.51141392254402,-1.72635578478347,-298.87188329722
738534.42124935379251837730,-5.52064577166051,-1.70789208655049,-298.890346995453
738534.42124944424722343683,-5.48371837519456,-1.70789208655049,-298.881115146336
738534.42124953458551317453,-5.50218207342753,-1.72635578478347,-298.890346995453
738534.42124962504021823406,-5.52064577166051,-1.78174687948241,-298.899578844569
738534.42124971549492329359,-5.56680501724296,-1.82790612506485,-298.84418774987
738534.42124980594962835312,-5.63142796105838,-1.90176091799676,-298.918042542802
738534.42124989640433341265,-5.67758720664083,-1.9571520126957,-298.936506241035
738534.42124998685903847218,-5.76067384868923,-2.01254310739463,-298.890346995453
738534.42125007719732820988,-5.7883693960387,-2.04947050386059,-298.945738090152
738534.42125016765203326941,-5.84376049073763,-2.07716605121006,-298.964201788385
738534.42125025810673832893,-5.85299233985412,-2.09562974944304,-298.964201788385
738534.42125034856144338846,-5.89915158543657,-2.10486159855953,-298.954969939268
738534.42125043901614844799,-5.8714560380871,-2.11409344767602,-298.954969939268
738534.42125052935443818569,-5.90838343455306,-2.11409344767602,-298.964201788385
738534.42125061980914324522,-5.88991973632008,-2.13255714590899,-298.918042542802
738534.42125071026384830475,-5.93607898190252,-2.1233252967925,-298.964201788385
738534.42125080071855336428,-5.88991973632008,-2.1233252967925,-298.964201788385
738534.42125089117325842381,-5.91761528366955,-2.11409344767602,-298.954969939268
738534.42125098151154816151,-5.88991973632008,-2.1233252967925,-298.945738090152
738534.42125107196625322104,-5.88068788720359,-2.1233252967925,-298.918042542802
738534.42125116242095828056,-5.89915158543657,-2.13255714590899,-298.881115146336
738534.42125125287566334009,-5.8714560380871,-2.1233252967925,-298.788796655171
738534.42125134333036839962,-5.91761528366955,-2.13255714590899,-298.918042542802
738534.42125143366865813732,-5.85299233985412,-2.1233252967925,-298.927274391919
738534.42125152412336319685,-5.88068788720359,-2.11409344767602,-298.908810693686
738534.42125161457806825638,-5.86222418897061,-2.1233252967925,-298.964201788385
738534.42125170503277331591,-5.89915158543657,-2.1233252967925,-298.973433637501
738534.42125179548747837543,-5.8714560380871,-2.13255714590899,-298.918042542802
738534.42125188594218343496,-5.91761528366955,-2.1233252967925,-298.954969939268
738534.42125197628047317266,-5.8714560380871,-2.13255714590899,-298.936506241035
738534.42125206673517823219,-5.91761528366955,-2.1233252967925,-298.973433637501
738534.42125215718988329172,-5.88068788720359,-2.13255714590899,-298.964201788385
738534.42125224764458835125,-5.92684713278603,-2.13255714590899,-298.908810693686
738534.42125233809929341078,-5.86222418897061,-2.13255714590899,-298.973433637501
738534.42125242843758314848,-5.90838343455306,-2.13255714590899,-298.991897335734
738534.42125251889228820801,-5.88068788720359,-2.14178899502548,-298.954969939268
738534.42125260934699326754,-5.92684713278603,-2.13255714590899,-298.982665486618
738534.42125269980169832706,-5.88068788720359,-2.13255714590899,-298.973433637501
738534.42125279025640338659,-5.88991973632008,-2.14178899502548,-298.982665486618
738534.42125288059469312429,-5.94531083101901,-2.14178899502548,-298.890346995453
738534.42125297104939818382,-5.88068788720359,-2.14178899502548,-298.973433637501
738534.42125306150410324335,-5.92684713278603,-2.14178899502548,-298.982665486618
738534.42125315195880830288,-5.88991973632008,-2.15102084414197,-298.973433637501
738534.42125324241351336241,-5.94531083101901,-2.13255714590899,-298.973433637501
738534.42125333275180310011,-5.88068788720359,-2.14178899502548,-298.964201788385
738534.42125342320650815964,-5.93607898190252,-2.14178899502548,-298.927274391919
738534.42125351366121321917,-5.88068788720359,-2.15102084414197,-298.982665486618
738534.42125360411591827869,-5.91761528366955,-2.14178899502548,-298.982665486618
738534.42125369457062333822,-5.89915158543657,-2.14178899502548,-298.964201788385
738534.42125378502532839775,-5.92684713278603,-2.14178899502548,-298.964201788385
738534.42125387536361813545,-5.88991973632008,-2.15102084414197,-298.973433637501
738534.42125396581832319498,-5.91761528366955,-2.14178899502548,-298.982665486618
738534.42125405627302825451,-5.89915158543657,-2.14178899502548,-298.964201788385
738534.42125414672773331404,-5.89915158543657,-2.13255714590899,-298.991897335734
738534.42125423718243837357,-5.88991973632008,-2.14178899502548,-298.973433637501
738534.42125432752072811127,-5.89915158543657,-2.13255714590899,-298.954969939268
738534.42125441797543317080,-5.92684713278603,-2.14178899502548,-298.982665486618
738534.42125450843013823032,-5.89915158543657,-2.13255714590899,-298.991897335734
738534.42125459888484328985,-5.88991973632008,-2.14178899502548,-298.991897335734
738534.42125468933954834938,-5.8714560380871,-2.15102084414197,-298.899578844569
738534.42125477967783808708,-5.91761528366955,-2.14178899502548,-298.834955900754
738534.42125487013254314661,-5.88068788720359,-2.15102084414197,-298.973433637501
738534.42125496058724820614,-5.91761528366955,-2.14178899502548,-298.982665486618
738534.42125505104195326567,-5.89915158543657,-2.15102084414197,-298.936506241035
738534.42125514149665832520,-5.90838343455306,-2.14178899502548,-298.918042542802
738534.42125523195136338472,-5.80683309427168,-2.1233252967925,-298.964201788385
738534.42125532228965312243,-5.79760124515519,-2.09562974944304,-298.945738090152
738534.42125541274435818195,-5.77913754692221,-2.09562974944304,-298.973433637501
738534.42125550319906324148,-5.79760124515519,-2.08639790032655,-298.945738090152
738534.42125559365376830101,-5.69605090487381,-2.06793420209357,-298.918042542802
738534.42125568410847336054,-5.67758720664083,-2.09562974944304,-298.945738090152
738534.42125577444676309824,-5.72374645222327,-2.07716605121006,-298.973433637501
738534.42125586490146815777,-5.75144199957274,-2.07716605121006,-299.010361033967
738534.42125595535617321730,-5.82529679250465,-2.07716605121006,-298.991897335734
738534.42125604581087827682,-5.83452864162114,-2.15102084414197,-298.927274391919
738534.42125613626558333635,-5.90838343455306,-2.16025269325846,-298.927274391919
738534.42125622660387307405,-5.89915158543657,-2.17871639149144,-298.918042542802
738534.42125631705857813358,-5.97300637836848,-2.17871639149144,-298.936506241035
738534.42125640751328319311,-5.93607898190252,-2.18794824060793,-299.0288247322
738534.42125649796798825264,-5.98223822748497,-2.15102084414197,-299.019592883084
738534.42125658842269331217,-5.9545426801355,-2.15102084414197,-298.982665486618
738534.42125667876098304987,-5.92684713278603,-2.13255714590899,-298.918042542802
738534.42125676921568810940,-5.92684713278603,-2.14178899502548,-298.991897335734
738534.42125685967039316893,-5.94531083101901,-2.10486159855953,-299.010361033967
738534.42125695012509822845,-5.83452864162114,-2.04947050386059,-298.991897335734
738534.42125704057980328798,-5.45602282784509,-1.91099276711325,-298.964201788385
738534.42125713103450834751,-4.95750297555467,-1.88329721976379,-298.964201788385
738534.42125722137279808521,-4.58822901089511,-1.93868831446272,-298.834955900754
738534.42125731182750314474,-4.92980742820521,-2.04947050386059,-298.862651448103
738534.42125740228220820427,-5.51141392254402,-2.4649037141026,-298.973433637501
738534.42125749273691326380,-5.83452864162114,-2.43720816675314,-299.038056581317
738534.42125758319161832333,-5.88068788720359,-2.26180303353984,-299.001129184851
738534.42125767352990806103,-5.88068788720359,-2.14178899502548,-298.982665486618
738534.42125776398461312056,-5.85299233985412,-2.1233252967925,-299.019592883084
738534.42125785443931818008,-5.89915158543657,-2.10486159855953,-299.038056581317
738534.42125794489402323961,-5.85299233985412,-2.09562974944304,-298.927274391919
738534.42125803534872829914,-5.88991973632008,-2.07716605121006,-299.05652027955
738534.42125812568701803684,-5.84376049073763,-2.10486159855953,-299.0288247322
738534.42125821614172309637,-5.88991973632008,-2.09562974944304,-298.834955900754
738534.42125830659642815590,-5.84376049073763,-2.09562974944304,-298.927274391919
738534.42125839705113321543,-5.88068788720359,-2.08639790032655,-299.010361033967
738534.42125848750583827496,-5.8714560380871,-2.07716605121006,-299.010361033967
738534.42125857784412801266,-5.84376049073763,-2.07716605121006,-298.982665486618
738534.42125866829883307219,-5.88068788720359,-2.06793420209357,-299.038056581317
738534.42125875875353813171,-5.85299233985412,-2.05870235297708,-299.019592883084
738534.42125884920824319124,-5.85299233985412,-2.0402386547441,-298.973433637501
738534.42125893966294825077,-5.7883693960387,-2.03100680562761,-298.991897335734
738534.42125903011765331030,-5.81606494338816,-1.99407940916166,-299.010361033967
738534.42125912045594304800,-5.73297830133976,-1.98484756004517,-298.954969939268
738534.42125921091064810753,-5.75144199957274,-1.9571520126957,-298.954969939268
738534.42125930136535316706,-5.66835535752434,-1.94792016357921,-298.908810693686
738534.42125939182005822659,-5.66835535752434,-1.92022461622974,-298.899578844569
738534.42125948227476328611,-5.6129642628254,-1.90176091799676,-298.927274391919
738534.42125957261305302382,-5.58526871547594,-1.84636982329783,-298.890346995453
738534.42125966306775808334,-5.55757316812647,-1.82790612506485,-298.862651448103
738534.42125975352246314287,-5.51141392254402,-1.76328318124943,-298.862651448103
738534.42125984397716820240,-5.43755912961211,-1.72635578478347,-298.853419598987
738534.42125993443187326193,-5.43755912961211,-1.68019653920103,-298.825724051637
738534.42126002477016299963,-5.39139988402966,-1.66173284096805,-298.834955900754
738534.42126011522486805916,-5.40063173314615,-1.65250099185156,-298.816492202521
738534.42126020567957311869,-5.3637043366802,-1.68942838831751,-298.807260353404
738534.42126029613427817822,-5.34524063844722,-1.70789208655049,-298.807260353404
738534.42126038658898323774,-5.45602282784509,-1.78174687948241,-298.908810693686
738534.42126047692727297544,-5.46525467696158,-1.8740653706473,-298.927274391919
738534.42126056738197803497,-5.54834131900998,-1.92945646534623,-298.945738090152
738534.42126065783668309450,-5.58526871547594,-2.00331125827815,-298.964201788385
738534.42126074829138815403,-5.64065981017487,-2.00331125827815,-298.927274391919
738534.42126083874609321356,-5.66835535752434,-2.04947050386059,-298.927274391919
738534.42126092920079827309,-5.71451460310678,-2.04947050386059,-298.964201788385
738534.42126101953908801079,-5.66835535752434,-2.06793420209357,-298.945738090152
738534.42126110999379307032,-5.70528275399029,-2.0402386547441,-298.945738090152
738534.42126120044849812984,-5.69605090487381,-2.02177495651112,-298.973433637501
738534.42126129090320318937,-5.70528275399029,-2.01254310739463,-299.019592883084
738534.42126138135790824890,-5.72374645222327,-2.0402386547441,-298.945738090152
738534.42126147169619798660,-5.71451460310678,-2.03100680562761,-298.954969939268
738534.42126156215090304613,-5.72374645222327,-2.0402386547441,-298.936506241035
738534.42126165260560810566,-5.73297830133976,-2.05870235297708,-298.927274391919
738534.42126174306031316519,-5.76067384868923,-2.07716605121006,-298.798028504288
738534.42126183351501822472,-5.75144199957274,-2.07716605121006,-298.908810693686
738534.42126192385330796242,-5.76067384868923,-2.08639790032655,-298.991897335734
738534.42126201430801302195,-5.73297830133976,-2.09562974944304,-298.991897335734
738534.42126210476271808147,-5.76990569780572,-2.09562974944304,-298.954969939268
738534.42126219521742314100,-5.75144199957274,-2.11409344767602,-298.973433637501
738534.42126228567212820053,-5.77913754692221,-2.10486159855953,-299.001129184851
738534.42126237612683326006,-5.76990569780572,-2.11409344767602,-299.010361033967
738534.42126246646512299776,-5.80683309427168,-2.11409344767602,-298.964201788385
738534.42126255691982805729,-5.7883693960387,-2.11409344767602,-299.001129184851
738534.42126264737453311682,-5.79760124515519,-2.1233252967925,-298.982665486618
738534.42126273782923817635,-5.79760124515519,-2.11409344767602,-298.936506241035
738534.42126282828394323587,-5.7883693960387,-2.11409344767602,-298.973433637501
738534.42126291862223297358,-5.76990569780572,-2.07716605121006,-299.001129184851
738534.42126300907693803310,-5.74221015045625,-2.07716605121006,-298.899578844569
738534.42126309953164309263,-5.72374645222327,-2.06793420209357,-298.954969939268
738534.42126318998634815216,-5.67758720664083,-2.08639790032655,-298.991897335734
738534.42126328044105321169,-5.69605090487381,-2.09562974944304,-298.991897335734
738534.42126337077934294939,-5.64065981017487,-2.09562974944304,-298.973433637501
738534.42126346123404800892,-5.66835535752434,-2.10486159855953,-299.001129184851
738534.42126355168875306845,-5.64989165929136,-2.11409344767602,-298.982665486618
738534.42126364214345812798,-5.68681905575732,-2.10486159855953,-298.945738090152
738534.42126373259816318750,-5.64989165929136,-2.1233252967925,-299.010361033967
738534.42126382293645292521,-5.72374645222327,-2.08639790032655,-298.973433637501
738534.42126391339115798473,-5.65912350840785,-2.09562974944304,-298.936506241035
738534.42126400384586304426,-5.65912350840785,-2.07716605121006,-298.899578844569
738534.42126409430056810379,-5.69605090487381,-2.07716605121006,-298.890346995453
738534.42126418475527316332,-5.67758720664083,-2.07716605121006,-298.973433637501
738534.42126427520997822285,-5.69605090487381,-2.07716605121006,-298.973433637501
738534.42126436554826796055,-5.67758720664083,-2.08639790032655,-298.982665486618
738534.42126445600297302008,-5.68681905575732,-2.09562974944304,-298.982665486618
738534.42126454645767807961,-5.64989165929136,-2.10486159855953,-298.881115146336
738534.42126463691238313913,-5.68681905575732,-2.10486159855953,-298.964201788385
738534.42126472736708819866,-5.60373241370891,-2.06793420209357,-298.908810693686
738534.42126481770537793636,-5.64989165929136,-2.06793420209357,-298.964201788385
738534.42126490816008299589,-5.64989165929136,-2.10486159855953,-298.908810693686
738534.42126499861478805542,-5.69605090487381,-2.09562974944304,-298.908810693686
738534.42126508906949311495,-5.67758720664083,-2.11409344767602,-298.899578844569
738534.42126517952419817448,-5.72374645222327,-2.08639790032655,-298.918042542802
738534.42126526986248791218,-5.70528275399029,-2.10486159855953,-298.761101107822
738534.42126536031719297171,-5.75144199957274,-2.07716605121006,-298.816492202521
738534.42126545077189803123,-5.69605090487381,-2.06793420209357,-298.899578844569
738534.42126554122660309076,-5.70528275399029,-2.0402386547441,-298.908810693686
738534.42126563168130815029,-5.65912350840785,-2.0402386547441,-298.890346995453
738534.42126572201959788799,-5.66835535752434,-2.03100680562761,-298.834955900754
738534.42126581247430294752,-5.63142796105838,-2.02177495651112,-298.890346995453
738534.42126590292900800705,-5.60373241370891,-2.01254310739463,-298.890346995453
738534.42126599338371306658,-5.58526871547594,-2.02177495651112,-298.936506241035
738534.42126608383841812611,-5.52064577166051,-2.03100680562761,-298.881115146336
738534.42126617429312318563,-5.6129642628254,-2.03100680562761,-298.964201788385
738534.42126626463141292334,-5.62219611194189,-2.02177495651112,-298.973433637501
738534.42126635508611798286,-5.68681905575732,-2.00331125827815,-298.918042542802
738534.42126644554082304239,-5.64989165929136,-2.04947050386059,-298.964201788385
738534.42126653599552810192,-5.72374645222327,-2.03100680562761,-298.964201788385
738534.42126662645023316145,-5.72374645222327,-2.04947050386059,-298.945738090152
738534.42126671678852289915,-5.75144199957274,-2.0402386547441,-298.973433637501
738534.42126680724322795868,-5.75144199957274,-2.05870235297708,-298.973433637501
738534.42126689769793301821,-5.76990569780572,-2.0402386547441,-299.010361033967
738534.42126698815263807774,-5.73297830133976,-2.0402386547441,-298.954969939268
738534.42126707860734313726,-5.77913754692221,-2.05870235297708,-298.982665486618
738534.42126716894563287497,-5.7883693960387,-2.0402386547441,-299.019592883084
738534.42126725940033793449,-5.70528275399029,-1.97561571092868,-298.918042542802
738534.42126734985504299402,-5.33600878933073,-1.83713797418134,-298.936506241035
738534.42126744030974805355,-4.85595263527329,-1.75405133213294,-298.918042542802
738534.42126753076445311308,-4.49591051973022,-1.81867427594836,-298.834955900754
738534.42126762110274285078,-4.75440229499191,-1.92945646534623,-298.899578844569
738534.42126771155744791031,-5.21599475081637,-2.11409344767602,-298.964201788385
738534.42126780201215296984,-5.54834131900998,-2.43720816675314,-299.047288430433
738534.42126789246685802937,-5.74221015045625,-2.27103488265633,-298.945738090152
738534.42126798292156308889,-5.75144199957274,-2.11409344767602,-299.010361033967
738534.42126807337626814842,-5.76990569780572,-2.14178899502548,-299.001129184851
738534.42126816371455788612,-5.7883693960387,-2.31719412823878,-298.954969939268
738534.42126825416926294565,-5.75144199957274,-1.94792016357921,-298.945738090152
738534.42126834462396800518,-5.76067384868923,-2.05870235297708,-298.964201788385
738534.42126843507867306471,-5.79760124515519,-2.0402386547441,-298.918042542802
738534.42126852553337812424,-5.76990569780572,-1.98484756004517,-298.954969939268
738534.42126861587166786194,-5.73297830133976,-1.96638386181219,-298.954969939268
738534.42126870632637292147,-5.76990569780572,-1.93868831446272,-298.954969939268
738534.42126879678107798100,-5.75144199957274,-1.9571520126957,-298.742637409589
738534.42126888723578304052,-5.72374645222327,-1.91099276711325,-298.881115146336
738534.42126897769048810005,-5.67758720664083,-1.90176091799676,-298.945738090152
738534.42126906802877783775,-5.68681905575732,-1.85560167241432,-298.890346995453
738534.42126915848348289728,-5.58526871547594,-1.86483352153081,-298.945738090152
738534.42126924893818795681,-5.6129642628254,-1.89252906888028,-298.945738090152
738534.42126933939289301634,-5.57603686635945,-1.92022461622974,-298.936506241035
738534.42126942984759807587,-5.55757316812647,-1.88329721976379,-298.945738090152
738534.42126952030230313540,-5.54834131900998,-1.94792016357921,-298.945738090152
738534.42126961064059287310,-5.56680501724296,-1.92945646534623,-298.927274391919
738534.42126970109529793262,-5.55757316812647,-1.89252906888028,-298.908810693686
738534.42126979155000299215,-5.51141392254402,-1.83713797418134,-298.890346995453
738534.42126988200470805168,-5.46525467696158,-1.76328318124943,-298.899578844569
738534.42126997245941311121,-5.40063173314615,-1.70789208655049,-298.853419598987
738534.42127006279770284891,-5.35447248756371,-1.68019653920103,-298.84418774987
738534.42127015325240790844,-5.31754509109775,-1.65250099185156,-298.853419598987
738534.42127024370711296797,-5.2713858455153,-1.62480544450209,-298.834955900754
738534.42127033416181802750,-5.20676290169988,-1.58787804803613,-298.798028504288
738534.42127042461652308702,-5.21599475081637,-1.57864619891964,-298.834955900754
738534.42127051495481282473,-5.16060365611744,-1.60634174626911,-298.862651448103
738534.42127060540951788425,-5.19753105258339,-1.65250099185156,-298.853419598987
738534.42127069586422294378,-5.17906735435041,-1.71712393566698,-298.918042542802
738534.42127078631892800331,-5.25292214728233,-1.75405133213294,-298.954969939268
738534.42127087677363306284,-5.28061769463179,-1.80021057771538,-298.982665486618
738534.42127096711192280054,-5.41909543137913,-1.85560167241432,-298.899578844569
738534.42127105756662786007,-5.45602282784509,-1.92945646534623,-298.982665486618
738534.42127114802133291960,-5.53910946989349,-1.94792016357921,-298.991897335734
738534.42127123847603797913,-5.56680501724296,-1.97561571092868,-298.954969939268
738534.42127132893074303865,-5.64989165929136,-1.98484756004517,-298.973433637501
738534.42127141938544809818,-5.64065981017487,-2.02177495651112,-298.982665486618
738534.42127150972373783588,-5.67758720664083,-2.02177495651112,-298.982665486618
738534.42127160017844289541,-5.74221015045625,-2.04947050386059,-298.927274391919
738534.42127169063314795494,-5.67758720664083,-2.0402386547441,-298.982665486618
738534.42127178108785301447,-5.71451460310678,-2.02177495651112,-298.982665486618
738534.42127187154255807400,-5.67758720664083,-2.03100680562761,-298.982665486618
738534.42127196188084781170,-5.70528275399029,-2.02177495651112,-298.964201788385
738534.42127205233555287123,-5.67758720664083,-2.0402386547441,-298.982665486618
738534.42127214279025793076,-5.71451460310678,-2.02177495651112,-298.991897335734
738534.42127223324496299028,-5.66835535752434,-2.03100680562761,-298.973433637501
738534.42127232369966804981,-5.69605090487381,-2.02177495651112,-298.881115146336
738534.42127241403795778751,-5.67758720664083,-2.0402386547441,-298.899578844569
738534.42127250449266284704,-5.70528275399029,-2.02177495651112,-298.982665486618
738534.42127259494736790657,-5.65912350840785,-2.0402386547441,-298.964201788385
738534.42127268540207296610,-5.69605090487381,-2.02177495651112,-298.982665486618
738534.42127277585677802563,-5.65912350840785,-2.02177495651112,-298.973433637501
738534.42127286619506776333,-5.66835535752434,-2.01254310739463,-298.936506241035
738534.42127295664977282286,-5.66835535752434,-2.03100680562761,-298.982665486618
738534.42127304710447788239,-5.67758720664083,-2.02177495651112,-298.982665486618
738534.42127313755918294191,-5.66835535752434,-2.02177495651112,-298.918042542802
738534.42127322801388800144,-5.65912350840785,-2.02177495651112,-299.001129184851
738534.42127331846859306097,-5.67758720664083,-2.01254310739463,-299.001129184851
738534.42127340880688279867,-5.64989165929136,-2.02177495651112,-298.982665486618
738534.42127349926158785820,-5.68681905575732,-2.01254310739463,-298.945738090152
738534.42127358971629291773,-5.66835535752434,-2.03100680562761,-298.991897335734
738534.42127368017099797726,-5.70528275399029,-2.0402386547441,-298.982665486618
738534.42127377062570303679,-5.67758720664083,-2.0402386547441,-298.927274391919
738534.42127386096399277449,-5.72374645222327,-2.0402386547441,-298.982665486618
738534.42127395141869783401,-5.69605090487381,-2.05870235297708,-298.936506241035
738534.42127404187340289354,-5.72374645222327,-2.0402386547441,-298.991897335734
738534.42127413232810795307,-5.70528275399029,-2.04947050386059,-298.982665486618
738534.42127422278281301260,-5.70528275399029,-2.0402386547441,-298.927274391919
738534.42127431312110275030,-5.75144199957274,-2.04947050386059,-299.001129184851
738534.42127440357580780983,-5.76067384868923,-2.04947050386059,-299.019592883084
738534.42127449403051286936,-5.72374645222327,-2.04947050386059,-299.038056581317
738534.42127458448521792889,-5.70528275399029,-2.04947050386059,-298.973433637501
738534.42127467493992298841,-5.72374645222327,-2.04947050386059,-299.047288430433
738534.42127476527821272612,-5.71451460310678,-2.0402386547441,-299.038056581317
738534.42127485573291778564,-5.72374645222327,-2.03100680562761,-298.945738090152
738534.42127494618762284517,-5.68681905575732,-2.05870235297708,-298.954969939268
738534.42127503664232790470,-5.73297830133976,-2.05870235297708,-298.954969939268
738534.42127512709703296423,-5.67758720664083,-2.04947050386059,-298.945738090152
738534.42127521755173802376,-5.71451460310678,-2.04947050386059,-298.918042542802
738534.42127530789002776146,-5.67758720664083,-2.0402386547441,-298.982665486618
738534.42127539834473282099,-5.64989165929136,-2.01254310739463,-299.001129184851
738534.42127548879943788052,-5.63142796105838,-2.03100680562761,-298.982665486618
738534.42127557925414294004,-5.63142796105838,-2.02177495651112,-299.010361033967
738534.42127566970884799957,-5.63142796105838,-2.01254310739463,-299.001129184851
738534.42127576004713773727,-5.54834131900998,-2.03100680562761,-298.991897335734
738534.42127585050184279680,-5.54834131900998,-2.02177495651112,-298.918042542802
738534.42127594095654785633,-5.54834131900998,-2.0402386547441,-298.918042542802
738534.42127603141125291586,-5.62219611194189,-2.02177495651112,-299.010361033967
738534.42127612186595797539,-5.64065981017487,-2.00331125827815,-298.991897335734
738534.42127621220424771309,-5.69605090487381,-2.0402386547441,-299.019592883084
738534.42127630265895277262,-5.71451460310678,-2.06793420209357,-299.019592883084
738534.42127639311365783215,-5.7883693960387,-2.05870235297708,-299.001129184851
738534.42127648356836289167,-5.74221015045625,-2.06793420209357,-299.0288247322
738534.42127657402306795120,-5.7883693960387,-2.05870235297708,-299.0288247322
738534.42127666447777301073,-5.76067384868923,-2.06793420209357,-299.010361033967
738534.42127675481606274843,-5.79760124515519,-2.05870235297708,-299.019592883084
738534.42127684527076780796,-5.75144199957274,-2.04947050386059,-299.019592883084
738534.42127693572547286749,-5.7883693960387,-2.05870235297708,-299.0288247322
738534.42127702618017792702,-5.77913754692221,-2.01254310739463,-298.973433637501
738534.42127711663488298655,-5.68681905575732,-1.96638386181219,-299.001129184851
738534.42127720697317272425,-5.29908139286477,-1.82790612506485,-298.954969939268
738534.42127729742787778378,-4.66208380382702,-1.80021057771538,-298.899578844569
738534.42127738788258284330,-4.28357799005097,-1.82790612506485,-298.881115146336
738534.42127747833728790283,-4.61592455824457,-1.93868831446272,-298.918042542802
738534.42127756879199296236,-5.38216803491317,-2.2987304300058,-299.038056581317
738534.42127765913028270006,-5.64065981017487,-2.34488967558824,-298.954969939268
738534.42127774958498775959,-5.74221015045625,-2.16025269325846,-299.0288247322
738534.42127784003969281912,-5.72374645222327,-2.08639790032655,-299.001129184851
738534.42127793049439787865,-5.76990569780572,-2.05870235297708,-299.010361033967
738534.42127802094910293818,-5.71451460310678,-2.0402386547441,-298.991897335734
738534.42127811128739267588,-5.74221015045625,-2.02177495651112,-299.019592883084
738534.42127820174209773540,-5.77913754692221,-2.02177495651112,-299.001129184851
738534.42127829219680279493,-5.69605090487381,-2.00331125827815,-298.973433637501
738534.42127838265150785446,-5.67758720664083,-2.00331125827815,-299.010361033967
738534.42127847310621291399,-5.74221015045625,-1.99407940916166,-299.010361033967
738534.42127856356091797352,-5.70528275399029,-1.99407940916166,-298.908810693686
738534.42127865389920771122,-5.71451460310678,-1.98484756004517,-298.964201788385
738534.42127874435391277075,-5.72374645222327,-1.99407940916166,-298.945738090152
738534.42127883480861783028,-5.73297830133976,-1.98484756004517,-298.899578844569
738534.42127892526332288980,-5.72374645222327,-1.96638386181219,-298.918042542802
738534.42127901571802794933,-5.68681905575732,-1.97561571092868,-298.936506241035
738534.42127910605631768703,-5.69605090487381,-1.94792016357921,-299.010361033967
738534.42127919651102274656,-5.65912350840785,-1.94792016357921,-299.001129184851
738534.42127928696572780609,-5.64989165929136,-1.92022461622974,-298.973433637501
738534.42127937742043286562,-5.57603686635945,-1.91099276711325,-298.908810693686
738534.42127946787513792515,-5.60373241370891,-1.8740653706473,-298.881115146336
