time_dn,ecg_projection_ll_ra_mV,ecg_projection_la_ra_mV,ecg_projection_vx_rl_mV
738508.43727835977915674448,-38.6352885525071,-42.8634754478591,-271.508682515946
738508.43727845011744648218,-38.5429700613422,-42.7988525040437,-271.591769157994
738508.43727854057215154171,-38.4968108157598,-42.7157658619953,-271.647160252693
738508.43727863102685660124,-38.5337382122257,-42.7896206549272,-271.601001007111
738508.43727872148156166077,-38.6168248542741,-42.8265480513932,-271.545609912412
738508.43727881193626672029,-38.5060426648762,-42.7526932584613,-271.610232856227
738508.43727890227455645800,-38.5245063631092,-42.7711569566942,-271.619464705344
738508.43727899272926151752,-38.5614337595752,-42.7711569566942,-271.582537308878
738508.43727908318396657705,-38.5614337595752,-42.8080843531602,-271.573305459761
738508.43727917363867163658,-38.5429700613422,-42.7711569566942,-271.601001007111
738508.43727926397696137428,-38.5245063631092,-42.7896206549272,-271.610232856227
738508.43727935443166643381,-38.6168248542741,-42.8450117496261,-271.527146214179
738508.43727944488637149334,-38.5706656086917,-42.8450117496261,-271.554841761528
738508.43727953534107655287,-38.5983611560411,-42.8265480513932,-271.545609912412
738508.43727962579578161240,-38.5983611560411,-42.8727072969756,-271.536378063295
738508.43727971613407135010,-38.5983611560411,-42.8173162022767,-271.554841761528
738508.43727980658877640963,-38.5706656086917,-42.8357799005097,-271.564073610645
738508.43727989704348146915,-38.6260567033906,-42.8450117496261,-271.527146214179
738508.43727998749818652868,-38.5152745139927,-42.7803888058107,-271.619464705344
738508.43728007795289158821,-38.5337382122257,-42.7619251075777,-271.619464705344
738508.43728016829118132591,-38.5245063631092,-42.7896206549272,-271.610232856227
738508.43728025874588638544,-38.5337382122257,-42.7619251075777,-271.62869655446
738508.43728034920059144497,-38.5245063631092,-42.7803888058107,-271.619464705344
738508.43728043965529650450,-38.5522019104587,-42.7803888058107,-271.610232856227
738508.43728052999358624220,-38.746070741905,-42.974257637257,-271.407132175665
738508.43728062044829130173,-38.6537522507401,-42.8727072969756,-271.517914365062
738508.43728071090299636126,-38.5798974578082,-42.7988525040437,-271.536378063295
738508.43728080135770142078,-38.5614337595752,-42.7896206549272,-271.554841761528
738508.43728089181240648031,-38.5983611560411,-42.6973021637623,-271.47175511948
738508.43728098215069621801,-38.5614337595752,-42.7249977111118,-271.44405957213
738508.43728107260540127754,-38.4321878719443,-42.9004028443251,-271.582537308878
738508.43728116306010633707,-38.3767967772454,-43.1404309213538,-271.721015045625
738508.43728125351481139660,-38.4414197210608,-42.9280983916745,-271.702551347392
738508.43728134396951645613,-38.4875789666433,-42.8634754478591,-271.665623950926
738508.43728143430780619383,-38.5706656086917,-42.8265480513932,-271.591769157994
738508.43728152476251125336,-38.5429700613422,-42.7988525040437,-271.601001007111
738508.43728161521721631289,-38.5798974578082,-42.8080843531602,-271.582537308878
738508.43728170567192137241,-38.5891293069246,-42.8080843531602,-271.564073610645
738508.43728179601021111012,-38.5891293069246,-42.7988525040437,-271.582537308878
738508.43728188646491616964,-38.5891293069246,-42.7896206549272,-271.564073610645
738508.43728197691962122917,-38.5798974578082,-42.7803888058107,-271.582537308878
738508.43728206737432628870,-38.5798974578082,-42.7803888058107,-271.573305459761
738508.43728215782903134823,-38.5798974578082,-42.7896206549272,-271.582537308878
738508.43728224816732108593,-38.5522019104587,-42.7526932584613,-271.591769157994
738508.43728233862202614546,-38.5337382122257,-42.7619251075777,-271.610232856227
738508.43728242907673120499,-38.5891293069246,-42.7896206549272,-271.554841761528
738508.43728251953143626451,-38.6075930051576,-42.8265480513932,-271.545609912412
738508.43728260998614132404,-38.6075930051576,-42.7988525040437,-271.554841761528
738508.43728270032443106174,-38.5798974578082,-42.7988525040437,-271.564073610645
738508.43728279077913612127,-38.6168248542741,-42.7988525040437,-271.545609912412
738508.43728288123384118080,-38.6168248542741,-42.8173162022767,-271.527146214179
738508.43728297168854624033,-38.5429700613422,-42.7249977111118,-271.610232856227
738508.43728306214325129986,-38.5891293069246,-42.7803888058107,-271.554841761528
738508.43728315248154103756,-38.5983611560411,-42.7896206549272,-271.554841761528
738508.43728324293624609709,-38.6260567033906,-42.8080843531602,-271.517914365062
738508.43728333339095115662,-38.5798974578082,-42.7711569566942,-271.573305459761
738508.43728342384565621614,-38.6075930051576,-42.7896206549272,-271.545609912412
738508.43728351418394595385,-38.6075930051576,-42.8173162022767,-271.545609912412
738508.43728360463865101337,-38.6260567033906,-42.8173162022767,-271.517914365062
738508.43728369509335607290,-38.5983611560411,-42.8265480513932,-271.545609912412
738508.43728378554806113243,-38.6352885525071,-42.8265480513932,-271.517914365062
738508.43728387600276619196,-38.5983611560411,-42.8357799005097,-271.554841761528
738508.43728396634105592966,-38.5522019104587,-42.7526932584613,-271.601001007111
738508.43728405679576098919,-38.6537522507401,-42.9096346934416,-271.499450666829
738508.43728414725046604872,-38.6537522507401,-42.8634754478591,-271.508682515946
738508.43728423770517110825,-38.5060426648762,-42.7619251075777,-271.647160252693
738508.43728432815987616777,-38.5060426648762,-42.7157658619953,-271.665623950926
738508.43728441849816590548,-38.5337382122257,-42.7988525040437,-271.637928403577
738508.43728450895287096500,-38.5891293069246,-42.8265480513932,-271.573305459761
738508.43728459940757602453,-38.5152745139927,-42.7434614093448,-271.637928403577
738508.43728468986228108406,-38.5152745139927,-42.7619251075777,-271.637928403577
738508.43728478020057082176,-38.5798974578082,-42.7988525040437,-271.573305459761
738508.43728487065527588129,-38.4875789666433,-42.7342295602283,-271.665623950926
738508.43728496110998094082,-38.5060426648762,-42.7249977111118,-271.647160252693
738508.43728505156468600035,-38.4875789666433,-42.7434614093448,-271.665623950926
738508.43728514201939105988,-38.5060426648762,-42.7157658619953,-271.65639210181
738508.43728523235768079758,-38.5337382122257,-42.7803888058107,-271.619464705344
738508.43728532281238585711,-38.5337382122257,-42.7434614093448,-271.637928403577
738508.43728541326709091663,-38.4598834192938,-42.7157658619953,-271.693319498276
738508.43728550372179597616,-38.5891293069246,-42.7988525040437,-271.573305459761
738508.43728559417650103569,-38.5152745139927,-42.7711569566942,-271.62869655446
738508.43728568451479077339,-38.5245063631092,-42.7434614093448,-271.637928403577
738508.43728577496949583292,-38.5614337595752,-42.8265480513932,-271.582537308878
738508.43728586542420089245,-38.5245063631092,-42.7619251075777,-271.62869655446
738508.43728595587890595198,-38.4783471175268,-42.7434614093448,-271.65639210181
738508.43728604621719568968,-38.5614337595752,-42.7896206549272,-271.591769157994
738508.43728613667190074921,-38.5060426648762,-42.7711569566942,-271.62869655446
738508.43728622712660580873,-38.4968108157598,-42.7434614093448,-271.647160252693
738508.43728631758131086826,-38.4968108157598,-42.7526932584613,-271.665623950926
738508.43728640803601592779,-38.5798974578082,-42.8450117496261,-271.564073610645
738508.43728649837430566549,-38.5429700613422,-42.7711569566942,-271.619464705344
738508.43728658882901072502,-38.4783471175268,-42.7526932584613,-271.665623950926
738508.43728667928371578455,-38.5706656086917,-42.7896206549272,-271.601001007111
738508.43728676973842084408,-38.5983611560411,-42.8634754478591,-271.554841761528
738508.43728686019312590361,-38.5429700613422,-42.7711569566942,-271.619464705344
738508.43728695053141564131,-38.5245063631092,-42.7896206549272,-271.619464705344
738508.43728704098612070084,-38.6168248542741,-42.8265480513932,-271.564073610645
738508.43728713144082576036,-38.5337382122257,-42.7711569566942,-271.62869655446
738508.43728722189553081989,-38.5522019104587,-42.7526932584613,-271.637928403577
738508.43728731235023587942,-38.5522019104587,-42.7803888058107,-271.582537308878
738508.43728740268852561712,-38.5798974578082,-42.7065340128788,-271.508682515946
738508.43728749314323067665,-38.5706656086917,-42.6788384655293,-271.462523270363
738508.43728758359793573618,-38.5983611560411,-42.9650257881405,-271.425595873898
738508.43728767405264079571,-38.4691152684103,-43.2142857142857,-271.637928403577
738508.43728776439093053341,-38.4044923245949,-42.9465620899075,-271.757942442091
738508.43728785484563559294,-38.4875789666433,-42.8634754478591,-271.684087649159
738508.43728794530034065247,-38.5429700613422,-42.8357799005097,-271.637928403577
738508.43728803575504571199,-38.5983611560411,-42.8173162022767,-271.573305459761
738508.43728812620975077152,-38.5798974578082,-42.8173162022767,-271.601001007111
738508.43728821654804050922,-38.5983611560411,-42.8080843531602,-271.582537308878
738508.43728830700274556875,-38.5891293069246,-42.8265480513932,-271.582537308878
738508.43728839745745062828,-38.6168248542741,-42.8265480513932,-271.564073610645
738508.43728848791215568781,-38.5891293069246,-42.8265480513932,-271.573305459761
738508.43728857836686074734,-38.6075930051576,-42.8173162022767,-271.564073610645
738508.43728866870515048504,-38.5983611560411,-42.8265480513932,-271.554841761528
738508.43728875915985554457,-38.5522019104587,-42.7711569566942,-271.610232856227
738508.43728884961456060410,-38.5522019104587,-42.7711569566942,-271.601001007111
738508.43728894006926566362,-38.6075930051576,-42.8173162022767,-271.564073610645
738508.43728903040755540133,-38.5522019104587,-42.7711569566942,-271.610232856227
738508.43728912086226046085,-38.5522019104587,-42.7711569566942,-271.610232856227
738508.43728921131696552038,-38.6168248542741,-42.8173162022767,-271.545609912412
738508.43728930177167057991,-38.5522019104587,-42.7619251075777,-271.619464705344
738508.43728939222637563944,-38.5522019104587,-42.7434614093448,-271.610232856227
738508.43728948256466537714,-38.5522019104587,-42.7619251075777,-271.610232856227
738508.43728957301937043667,-38.5614337595752,-42.7434614093448,-271.601001007111
738508.43728966347407549620,-38.5522019104587,-42.7526932584613,-271.610232856227
738508.43728975392878055573,-38.5706656086917,-42.7526932584613,-271.591769157994
738508.43728984438348561525,-38.5891293069246,-42.7988525040437,-271.564073610645
738508.43728993472177535295,-38.5614337595752,-42.7526932584613,-271.601001007111
738508.43729002517648041248,-38.5429700613422,-42.7711569566942,-271.610232856227
738508.43729011563118547201,-38.5614337595752,-42.7803888058107,-271.601001007111
738508.43729020608589053154,-38.5614337595752,-42.7803888058107,-271.601001007111
738508.43729029642418026924,-38.5429700613422,-42.7711569566942,-271.619464705344
738508.43729038687888532877,-38.5429700613422,-42.7711569566942,-271.62869655446
738508.43729047733359038830,-38.5891293069246,-42.8265480513932,-271.582537308878
738508.43729056778829544783,-38.5429700613422,-42.7896206549272,-271.619464705344
738508.43729065824300050735,-38.5429700613422,-42.7988525040437,-271.62869655446
738508.43729074858129024506,-38.5706656086917,-42.8173162022767,-271.601001007111
738508.43729083903599530458,-38.5429700613422,-42.8080843531602,-271.62869655446
738508.43729092949070036411,-38.5429700613422,-42.7896206549272,-271.637928403577
738508.43729101994540542364,-38.5614337595752,-42.8357799005097,-271.619464705344
738508.43729111040011048317,-38.6629840998566,-42.9096346934416,-271.517914365062
738508.43729120073840022087,-38.6075930051576,-42.8819391460921,-271.564073610645
738508.43729129119310528040,-38.5614337595752,-42.7988525040437,-271.619464705344
738508.43729138164781033993,-38.5614337595752,-42.8265480513932,-271.619464705344
738508.43729147210251539946,-38.5706656086917,-42.8080843531602,-271.619464705344
738508.43729156244080513716,-38.5614337595752,-42.8265480513932,-271.610232856227
738508.43729165289551019669,-38.5429700613422,-42.7803888058107,-271.637928403577
738508.43729174335021525621,-38.5798974578082,-42.8450117496261,-271.591769157994
738508.43729183380492031574,-38.6168248542741,-42.8542435987426,-271.564073610645
738508.43729192425962537527,-38.5891293069246,-42.8450117496261,-271.554841761528
738508.43729201459791511297,-38.5798974578082,-42.8450117496261,-271.591769157994
738508.43729210505262017250,-38.5798974578082,-42.8265480513932,-271.591769157994
738508.43729219550732523203,-38.6260567033906,-42.8911709952086,-271.554841761528
738508.43729228596203029156,-38.5983611560411,-42.8357799005097,-271.591769157994
738508.43729237641673535109,-38.5245063631092,-42.8080843531602,-271.647160252693
738508.43729246675502508879,-38.5245063631092,-42.7803888058107,-271.647160252693
738508.43729255720973014832,-38.5429700613422,-42.8357799005097,-271.619464705344
738508.43729264766443520784,-38.5429700613422,-42.7803888058107,-271.62869655446
738508.43729273811914026737,-38.5060426648762,-42.7988525040437,-271.65639210181
738508.43729282857384532690,-38.5337382122257,-42.7896206549272,-271.647160252693
738508.43729291891213506460,-38.5152745139927,-42.8080843531602,-271.647160252693
738508.43729300936684012413,-38.5337382122257,-42.7803888058107,-271.65639210181
738508.43729309982154518366,-38.5060426648762,-42.7896206549272,-271.665623950926
738508.43729319027625024319,-38.5429700613422,-42.7988525040437,-271.647160252693
738508.43729328061453998089,-38.5152745139927,-42.7988525040437,-271.65639210181
738508.43729337106924504042,-38.5337382122257,-42.7896206549272,-271.65639210181
738508.43729346152395009995,-38.5522019104587,-42.8173162022767,-271.62869655446
738508.43729355197865515947,-38.5245063631092,-42.7803888058107,-271.65639210181
738508.43729364243336021900,-38.5245063631092,-42.7896206549272,-271.65639210181
738508.43729373277164995670,-38.5891293069246,-42.8357799005097,-271.610232856227
738508.43729382322635501623,-38.5337382122257,-42.7803888058107,-271.619464705344
738508.43729391368106007576,-38.5152745139927,-42.7896206549272,-271.65639210181
738508.43729400413576513529,-38.5614337595752,-42.7526932584613,-271.573305459761
738508.43729409459047019482,-38.6445204016236,-42.7711569566942,-271.416364024781
738508.43729418492875993252,-38.5337382122257,-42.7342295602283,-271.499450666829
738508.43729427538346499205,-38.3491012298959,-42.99272133549,-271.730246894742
738508.43729436583817005157,-38.3952604754784,-43.0665761284219,-271.776406140324
738508.43729445629287511110,-38.4414197210608,-42.8911709952086,-271.730246894742
738508.43729454663116484880,-38.5060426648762,-42.8173162022767,-271.702551347392
738508.43729463708586990833,-38.6260567033906,-42.8819391460921,-271.545609912412
738508.43729472754057496786,-38.6352885525071,-42.8819391460921,-271.554841761528
738508.43729481799528002739,-38.5614337595752,-42.8173162022767,-271.619464705344
738508.43729490844998508692,-38.5891293069246,-42.8357799005097,-271.601001007111
738508.43729499878827482462,-38.5983611560411,-42.8357799005097,-271.582537308878
738508.43729508924297988415,-38.5798974578082,-42.8265480513932,-271.610232856227
738508.43729517969768494368,-38.5891293069246,-42.8173162022767,-271.591769157994
738508.43729527015239000320,-38.6168248542741,-42.8634754478591,-271.564073610645
738508.43729536060709506273,-38.5891293069246,-42.8080843531602,-271.591769157994
738508.43729545094538480043,-38.5429700613422,-42.7896206549272,-271.637928403577
738508.43729554140008985996,-38.5614337595752,-42.7896206549272,-271.610232856227
738508.43729563185479491949,-38.5429700613422,-42.7988525040437,-271.62869655446
738508.43729572230949997902,-38.5614337595752,-42.7803888058107,-271.62869655446
738508.43729581264778971672,-38.5522019104587,-42.7896206549272,-271.619464705344
738508.43729590310249477625,-38.6075930051576,-42.8357799005097,-271.564073610645
738508.43729599355719983578,-38.5522019104587,-42.7803888058107,-271.610232856227
738508.43729608401190489531,-38.6352885525071,-42.8634754478591,-271.536378063295
738508.43729617446660995483,-38.5522019104587,-42.7711569566942,-271.610232856227
738508.43729626480489969254,-38.5706656086917,-42.7988525040437,-271.601001007111
738508.43729635525960475206,-38.5983611560411,-42.7988525040437,-271.564073610645
738508.43729644571430981159,-38.5983611560411,-42.8265480513932,-271.564073610645
738508.43729653616901487112,-38.5706656086917,-42.7803888058107,-271.591769157994
738508.43729662662371993065,-38.5152745139927,-42.7526932584613,-271.647160252693
738508.43729671696200966835,-38.5429700613422,-42.7619251075777,-271.619464705344
738508.43729680741671472788,-38.5798974578082,-42.8450117496261,-271.582537308878
738508.43729689787141978741,-38.5337382122257,-42.7619251075777,-271.637928403577
738508.43729698832612484694,-38.5245063631092,-42.7988525040437,-271.637928403577
738508.43729707878082990646,-38.5706656086917,-42.8080843531602,-271.601001007111
738508.43729716911911964417,-38.5245063631092,-42.8080843531602,-271.637928403577
738508.43729725957382470369,-38.5429700613422,-42.7896206549272,-271.637928403577
738508.43729735002852976322,-38.5245063631092,-42.8173162022767,-271.647160252693
738508.43729744048323482275,-38.5706656086917,-42.8265480513932,-271.619464705344
738508.43729753082152456045,-38.5060426648762,-42.7988525040437,-271.65639210181
738508.43729762127622961998,-38.5060426648762,-42.7896206549272,-271.674855800043
738508.43729771173093467951,-38.5429700613422,-42.8080843531602,-271.637928403577
738508.43729780218563973904,-38.5245063631092,-42.8080843531602,-271.65639210181
738508.43729789264034479856,-38.5337382122257,-42.7896206549272,-271.65639210181
738508.43729798297863453627,-38.5152745139927,-42.7988525040437,-271.674855800043
738508.43729807343333959579,-38.6352885525071,-42.8819391460921,-271.564073610645
738508.43729816388804465532,-38.5798974578082,-42.8634754478591,-271.601001007111
738508.43729825434274971485,-38.6352885525071,-42.8727072969756,-271.564073610645
738508.43729834479745477438,-38.5337382122257,-42.8173162022767,-271.647160252693
738508.43729843513574451208,-38.5337382122257,-42.7803888058107,-271.665623950926
738508.43729852559044957161,-38.5245063631092,-42.8080843531602,-271.65639210181
738508.43729861604515463114,-38.6352885525071,-42.8819391460921,-271.564073610645
738508.43729870649985969067,-38.5245063631092,-42.8080843531602,-271.65639210181
738508.43729879683814942837,-38.5522019104587,-42.7988525040437,-271.637928403577
738508.43729888729285448790,-38.5614337595752,-42.8542435987426,-271.610232856227
738508.43729897774755954742,-38.5429700613422,-42.8080843531602,-271.65639210181
738508.43729906820226460695,-38.5152745139927,-42.8173162022767,-271.65639210181
738508.43729915865696966648,-38.5337382122257,-42.8173162022767,-271.647160252693
738508.43729924899525940418,-38.6168248542741,-42.9096346934416,-271.545609912412
738508.43729933944996446371,-38.5429700613422,-42.8173162022767,-271.637928403577
738508.43729942990466952324,-38.5152745139927,-42.8080843531602,-271.65639210181
738508.43729952035937458277,-38.5152745139927,-42.8265480513932,-271.647160252693
738508.43729961081407964230,-38.5429700613422,-42.7896206549272,-271.65639210181
738508.43729970115236938000,-38.5245063631092,-42.8080843531602,-271.65639210181
738508.43729979160707443953,-38.5614337595752,-42.7988525040437,-271.637928403577
738508.43729988206177949905,-38.5245063631092,-42.8080843531602,-271.65639210181
738508.43729997251648455858,-38.5337382122257,-42.7803888058107,-271.665623950926
738508.43730006285477429628,-38.5706656086917,-42.8542435987426,-271.610232856227
738508.43730015330947935581,-38.5429700613422,-42.7896206549272,-271.65639210181
738508.43730024376418441534,-38.5245063631092,-42.7988525040437,-271.665623950926
738508.43730033421888947487,-38.5798974578082,-42.8173162022767,-271.62869655446
738508.43730042467359453440,-38.5983611560411,-42.8450117496261,-271.601001007111
738508.43730051501188427210,-38.5983611560411,-42.8357799005097,-271.610232856227
738508.43730060546658933163,-38.5983611560411,-42.8080843531602,-271.545609912412
738508.43730069592129439116,-38.690679647206,-42.7988525040437,-271.407132175665
738508.43730078637599945068,-38.5983611560411,-42.7896206549272,-271.44405957213
738508.43730087683070451021,-38.4229560228278,-43.0204168828394,-271.674855800043
738508.43730096716899424791,-38.3583330790124,-43.0665761284219,-271.81333353679
738508.43730105762369930744,-38.4506515701773,-42.9004028443251,-271.757942442091
738508.43730114807840436697,-38.5060426648762,-42.8173162022767,-271.711783196509
738508.43730123853310942650,-38.5337382122257,-42.7988525040437,-271.665623950926
738508.43730132887139916420,-38.5798974578082,-42.8080843531602,-271.62869655446
738508.43730141932610422373,-38.5429700613422,-42.8080843531602,-271.647160252693
738508.43730150978080928326,-38.5522019104587,-42.7803888058107,-271.665623950926
738508.43730160023551434278,-38.5522019104587,-42.8080843531602,-271.637928403577
738508.43730169069021940231,-38.6168248542741,-42.8450117496261,-271.591769157994
738508.43730178102850914001,-38.6537522507401,-42.8911709952086,-271.536378063295
738508.43730187148321419954,-38.5522019104587,-42.7803888058107,-271.647160252693
738508.43730196193791925907,-38.5614337595752,-42.7896206549272,-271.62869655446
738508.43730205239262431860,-38.5522019104587,-42.7803888058107,-271.647160252693
738508.43730214284732937813,-38.5614337595752,-42.7803888058107,-271.62869655446
738508.43730223318561911583,-38.5983611560411,-42.8265480513932,-271.601001007111
738508.43730232364032417536,-38.5614337595752,-42.7711569566942,-271.62869655446
738508.43730241409502923489,-38.5522019104587,-42.7803888058107,-271.647160252693
738508.43730250454973429441,-38.6260567033906,-42.8265480513932,-271.564073610645
738508.43730259500443935394,-38.5522019104587,-42.7803888058107,-271.637928403577
738508.43730268534272909164,-38.5614337595752,-42.7526932584613,-271.62869655446
738508.43730277579743415117,-38.5706656086917,-42.7988525040437,-271.610232856227
738508.43730286625213921070,-38.5891293069246,-42.7803888058107,-271.601001007111
738508.43730295670684427023,-38.5522019104587,-42.7803888058107,-271.62869655446
738508.43730304704513400793,-38.5614337595752,-42.7619251075777,-271.62869655446
738508.43730313749983906746,-38.6075930051576,-42.8542435987426,-271.591769157994
738508.43730322795454412699,-38.5614337595752,-42.7896206549272,-271.62869655446
738508.43730331840924918652,-38.5522019104587,-42.7803888058107,-271.62869655446
738508.43730340886395424604,-38.5522019104587,-42.7896206549272,-271.637928403577
738508.43730349920224398375,-38.5891293069246,-42.8173162022767,-271.601001007111
738508.43730358965694904327,-38.5429700613422,-42.7988525040437,-271.647160252693
738508.43730368011165410280,-38.5614337595752,-42.7988525040437,-271.637928403577
738508.43730377056635916233,-38.5891293069246,-42.8634754478591,-271.601001007111
738508.43730386102106422186,-38.5891293069246,-42.8265480513932,-271.610232856227
738508.43730395135935395956,-38.5429700613422,-42.8173162022767,-271.65639210181
738508.43730404181405901909,-38.5983611560411,-42.8357799005097,-271.601001007111
738508.43730413226876407862,-38.5522019104587,-42.8450117496261,-271.637928403577
738508.43730422272346913815,-38.5706656086917,-42.8173162022767,-271.62869655446
738508.43730431306175887585,-38.5706656086917,-42.8634754478591,-271.619464705344
738508.43730440351646393538,-38.6075930051576,-42.8542435987426,-271.601001007111
738508.43730449397116899490,-38.5245063631092,-42.8173162022767,-271.665623950926
738508.43730458442587405443,-38.5798974578082,-42.8265480513932,-271.62869655446
738508.43730467488057911396,-38.5798974578082,-42.8727072969756,-271.610232856227
738508.43730476521886885166,-38.6445204016236,-42.8911709952086,-271.554841761528
738508.43730485567357391119,-38.5798974578082,-42.8634754478591,-271.610232856227
738508.43730494612827897072,-38.5983611560411,-42.8450117496261,-271.610232856227
738508.43730503658298403025,-38.5891293069246,-42.8727072969756,-271.601001007111
738508.43730512703768908978,-38.5891293069246,-42.8819391460921,-271.601001007111
738508.43730521737597882748,-38.6352885525071,-42.8819391460921,-271.564073610645
738508.43730530783068388700,-38.6629840998566,-42.955793939024,-271.527146214179
738508.43730539828538894653,-38.5522019104587,-42.7988525040437,-271.647160252693
738508.43730548874009400606,-38.5245063631092,-42.8173162022767,-271.65639210181
738508.43730557907838374376,-38.5614337595752,-42.8080843531602,-271.637928403577
738508.43730566953308880329,-38.5152745139927,-42.8080843531602,-271.665623950926
738508.43730575998779386282,-38.5429700613422,-42.8080843531602,-271.65639210181
738508.43730585044249892235,-38.5060426648762,-42.8265480513932,-271.665623950926
738508.43730594089720398188,-38.5522019104587,-42.8357799005097,-271.62869655446
738508.43730603123549371958,-38.5152745139927,-42.8357799005097,-271.65639210181
738508.43730612169019877911,-38.5245063631092,-42.8080843531602,-271.665623950926
738508.43730621214490383863,-38.5060426648762,-42.8173162022767,-271.674855800043
738508.43730630259960889816,-38.5429700613422,-42.8265480513932,-271.647160252693
738508.43730639305431395769,-38.6168248542741,-42.9188665425581,-271.554841761528
738508.43730648339260369539,-38.5152745139927,-42.7988525040437,-271.674855800043
738508.43730657384730875492,-38.5245063631092,-42.8265480513932,-271.65639210181
738508.43730666430201381445,-38.5429700613422,-42.8357799005097,-271.647160252693
738508.43730675475671887398,-38.5337382122257,-42.8265480513932,-271.647160252693
738508.43730684521142393351,-38.5245063631092,-42.8173162022767,-271.665623950926
738508.43730693554971367121,-38.5337382122257,-42.8080843531602,-271.665623950926
738508.43730702600441873074,-38.5614337595752,-42.8727072969756,-271.619464705344
738508.43730711645912379026,-38.5245063631092,-42.7896206549272,-271.674855800043
738508.43730720691382884979,-38.5245063631092,-42.8080843531602,-271.665623950926
738508.43730729725211858749,-38.5429700613422,-42.7896206549272,-271.665623950926
738508.43730738770682364702,-38.5429700613422,-42.8080843531602,-271.601001007111
738508.43730747816152870655,-38.5798974578082,-42.7157658619953,-271.508682515946
738508.43730756861623376608,-38.5706656086917,-42.7249977111118,-271.462523270363
738508.43730765907093882561,-38.4783471175268,-42.974257637257,-271.573305459761
738508.43730774940922856331,-38.31217383343,-43.0758079775384,-271.81333353679
738508.43730783986393362284,-38.4321878719443,-42.955793939024,-271.748710592975
738508.43730793031863868237,-38.5060426648762,-42.9188665425581,-271.674855800043
738508.43730802077334374189,-38.5060426648762,-42.8357799005097,-271.674855800043
738508.43730811122804880142,-38.5614337595752,-42.8727072969756,-271.610232856227
738508.43730820156633853912,-38.5614337595752,-42.8911709952086,-271.610232856227
738508.43730829202104359865,-38.5245063631092,-42.8357799005097,-271.647160252693
738508.43730838247574865818,-38.5429700613422,-42.8634754478591,-271.637928403577
738508.43730847293045371771,-38.5152745139927,-42.8080843531602,-271.65639210181
738508.43730856326874345541,-38.4783471175268,-42.7896206549272,-271.693319498276
738508.43730865372344851494,-38.5429700613422,-42.8357799005097,-271.62869655446
738508.43730874417815357447,-38.6999114963225,-43.0296487319559,-271.62869655446
738508.43730883463285863400,-38.6999114963225,-42.99272133549,-271.480986968596
738508.43730892508756369352,-38.5798974578082,-42.9004028443251,-271.582537308878
738508.43730901542585343122,-38.5522019104587,-42.8634754478591,-271.619464705344
738508.43730910588055849075,-38.5522019104587,-42.8634754478591,-271.610232856227
738508.43730919633526355028,-38.5891293069246,-42.9096346934416,-271.582537308878
738508.43730928678996860981,-38.5798974578082,-42.9004028443251,-271.573305459761
738508.43730937724467366934,-38.5429700613422,-42.8819391460921,-271.619464705344
738508.43730946758296340704,-38.5522019104587,-42.8819391460921,-271.610232856227
738508.43730955803766846657,-38.5798974578082,-42.9280983916745,-271.582537308878
738508.43730964849237352610,-38.5060426648762,-42.8173162022767,-271.65639210181
738508.43730973894707858562,-38.4783471175268,-42.8265480513932,-271.674855800043
738508.43730982928536832333,-38.5060426648762,-42.8173162022767,-271.647160252693
738508.43730991974007338285,-38.4506515701773,-42.8080843531602,-271.693319498276
738508.43731001019477844238,-38.4783471175268,-42.8173162022767,-271.674855800043
738508.43731010064948350191,-38.4875789666433,-42.8911709952086,-271.647160252693
738508.43731019110418856144,-38.5429700613422,-42.9188665425581,-271.610232856227
738508.43731028144247829914,-38.4414197210608,-42.8911709952086,-271.702551347392
738508.43731037189718335867,-38.4598834192938,-42.8727072969756,-271.693319498276
738508.43731046235188841820,-38.4875789666433,-42.955793939024,-271.65639210181
738508.43731055280659347773,-38.4506515701773,-42.8819391460921,-271.711783196509
738508.43731064326129853725,-38.4321878719443,-42.9096346934416,-271.711783196509
738508.43731073359958827496,-38.4321878719443,-42.9004028443251,-271.730246894742
738508.43731082405429333448,-38.5152745139927,-42.955793939024,-271.637928403577
738508.43731091450899839401,-38.4321878719443,-42.9004028443251,-271.730246894742
738508.43731100496370345354,-38.4414197210608,-42.9004028443251,-271.721015045625
738508.43731109530199319124,-38.4414197210608,-42.9280983916745,-271.721015045625
738508.43731118575669825077,-38.4598834192938,-42.9096346934416,-271.711783196509
738508.43731127621140331030,-38.4229560228278,-42.9188665425581,-271.739478743858
738508.43731136666610836983,-38.4598834192938,-42.9004028443251,-271.721015045625
738508.43731145712081342936,-38.4875789666433,-42.9834894863735,-271.674855800043
738508.43731154745910316706,-38.4598834192938,-42.9004028443251,-271.721015045625
738508.43731163791380822659,-38.4321878719443,-42.9096346934416,-271.739478743858
738508.43731172836851328611,-38.5337382122257,-42.955793939024,-271.647160252693
738508.43731181882321834564,-38.4506515701773,-42.9188665425581,-271.711783196509
738508.43731190927792340517,-38.4506515701773,-42.8819391460921,-271.721015045625
738508.43731199961621314287,-38.4414197210608,-42.9004028443251,-271.721015045625
738508.43731209007091820240,-38.5060426648762,-42.9188665425581,-271.674855800043
738508.43731218052562326193,-38.4321878719443,-42.8727072969756,-271.721015045625
738508.43731227098032832146,-38.6260567033906,-43.0388805810724,-271.545609912412
738508.43731236143503338099,-38.5706656086917,-43.0019531846065,-271.591769157994
738508.43731245177332311869,-38.4691152684103,-42.8819391460921,-271.702551347392
738508.43731254222802817822,-38.4783471175268,-42.8634754478591,-271.693319498276
738508.43731263268273323774,-38.4691152684103,-42.9004028443251,-271.693319498276
738508.43731272313743829727,-38.5337382122257,-42.9188665425581,-271.637928403577
738508.43731281347572803497,-38.4691152684103,-42.8911709952086,-271.693319498276
738508.43731290393043309450,-38.5337382122257,-42.9004028443251,-271.62869655446
738508.43731299438513815403,-38.5429700613422,-42.9465620899075,-271.619464705344
738508.43731308483984321356,-38.4968108157598,-42.8542435987426,-271.674855800043
738508.43731317529454827309,-38.4691152684103,-42.8727072969756,-271.693319498276
738508.43731326563283801079,-38.5337382122257,-42.9096346934416,-271.637928403577
738508.43731335608754307032,-38.4783471175268,-42.8634754478591,-271.693319498276
738508.43731344654224812984,-38.4968108157598,-42.8357799005097,-271.693319498276
738508.43731353699695318937,-38.5060426648762,-42.8542435987426,-271.665623950926
738508.43731362745165824890,-38.5983611560411,-42.9188665425581,-271.601001007111
738508.43731371778994798660,-38.5152745139927,-42.8265480513932,-271.665623950926
738508.43731380824465304613,-38.5245063631092,-42.8080843531602,-271.665623950926
738508.43731389869935810566,-38.5891293069246,-42.8542435987426,-271.601001007111
738508.43731398915406316519,-38.5429700613422,-42.7803888058107,-271.65639210181
738508.43731407949235290289,-38.5614337595752,-42.7619251075777,-271.647160252693
738508.43731416994705796242,-38.5891293069246,-42.7803888058107,-271.637928403577
738508.43731426040176302195,-38.5706656086917,-42.7342295602283,-271.637928403577
738508.43731435085646808147,-38.5891293069246,-42.7065340128788,-271.573305459761
738508.43731444131117314100,-38.6260567033906,-42.6511429181799,-271.508682515946
738508.43731453164946287870,-38.7183751945555,-42.6603747672964,-271.342509231849
738508.43731462210416793823,-38.5798974578082,-42.6880703146458,-271.462523270363
738508.43731471255887299776,-38.4229560228278,-42.937330240791,-271.711783196509
738508.43731480301357805729,-38.5060426648762,-42.8450117496261,-271.693319498276
738508.43731489346828311682,-38.5891293069246,-42.7434614093448,-271.62869655446
738508.43731498380657285452,-38.672215948973,-42.7619251075777,-271.554841761528
738508.43731507426127791405,-38.6260567033906,-42.6880703146458,-271.582537308878
738508.43731516471598297358,-38.6352885525071,-42.6788384655293,-271.582537308878
738508.43731525517068803310,-38.6537522507401,-42.7065340128788,-271.554841761528
738508.43731534550897777081,-38.6260567033906,-42.7065340128788,-271.582537308878
738508.43731543596368283033,-38.6260567033906,-42.6973021637623,-271.582537308878
738508.43731552641838788986,-38.5983611560411,-42.7157658619953,-271.601001007111
738508.43731561687309294939,-38.6445204016236,-42.7434614093448,-271.554841761528
738508.43731570732779800892,-38.5798974578082,-42.7249977111118,-271.610232856227
738508.43731579766608774662,-38.7368388927885,-42.8450117496261,-271.462523270363
738508.43731588812079280615,-38.672215948973,-42.8450117496261,-271.517914365062
738508.43731597857549786568,-38.5798974578082,-42.7157658619953,-271.610232856227
738508.43731606903020292521,-38.5522019104587,-42.7342295602283,-271.62869655446
738508.43731615948490798473,-38.5891293069246,-42.7434614093448,-271.591769157994
738508.43731624982319772243,-38.5983611560411,-42.8265480513932,-271.545609912412
738508.43731634027790278196,-38.5522019104587,-42.7711569566942,-271.637928403577
738508.43731643073260784149,-38.5614337595752,-42.7619251075777,-271.619464705344
738508.43731652118731290102,-38.5522019104587,-42.7803888058107,-271.62869655446
738508.43731661164201796055,-38.5891293069246,-42.7988525040437,-271.591769157994
738508.43731670198030769825,-38.5429700613422,-42.7896206549272,-271.62869655446
738508.43731679243501275778,-38.5614337595752,-42.7711569566942,-271.619464705344
738508.43731688288971781731,-38.5891293069246,-42.8357799005097,-271.582537308878
738508.43731697334442287683,-38.5522019104587,-42.7619251075777,-271.62869655446
738508.43731706368271261454,-38.5337382122257,-42.7988525040437,-271.637928403577
738508.43731715413741767406,-38.5706656086917,-42.7896206549272,-271.610232856227
738508.43731724459212273359,-38.5337382122257,-42.8080843531602,-271.62869655446
738508.43731733504682779312,-38.5891293069246,-42.8173162022767,-271.601001007111
738508.43731742550153285265,-38.5891293069246,-42.8727072969756,-271.582537308878
738508.43731751583982259035,-38.5983611560411,-42.8450117496261,-271.591769157994
738508.43731760629452764988,-38.5983611560411,-42.8911709952086,-271.582537308878
738508.43731769674923270941,-38.6168248542741,-42.8819391460921,-271.582537308878
738508.43731778720393776894,-38.5798974578082,-42.8819391460921,-271.610232856227
738508.43731787765864282846,-38.6168248542741,-42.8727072969756,-271.582537308878
738508.43731796799693256617,-38.5152745139927,-42.8173162022767,-271.674855800043
738508.43731805845163762569,-38.5337382122257,-42.8080843531602,-271.665623950926
738508.43731814890634268522,-38.4598834192938,-42.7526932584613,-271.721015045625
738508.43731823936104774475,-38.5060426648762,-42.7988525040437,-271.684087649159
738508.43731832969933748245,-38.5429700613422,-42.7988525040437,-271.65639210181
738508.43731842015404254198,-38.5245063631092,-42.8173162022767,-271.665623950926
738508.43731851060874760151,-38.5245063631092,-42.7711569566942,-271.674855800043
738508.43731860106345266104,-38.4968108157598,-42.7988525040437,-271.693319498276
738508.43731869151815772057,-38.5337382122257,-42.7896206549272,-271.665623950926
738508.43731878185644745827,-38.5152745139927,-42.8080843531602,-271.674855800043
738508.43731887231115251780,-38.5337382122257,-42.7988525040437,-271.665623950926
738508.43731896276585757732,-38.5983611560411,-42.8911709952086,-271.591769157994
738508.43731905322056263685,-38.5429700613422,-42.7988525040437,-271.665623950926
738508.43731914367526769638,-38.5245063631092,-42.8080843531602,-271.65639210181
738508.43731923401355743408,-38.5983611560411,-42.8450117496261,-271.610232856227
738508.43731932446826249361,-38.5337382122257,-42.8080843531602,-271.65639210181
738508.43731941492296755314,-38.5429700613422,-42.7988525040437,-271.65639210181
738508.43731950537767261267,-38.5522019104587,-42.8265480513932,-271.637928403577
738508.43731959571596235037,-38.5337382122257,-42.7988525040437,-271.674855800043
738508.43731968617066740990,-38.5245063631092,-42.7988525040437,-271.674855800043
738508.43731977662537246943,-38.5337382122257,-42.8080843531602,-271.665623950926
738508.43731986708007752895,-38.5429700613422,-42.8173162022767,-271.647160252693
738508.43731995753478258848,-38.5152745139927,-42.8080843531602,-271.674855800043
738508.43732004787307232618,-38.5152745139927,-42.7803888058107,-271.684087649159
738508.43732013832777738571,-38.5245063631092,-42.8265480513932,-271.65639210181
738508.43732022878248244524,-38.5245063631092,-42.7988525040437,-271.665623950926
738508.43732031923718750477,-38.5060426648762,-42.8265480513932,-271.665623950926
738508.43732040969189256430,-38.5245063631092,-42.8265480513932,-271.674855800043
738508.43732050003018230200,-38.5152745139927,-42.8450117496261,-271.65639210181
738508.43732059048488736153,-38.5152745139927,-42.8080843531602,-271.684087649159
738508.43732068093959242105,-38.5060426648762,-42.8265480513932,-271.684087649159
738508.43732077139429748058,-38.5614337595752,-42.8819391460921,-271.637928403577
738508.43732086173258721828,-38.4968108157598,-42.8357799005097,-271.693319498276
738508.43732095218729227781,-38.5060426648762,-42.8450117496261,-271.693319498276
738508.43732104264199733734,-38.5522019104587,-42.8911709952086,-271.637928403577
738508.43732113309670239687,-38.5429700613422,-42.8727072969756,-271.65639210181
738508.43732122355140745640,-38.5614337595752,-42.8727072969756,-271.637928403577
738508.43732131388969719410,-38.5706656086917,-42.8727072969756,-271.647160252693
738508.43732140434440225363,-38.5798974578082,-42.8542435987426,-271.647160252693
738508.43732149479910731316,-38.5798974578082,-42.8450117496261,-271.619464705344
738508.43732158525381237268,-38.6537522507401,-42.8173162022767,-271.47175511948
738508.43732167570851743221,-38.6814477980895,-42.7619251075777,-271.379436628315
738508.43732176604680716991,-38.5152745139927,-42.8265480513932,-271.508682515946
738508.43732185650151222944,-38.293710135197,-43.0573442793054,-271.684087649159
738508.43732194695621728897,-38.31217383343,-43.0296487319559,-271.859492782373
738508.43732203741092234850,-38.4229560228278,-42.9004028443251,-271.767174291208
738508.43732212786562740803,-38.5152745139927,-42.8357799005097,-271.711783196509
738508.43732221820391714573,-38.6260567033906,-42.9096346934416,-271.573305459761
738508.43732230865862220526,-38.5429700613422,-42.8357799005097,-271.665623950926
738508.43732239911332726479,-38.5337382122257,-42.7988525040437,-271.674855800043
738508.43732248956803232431,-38.5337382122257,-42.7988525040437,-271.684087649159
738508.43732257990632206202,-38.5522019104587,-42.7988525040437,-271.65639210181
738508.43732267036102712154,-38.5429700613422,-42.8173162022767,-271.665623950926
738508.43732276081573218107,-38.5429700613422,-42.7896206549272,-271.665623950926
738508.43732285127043724060,-38.6445204016236,-42.9096346934416,-271.564073610645
738508.43732294172514230013,-38.6445204016236,-42.8911709952086,-271.564073610645
738508.43732303206343203783,-38.5245063631092,-42.7896206549272,-271.684087649159
738508.43732312251813709736,-38.5522019104587,-42.7711569566942,-271.665623950926
738508.43732321297284215689,-38.5614337595752,-42.8265480513932,-271.637928403577
738508.43732330342754721642,-38.5429700613422,-42.7711569566942,-271.665623950926
738508.43732339388225227594,-38.5337382122257,-42.7988525040437,-271.665623950926
738508.43732348422054201365,-38.5891293069246,-42.8080843531602,-271.619464705344
738508.43732357467524707317,-38.5522019104587,-42.7988525040437,-271.637928403577
738508.43732366512995213270,-38.5614337595752,-42.7619251075777,-271.647160252693
738508.43732375558465719223,-38.6075930051576,-42.8265480513932,-271.637928403577
738508.43732384592294692993,-38.6075930051576,-42.8173162022767,-271.591769157994
738508.43732393637765198946,-38.5798974578082,-42.7526932584613,-271.619464705344
738508.43732402683235704899,-38.5891293069246,-42.8173162022767,-271.601001007111
738508.43732411728706210852,-38.5983611560411,-42.7988525040437,-271.591769157994
738508.43732420774176716805,-38.5706656086917,-42.8450117496261,-271.610232856227
738508.43732429808005690575,-38.5891293069246,-42.8265480513932,-271.610232856227
738508.43732438853476196527,-38.5983611560411,-42.8727072969756,-271.591769157994
738508.43732447898946702480,-38.5614337595752,-42.7988525040437,-271.637928403577
738508.43732456944417208433,-38.5337382122257,-42.8173162022767,-271.665623950926
738508.43732465989887714386,-38.5522019104587,-42.8080843531602,-271.647160252693
738508.43732475023716688156,-38.5614337595752,-42.8634754478591,-271.637928403577
738508.43732484069187194109,-38.5429700613422,-42.7988525040437,-271.674855800043
738508.43732493114657700062,-38.5245063631092,-42.8173162022767,-271.684087649159
738508.43732502160128206015,-38.5983611560411,-42.8634754478591,-271.62869655446
738508.43732511193957179785,-38.5337382122257,-42.8265480513932,-271.674855800043
738508.43732520239427685738,-38.5429700613422,-42.8173162022767,-271.674855800043
738508.43732529284898191690,-38.5983611560411,-42.8911709952086,-271.610232856227
738508.43732538330368697643,-38.5337382122257,-42.8265480513932,-271.684087649159
738508.43732547375839203596,-38.5245063631092,-42.8265480513932,-271.684087649159
738508.43732556409668177366,-38.5429700613422,-42.8265480513932,-271.684087649159
738508.43732565455138683319,-38.5891293069246,-42.8634754478591,-271.62869655446
738508.43732574500609189272,-38.5152745139927,-42.8357799005097,-271.693319498276
738508.43732583546079695225,-38.5522019104587,-42.8173162022767,-271.684087649159
738508.43732592591550201178,-38.5245063631092,-42.8450117496261,-271.684087649159
738508.43732601625379174948,-38.5429700613422,-42.8080843531602,-271.684087649159
738508.43732610670849680901,-38.5152745139927,-42.8265480513932,-271.693319498276
738508.43732619716320186853,-38.5337382122257,-42.7988525040437,-271.693319498276
738508.43732628761790692806,-38.5245063631092,-42.8357799005097,-271.674855800043
738508.43732637807261198759,-38.6260567033906,-42.9096346934416,-271.601001007111
738508.43732646841090172529,-38.6075930051576,-42.9096346934416,-271.610232856227
738508.43732655886560678482,-38.5798974578082,-42.8634754478591,-271.637928403577
738508.43732664932031184435,-38.5429700613422,-42.8450117496261,-271.674855800043
738508.43732673977501690388,-38.5798974578082,-42.8634754478591,-271.647160252693
738508.43732683011330664158,-38.5798974578082,-42.8819391460921,-271.637928403577
738508.43732692056801170111,-38.5706656086917,-42.8634754478591,-271.65639210181
738508.43732701102271676064,-38.5706656086917,-42.8634754478591,-271.647160252693
738508.43732710147742182016,-38.5245063631092,-42.8265480513932,-271.702551347392
738508.43732719193212687969,-38.5152745139927,-42.8080843531602,-271.702551347392
738508.43732728227041661739,-38.5060426648762,-42.8173162022767,-271.711783196509
738508.43732737272512167692,-38.5152745139927,-42.7988525040437,-271.702551347392
738508.43732746317982673645,-38.5245063631092,-42.8542435987426,-271.684087649159
738508.43732755363453179598,-38.5245063631092,-42.8173162022767,-271.702551347392
738508.43732764408923685551,-38.4968108157598,-42.8265480513932,-271.702551347392
738508.43732773442752659321,-38.5152745139927,-42.8265480513932,-271.693319498276
738508.43732782488223165274,-38.5337382122257,-42.8450117496261,-271.665623950926
738508.43732791533693671227,-38.5060426648762,-42.8080843531602,-271.702551347392
738508.43732800579164177179,-38.5060426648762,-42.8173162022767,-271.693319498276
738508.43732809612993150949,-38.5429700613422,-42.8450117496261,-271.674855800043
738508.43732818658463656902,-38.5060426648762,-42.8080843531602,-271.702551347392
738508.43732827703934162855,-38.5060426648762,-42.8173162022767,-271.702551347392
738508.43732836749404668808,-38.5429700613422,-42.8357799005097,-271.674855800043
738508.43732845794875174761,-38.5152745139927,-42.8357799005097,-271.702551347392
738508.43732854828704148531,-38.5245063631092,-42.8173162022767,-271.693319498276
738508.43732863874174654484,-38.5522019104587,-42.8819391460921,-271.665623950926
738508.43732872919645160437,-38.5522019104587,-42.8450117496261,-271.674855800043
738508.43732881965115666389,-38.5798974578082,-42.9096346934416,-271.647160252693
738508.43732891010586172342,-38.5429700613422,-42.8265480513932,-271.693319498276
738508.43732900044415146112,-38.5614337595752,-42.8727072969756,-271.674855800043
738508.43732909089885652065,-38.5614337595752,-42.8357799005097,-271.674855800043
738508.43732918135356158018,-38.5429700613422,-42.8173162022767,-271.62869655446
738508.43732927180826663971,-38.5983611560411,-42.7065340128788,-271.517914365062
738508.43732936214655637741,-38.5614337595752,-42.7342295602283,-271.480986968596
738508.43732945260126143694,-38.4875789666433,-42.8450117496261,-271.564073610645
738508.43732954305596649647,-38.3398693807794,-43.1035035248878,-271.794869838557
738508.43732963351067155600,-38.3860286263619,-43.011185033723,-271.81333353679
738508.43732972396537661552,-38.5152745139927,-42.9096346934416,-271.721015045625
738508.43732981430366635323,-38.5429700613422,-42.8634754478591,-271.693319498276
738508.43732990475837141275,-38.6168248542741,-42.8911709952086,-271.601001007111
738508.43732999521307647228,-38.6168248542741,-42.9188665425581,-271.610232856227
738508.43733008566778153181,-38.5522019104587,-42.8080843531602,-271.674855800043
738508.43733017612248659134,-38.5706656086917,-42.8634754478591,-271.65639210181
738508.43733026646077632904,-38.5337382122257,-42.7896206549272,-271.693319498276
738508.43733035691548138857,-38.5429700613422,-42.8357799005097,-271.674855800043
738508.43733044737018644810,-38.5522019104587,-42.7988525040437,-271.684087649159
738508.43733053782489150763,-38.5429700613422,-42.8265480513932,-271.665623950926
738508.43733062816318124533,-38.5429700613422,-42.7803888058107,-271.684087649159
738508.43733071861788630486,-38.5522019104587,-42.8357799005097,-271.665623950926
738508.43733080907259136438,-38.5614337595752,-42.7988525040437,-271.665623950926
738508.43733089952729642391,-38.5614337595752,-42.8265480513932,-271.65639210181
738508.43733098998200148344,-38.5891293069246,-42.8173162022767,-271.647160252693
738508.43733108032029122114,-38.5798974578082,-42.8450117496261,-271.62869655446
738508.43733117077499628067,-38.5891293069246,-42.8173162022767,-271.637928403577
738508.43733126122970134020,-38.5891293069246,-42.8080843531602,-271.637928403577
738508.43733135168440639973,-38.5429700613422,-42.7988525040437,-271.674855800043
738508.43733144213911145926,-38.5522019104587,-42.7711569566942,-271.665623950926
738508.43733153247740119696,-38.5522019104587,-42.8080843531602,-271.674855800043
738508.43733162293210625648,-38.5429700613422,-42.7619251075777,-271.674855800043
738508.43733171338681131601,-38.5245063631092,-42.7988525040437,-271.684087649159
738508.43733180384151637554,-38.5522019104587,-42.7803888058107,-271.674855800043
738508.43733189429622143507,-38.5429700613422,-42.8173162022767,-271.665623950926
738508.43733198463451117277,-38.5429700613422,-42.7896206549272,-271.674855800043
738508.43733207508921623230,-38.5152745139927,-42.7896206549272,-271.693319498276
738508.43733216554392129183,-38.5798974578082,-42.8265480513932,-271.65639210181
738508.43733225599862635136,-38.5152745139927,-42.7988525040437,-271.702551347392
738508.43733234633691608906,-38.5891293069246,-42.8542435987426,-271.65639210181
738508.43733243679162114859,-38.5706656086917,-42.8634754478591,-271.647160252693
738508.43733252724632620811,-38.5522019104587,-42.8265480513932,-271.693319498276
738508.43733261770103126764,-38.5152745139927,-42.8080843531602,-271.711783196509
738508.43733270815573632717,-38.4783471175268,-42.7526932584613,-271.776406140324
738508.43733279849402606487,-38.5798974578082,-42.8634754478591,-271.65639210181
738508.43733288894873112440,-38.5152745139927,-42.8080843531602,-271.730246894742
738508.43733297940343618393,-38.4875789666433,-42.7711569566942,-271.748710592975
738508.43733306985814124346,-38.5614337595752,-42.8542435987426,-271.721015045625
738508.43733316031284630299,-38.5798974578082,-42.8450117496261,-271.674855800043
738508.43733325065113604069,-38.4968108157598,-42.8080843531602,-271.730246894742
738508.43733334110584110022,-38.5245063631092,-42.7988525040437,-271.721015045625
738508.43733343156054615974,-38.6260567033906,-42.9280983916745,-271.601001007111
738508.43733352201525121927,-38.6260567033906,-42.9004028443251,-271.62869655446
738508.43733361235354095697,-38.5337382122257,-42.8357799005097,-271.702551347392
738508.43733370280824601650,-38.5245063631092,-42.8173162022767,-271.721015045625
738508.43733379326295107603,-38.5245063631092,-42.8265480513932,-271.711783196509
738508.43733388371765613556,-38.5152745139927,-42.8080843531602,-271.730246894742
738508.43733397417236119509,-38.5983611560411,-42.9004028443251,-271.637928403577
738508.43733406451065093279,-38.5706656086917,-42.8727072969756,-271.674855800043
738508.43733415496535599232,-38.5706656086917,-42.8634754478591,-271.665623950926
738508.43733424542006105185,-38.5706656086917,-42.8819391460921,-271.674855800043
738508.43733433587476611137,-38.5614337595752,-42.8542435987426,-271.684087649159
738508.43733442632947117090,-38.5429700613422,-42.8727072969756,-271.693319498276
738508.43733451666776090860,-38.5983611560411,-42.8819391460921,-271.647160252693
738508.43733460712246596813,-38.5245063631092,-42.8357799005097,-271.711783196509
738508.43733469757717102766,-38.5245063631092,-42.8080843531602,-271.721015045625
738508.43733478803187608719,-38.5152745139927,-42.8357799005097,-271.721015045625
738508.43733487837016582489,-38.5429700613422,-42.8173162022767,-271.702551347392
738508.43733496882487088442,-38.5152745139927,-42.8265480513932,-271.721015045625
738508.43733505927957594395,-38.5245063631092,-42.8173162022767,-271.721015045625
738508.43733514973428100348,-38.5429700613422,-42.8357799005097,-271.693319498276
738508.43733524018898606300,-38.5152745139927,-42.8173162022767,-271.730246894742
738508.43733533052727580070,-38.5245063631092,-42.8173162022767,-271.711783196509
738508.43733542098198086023,-38.5522019104587,-42.8634754478591,-271.693319498276
738508.43733551143668591976,-38.5337382122257,-42.8265480513932,-271.693319498276
738508.43733560189139097929,-38.5245063631092,-42.8357799005097,-271.711783196509
738508.43733569234609603882,-38.5245063631092,-42.8173162022767,-271.711783196509
738508.43733578268438577652,-38.5337382122257,-42.8634754478591,-271.693319498276
738508.43733587313909083605,-38.5245063631092,-42.8080843531602,-271.702551347392
738508.43733596359379589558,-38.5060426648762,-42.8173162022767,-271.721015045625
738508.43733605404850095510,-38.5891293069246,-42.8634754478591,-271.647160252693
738508.43733614450320601463,-38.5060426648762,-42.8357799005097,-271.721015045625
738508.43733623484149575233,-38.5245063631092,-42.8080843531602,-271.711783196509
738508.43733632529620081186,-38.5060426648762,-42.8265480513932,-271.730246894742
738508.43733641575090587139,-38.5337382122257,-42.8080843531602,-271.721015045625
738508.43733650620561093092,-38.5152745139927,-42.8450117496261,-271.721015045625
738508.43733659654390066862,-38.5429700613422,-42.8173162022767,-271.711783196509
738508.43733668699860572815,-38.5429700613422,-42.8634754478591,-271.702551347392
738508.43733677745331078768,-38.5337382122257,-42.8357799005097,-271.721015045625
738508.43733686790801584721,-38.5245063631092,-42.8357799005097,-271.730246894742
738508.43733695836272090673,-38.5614337595752,-42.8911709952086,-271.684087649159
738508.43733704870101064444,-38.6537522507401,-42.937330240791,-271.601001007111
738508.43733713915571570396,-38.5337382122257,-42.8265480513932,-271.730246894742
738508.43733722961042076349,-38.5429700613422,-42.7988525040437,-271.711783196509
738508.43733732006512582302,-38.5798974578082,-42.8357799005097,-271.610232856227
738508.43733741051983088255,-38.5983611560411,-42.6973021637623,-271.536378063295
738508.43733750085812062025,-38.5614337595752,-42.7434614093448,-271.517914365062
738508.43733759131282567978,-38.4044923245949,-42.9650257881405,-271.721015045625
738508.43733768176753073931,-38.3491012298959,-43.1035035248878,-271.859492782373
738508.43733777222223579884,-38.4691152684103,-42.9188665425581,-271.785637989441
738508.43733786256052553654,-38.4968108157598,-42.8634754478591,-271.757942442091
738508.43733795301523059607,-38.5983611560411,-42.8727072969756,-271.65639210181
738508.43733804346993565559,-38.5152745139927,-42.8357799005097,-271.721015045625
738508.43733813392464071512,-38.5429700613422,-42.8173162022767,-271.711783196509
738508.43733822437934577465,-38.5706656086917,-42.8727072969756,-271.665623950926
738508.43733831471763551235,-38.5337382122257,-42.8080843531602,-271.730246894742
738508.43733840517234057188,-38.5245063631092,-42.8173162022767,-271.721015045625
738508.43733849562704563141,-38.5522019104587,-42.8265480513932,-271.711783196509
738508.43733858608175069094,-38.5522019104587,-42.8357799005097,-271.693319498276
738508.43733867653645575047,-38.5706656086917,-42.8542435987426,-271.684087649159
738508.43733876687474548817,-38.5798974578082,-42.8450117496261,-271.674855800043
738508.43733885732945054770,-38.5522019104587,-42.8450117496261,-271.684087649159
738508.43733894778415560722,-38.5429700613422,-42.7988525040437,-271.711783196509
738508.43733903823886066675,-38.5614337595752,-42.8542435987426,-271.684087649159
738508.43733912857715040445,-38.5983611560411,-42.8450117496261,-271.665623950926
738508.43733921903185546398,-38.5706656086917,-42.8450117496261,-271.674855800043
738508.43733930948656052351,-38.5891293069246,-42.8265480513932,-271.65639210181
738508.43733939994126558304,-38.5891293069246,-42.8634754478591,-271.637928403577
738508.43733949039597064257,-38.5798974578082,-42.8357799005097,-271.65639210181
738508.43733958073426038027,-38.5337382122257,-42.8265480513932,-271.684087649159
738508.43733967118896543980,-38.6260567033906,-42.8911709952086,-271.619464705344
738508.43733976164367049932,-38.5060426648762,-42.7896206549272,-271.721015045625
738508.43733985209837555885,-38.5060426648762,-42.7896206549272,-271.739478743858
738508.43733994255308061838,-38.5152745139927,-42.7988525040437,-271.711783196509
738508.43734003289137035608,-38.5337382122257,-42.8265480513932,-271.702551347392
738508.43734012334607541561,-38.5152745139927,-42.7896206549272,-271.711783196509
738508.43734021380078047514,-38.5337382122257,-42.8080843531602,-271.711783196509
738508.43734030425548553467,-38.6445204016236,-42.9004028443251,-271.601001007111
738508.43734039459377527237,-38.5060426648762,-42.7988525040437,-271.730246894742
738508.43734048504848033190,-38.7183751945555,-42.974257637257,-271.536378063295
738508.43734057550318539143,-38.5891293069246,-42.8911709952086,-271.601001007111
738508.43734066595789045095,-38.5983611560411,-42.8634754478591,-271.665623950926
738508.43734075641259551048,-38.5152745139927,-42.8080843531602,-271.739478743858
738508.43734084675088524818,-38.5152745139927,-42.7988525040437,-271.748710592975
738508.43734093720559030771,-38.5245063631092,-42.8265480513932,-271.721015045625
738508.43734102766029536724,-38.5060426648762,-42.7988525040437,-271.757942442091
738508.43734111811500042677,-38.5152745139927,-42.8173162022767,-271.730246894742
738508.43734120856970548630,-38.5152745139927,-42.8357799005097,-271.739478743858
738508.43734129890799522400,-38.5798974578082,-42.8819391460921,-271.674855800043
738508.43734138936270028353,-38.4968108157598,-42.8265480513932,-271.767174291208
738508.43734147981740534306,-38.5152745139927,-42.8173162022767,-271.748710592975
738508.43734157027211040258,-38.5429700613422,-42.8727072969756,-271.721015045625
738508.43734166072681546211,-38.5245063631092,-42.8173162022767,-271.730246894742
738508.43734175106510519981,-38.5152745139927,-42.8357799005097,-271.739478743858
738508.43734184151981025934,-38.5429700613422,-42.8265480513932,-271.721015045625
738508.43734193197451531887,-38.5983611560411,-42.9188665425581,-271.65639210181
738508.43734202242922037840,-38.5337382122257,-42.8080843531602,-271.730246894742
738508.43734211276751011610,-38.5152745139927,-42.8450117496261,-271.730246894742
738508.43734220322221517563,-38.5522019104587,-42.8357799005097,-271.711783196509
738508.43734229367692023516,-38.5060426648762,-42.8450117496261,-271.739478743858
738508.43734238413162529469,-38.5245063631092,-42.8173162022767,-271.748710592975
738508.43734247458633035421,-38.5152745139927,-42.8542435987426,-271.730246894742
738508.43734256492462009192,-38.5706656086917,-42.9004028443251,-271.684087649159
738508.43734265537932515144,-38.5245063631092,-42.8357799005097,-271.730246894742
738508.43734274583403021097,-38.5152745139927,-42.8634754478591,-271.739478743858
738508.43734283628873527050,-38.5614337595752,-42.8727072969756,-271.702551347392
738508.43734292674344033003,-38.5152745139927,-42.8542435987426,-271.739478743858
738508.43734301708173006773,-38.5337382122257,-42.8450117496261,-271.721015045625
738508.43734310753643512726,-38.5152745139927,-42.8819391460921,-271.739478743858
738508.43734319799114018679,-38.5522019104587,-42.8634754478591,-271.711783196509
738508.43734328844584524632,-38.4968108157598,-42.8634754478591,-271.748710592975
738508.43734337878413498402,-38.5614337595752,-42.8819391460921,-271.693319498276
738508.43734346923884004354,-38.5522019104587,-42.9096346934416,-271.693319498276
738508.43734355969354510307,-38.5337382122257,-42.8357799005097,-271.730246894742
738508.43734365014825016260,-38.5060426648762,-42.8542435987426,-271.739478743858
738508.43734374060295522213,-38.5245063631092,-42.8357799005097,-271.739478743858
738508.43734383094124495983,-38.5060426648762,-42.8450117496261,-271.739478743858
738508.43734392139595001936,-38.5798974578082,-42.8727072969756,-271.684087649159
738508.43734401185065507889,-38.6629840998566,-43.0019531846065,-271.573305459761
738508.43734410230536013842,-38.5891293069246,-42.9004028443251,-271.674855800043
738508.43734419276006519794,-38.5522019104587,-42.9004028443251,-271.693319498276
738508.43734428309835493565,-38.5152745139927,-42.8357799005097,-271.739478743858
738508.43734437355305999517,-38.5152745139927,-42.8357799005097,-271.730246894742
738508.43734446400776505470,-38.5060426648762,-42.8542435987426,-271.730246894742
738508.43734455446247011423,-38.5429700613422,-42.8450117496261,-271.711783196509
738508.43734464480075985193,-38.4968108157598,-42.8450117496261,-271.748710592975
738508.43734473525546491146,-38.5245063631092,-42.8173162022767,-271.730246894742
738508.43734482571016997099,-38.5152745139927,-42.8542435987426,-271.730246894742
738508.43734491616487503052,-38.5522019104587,-42.8542435987426,-271.702551347392
738508.43734500661958009005,-38.4968108157598,-42.8265480513932,-271.748710592975
738508.43734509695786982775,-38.5245063631092,-42.8173162022767,-271.739478743858
738508.43734518741257488728,-38.5614337595752,-42.8911709952086,-271.684087649159
738508.43734527786727994680,-38.5152745139927,-42.8265480513932,-271.748710592975
738508.43734536832198500633,-38.5060426648762,-42.8450117496261,-271.748710592975
738508.43734545877669006586,-38.5614337595752,-42.8727072969756,-271.711783196509
738508.43734554911497980356,-38.5245063631092,-42.8450117496261,-271.739478743858
738508.43734563956968486309,-38.5337382122257,-42.8357799005097,-271.748710592975
738508.43734573002438992262,-38.5614337595752,-42.8634754478591,-271.693319498276
738508.43734582047909498215,-38.5429700613422,-42.7988525040437,-271.684087649159
738508.43734591093380004168,-38.5798974578082,-42.7342295602283,-271.573305459761
738508.43734600127208977938,-38.5614337595752,-42.7711569566942,-271.545609912412
738508.43734609172679483891,-38.4968108157598,-43.0850398266549,-271.637928403577
738508.43734618218149989843,-38.31217383343,-43.0942716757714,-271.850260933256
738508.43734627263620495796,-38.3860286263619,-42.99272133549,-271.868724631489
738508.43734636297449469566,-38.4691152684103,-42.9096346934416,-271.794869838557
738508.43734645342919975519,-38.5983611560411,-42.9096346934416,-271.684087649159
738508.43734654388390481472,-38.5152745139927,-42.8357799005097,-271.730246894742
738508.43734663433860987425,-38.5337382122257,-42.8173162022767,-271.739478743858
738508.43734672479331493378,-38.5429700613422,-42.8450117496261,-271.711783196509
738508.43734681513160467148,-38.5522019104587,-42.8265480513932,-271.721015045625
738508.43734690558630973101,-38.5337382122257,-42.8173162022767,-271.730246894742
738508.43734699604101479053,-38.5337382122257,-42.8173162022767,-271.730246894742
738508.43734708649571985006,-38.6168248542741,-42.9004028443251,-271.637928403577
738508.43734717695042490959,-38.5337382122257,-42.8173162022767,-271.730246894742
738508.43734726728871464729,-38.5429700613422,-42.8173162022767,-271.711783196509
738508.43734735774341970682,-38.5429700613422,-42.8357799005097,-271.721015045625
738508.43734744819812476635,-38.6075930051576,-42.8727072969756,-271.647160252693
738508.43734753865282982588,-38.6629840998566,-42.955793939024,-271.591769157994
738508.43734762899111956358,-38.6168248542741,-42.8634754478591,-271.647160252693
738508.43734771944582462311,-38.5614337595752,-42.8450117496261,-271.693319498276
738508.43734780990052968264,-38.5614337595752,-42.7988525040437,-271.702551347392
738508.43734790035523474216,-38.5337382122257,-42.8080843531602,-271.711783196509
738508.43734799080993980169,-38.5891293069246,-42.8265480513932,-271.665623950926
738508.43734808114822953939,-38.5522019104587,-42.8265480513932,-271.684087649159
738508.43734817160293459892,-38.5522019104587,-42.7988525040437,-271.702551347392
738508.43734826205763965845,-38.5522019104587,-42.8080843531602,-271.693319498276
738508.43734835251234471798,-38.6168248542741,-42.8727072969756,-271.647160252693
738508.43734844296704977751,-38.5522019104587,-42.8080843531602,-271.693319498276
738508.43734853330533951521,-38.5614337595752,-42.8265480513932,-271.693319498276
738508.43734862376004457474,-38.6168248542741,-42.8634754478591,-271.637928403577
738508.43734871421474963427,-38.5891293069246,-42.8727072969756,-271.665623950926
738508.43734880466945469379,-38.6075930051576,-42.8634754478591,-271.65639210181
738508.43734889500774443150,-38.5891293069246,-42.8819391460921,-271.674855800043
738508.43734898546244949102,-38.5798974578082,-42.8450117496261,-271.684087649159
738508.43734907591715455055,-38.5522019104587,-42.8727072969756,-271.702551347392
738508.43734916637185961008,-38.5429700613422,-42.8173162022767,-271.730246894742
738508.43734925682656466961,-38.5245063631092,-42.8450117496261,-271.730246894742
738508.43734934716485440731,-38.5706656086917,-42.8450117496261,-271.702551347392
738508.43734943761955946684,-38.5245063631092,-42.8450117496261,-271.739478743858
738508.43734952807426452637,-38.5337382122257,-42.8080843531602,-271.748710592975
738508.43734961852896958590,-38.5614337595752,-42.8911709952086,-271.702551347392
738508.43734970898367464542,-38.5614337595752,-42.8450117496261,-271.721015045625
738508.43734979932196438313,-38.5337382122257,-42.8634754478591,-271.730246894742
738508.43734988977666944265,-38.5429700613422,-42.8265480513932,-271.739478743858
738508.43734998023137450218,-38.5706656086917,-42.8634754478591,-271.693319498276
738508.43735007068607956171,-38.5337382122257,-42.8727072969756,-271.730246894742
738508.43735016102436929941,-38.5522019104587,-42.8450117496261,-271.721015045625
738508.43735025147907435894,-38.5337382122257,-42.8634754478591,-271.739478743858
738508.43735034193377941847,-38.5614337595752,-42.8542435987426,-271.711783196509
738508.43735043238848447800,-38.5522019104587,-42.8819391460921,-271.711783196509
738508.43735052284318953753,-38.5522019104587,-42.8357799005097,-271.730246894742
738508.43735061318147927523,-38.5245063631092,-42.8542435987426,-271.739478743858
738508.43735070363618433475,-38.5522019104587,-42.8450117496261,-271.730246894742
738508.43735079409088939428,-38.5891293069246,-42.9280983916745,-271.665623950926
738508.43735088454559445381,-38.5337382122257,-42.8265480513932,-271.748710592975
738508.43735097500029951334,-38.5152745139927,-42.8542435987426,-271.739478743858
738508.43735106533858925104,-38.6629840998566,-42.974257637257,-271.601001007111
738508.43735115579329431057,-38.6075930051576,-42.955793939024,-271.647160252693
738508.43735124624799937010,-38.5429700613422,-42.8542435987426,-271.730246894742
738508.43735133670270442963,-38.5245063631092,-42.8634754478591,-271.739478743858
738508.43735142715740948915,-38.5706656086917,-42.8819391460921,-271.711783196509
738508.43735151749569922686,-38.5245063631092,-42.8450117496261,-271.739478743858
738508.43735160795040428638,-38.5429700613422,-42.8542435987426,-271.739478743858
738508.43735169840510934591,-38.5891293069246,-42.9096346934416,-271.674855800043
738508.43735178885981440544,-38.5245063631092,-42.8357799005097,-271.730246894742
738508.43735187919810414314,-38.5337382122257,-42.8265480513932,-271.748710592975
738508.43735196965280920267,-38.5152745139927,-42.8634754478591,-271.739478743858
738508.43735206010751426220,-38.5614337595752,-42.8634754478591,-271.721015045625
738508.43735215056221932173,-38.5152745139927,-42.8542435987426,-271.748710592975
738508.43735224101692438126,-38.5245063631092,-42.8265480513932,-271.748710592975
738508.43735233135521411896,-38.5429700613422,-42.8819391460921,-271.711783196509
738508.43735242180991917849,-38.5245063631092,-42.8357799005097,-271.748710592975
738508.43735251226462423801,-38.5152745139927,-42.8542435987426,-271.739478743858
738508.43735260271932929754,-38.5152745139927,-42.8450117496261,-271.748710592975
738508.43735269317403435707,-38.5245063631092,-42.8727072969756,-271.730246894742
738508.43735278351232409477,-38.5060426648762,-42.8450117496261,-271.757942442091
738508.43735287396702915430,-38.5060426648762,-42.8357799005097,-271.739478743858
738508.43735296442173421383,-38.5152745139927,-42.8450117496261,-271.748710592975
738508.43735305487643927336,-38.5337382122257,-42.8542435987426,-271.721015045625
738508.43735314521472901106,-38.5245063631092,-42.8634754478591,-271.739478743858
738508.43735323566943407059,-38.5245063631092,-42.8450117496261,-271.730246894742
738508.43735332612413913012,-38.5522019104587,-42.8819391460921,-271.721015045625
738508.43735341657884418964,-38.5245063631092,-42.8265480513932,-271.748710592975
738508.43735350703354924917,-38.5060426648762,-42.8450117496261,-271.767174291208
738508.43735359737183898687,-38.5614337595752,-42.8634754478591,-271.711783196509
738508.43735368782654404640,-38.5429700613422,-42.8819391460921,-271.693319498276
738508.43735377828124910593,-38.5798974578082,-42.8911709952086,-271.702551347392
738508.43735386873595416546,-38.5706656086917,-42.8911709952086,-271.693319498276
738508.43735395919065922499,-38.6075930051576,-42.9188665425581,-271.674855800043
738508.43735404952894896269,-38.5614337595752,-42.8727072969756,-271.711783196509
738508.43735413998365402222,-38.5706656086917,-42.8634754478591,-271.721015045625
738508.43735423043835908175,-38.5891293069246,-42.8634754478591,-271.684087649159
738508.43735432089306414127,-38.5706656086917,-42.8265480513932,-271.647160252693
738508.43735441123135387897,-38.5891293069246,-42.7249977111118,-271.573305459761
738508.43735450168605893850,-38.5337382122257,-42.8173162022767,-271.591769157994
738508.43735459214076399803,-38.4968108157598,-43.1588946195868,-271.674855800043
738508.43735468259546905756,-38.4414197210608,-43.1865901669362,-271.81333353679
738508.43735477305017411709,-38.4506515701773,-42.9280983916745,-271.831797235023
738508.43735486338846385479,-38.4691152684103,-42.8819391460921,-271.81333353679
738508.43735495384316891432,-38.5522019104587,-42.8542435987426,-271.730246894742
738508.43735504429787397385,-38.4875789666433,-42.8357799005097,-271.776406140324
738508.43735513475257903337,-38.5429700613422,-42.8357799005097,-271.739478743858
738508.43735522520728409290,-38.5337382122257,-42.8727072969756,-271.730246894742
738508.43735531554557383060,-38.5337382122257,-42.8173162022767,-271.748710592975
738508.43735540600027889013,-38.5429700613422,-42.8634754478591,-271.730246894742
738508.43735549645498394966,-38.5614337595752,-42.8450117496261,-271.721015045625
738508.43735558690968900919,-38.5429700613422,-42.8357799005097,-271.730246894742
738508.43735567736439406872,-38.5891293069246,-42.9004028443251,-271.684087649159
738508.43735576770268380642,-38.5060426648762,-42.7896206549272,-271.767174291208
738508.43735585815738886595,-38.5152745139927,-42.8357799005097,-271.748710592975
738508.43735594861209392548,-38.5706656086917,-42.8542435987426,-271.693319498276
738508.43735603906679898500,-38.5798974578082,-42.8911709952086,-271.684087649159
738508.43735612940508872271,-38.5337382122257,-42.8080843531602,-271.730246894742
738508.43735621985979378223,-38.5152745139927,-42.8357799005097,-271.739478743858
738508.43735631031449884176,-38.5891293069246,-42.8542435987426,-271.674855800043
738508.43735640076920390129,-38.5614337595752,-42.8634754478591,-271.693319498276
738508.43735649122390896082,-38.5429700613422,-42.7988525040437,-271.730246894742
738508.43735658156219869852,-38.5245063631092,-42.8357799005097,-271.721015045625
738508.43735667201690375805,-38.5983611560411,-42.8634754478591,-271.665623950926
738508.43735676247160881758,-38.5152745139927,-42.8265480513932,-271.730246894742
738508.43735685292631387711,-38.5429700613422,-42.8265480513932,-271.721015045625
738508.43735694338101893663,-38.5706656086917,-42.8819391460921,-271.674855800043
738508.43735703371930867434,-38.5245063631092,-42.8173162022767,-271.739478743858
738508.43735712417401373386,-38.5152745139927,-42.8357799005097,-271.730246894742
738508.43735721462871879339,-38.5429700613422,-42.8357799005097,-271.721015045625
738508.43735730508342385292,-38.5245063631092,-42.8450117496261,-271.730246894742
738508.43735739542171359062,-38.5152745139927,-42.8265480513932,-271.748710592975
738508.43735748587641865015,-38.5337382122257,-42.8265480513932,-271.739478743858
738508.43735757633112370968,-38.5429700613422,-42.8819391460921,-271.711783196509
738508.43735766678582876921,-38.5706656086917,-42.8819391460921,-271.702551347392
738508.43735775724053382874,-38.5522019104587,-42.9004028443251,-271.711783196509
738508.43735784757882356644,-38.5798974578082,-42.8819391460921,-271.702551347392
738508.43735793803352862597,-38.5706656086917,-42.9280983916745,-271.693319498276
738508.43735802848823368549,-38.5614337595752,-42.8727072969756,-271.721015045625
738508.43735811894293874502,-38.5891293069246,-42.937330240791,-271.674855800043
738508.43735820939764380455,-38.6537522507401,-42.9650257881405,-271.62869655446
738508.43735829973593354225,-38.5152745139927,-42.8542435987426,-271.748710592975
738508.43735839019063860178,-38.5337382122257,-42.8542435987426,-271.739478743858
738508.43735848064534366131,-38.5245063631092,-42.8727072969756,-271.739478743858
738508.43735857110004872084,-38.5522019104587,-42.8727072969756,-271.730246894742
738508.43735866143833845854,-38.5152745139927,-42.8542435987426,-271.748710592975
738508.43735875189304351807,-38.5245063631092,-42.8542435987426,-271.748710592975
738508.43735884234774857759,-38.5706656086917,-42.9004028443251,-271.693319498276
738508.43735893280245363712,-38.5152745139927,-42.8542435987426,-271.757942442091
738508.43735902325715869665,-38.5245063631092,-42.8450117496261,-271.739478743858
738508.43735911359544843435,-38.5152745139927,-42.8542435987426,-271.757942442091
738508.43735920405015349388,-38.6168248542741,-42.937330240791,-271.647160252693
738508.43735929450485855341,-38.5060426648762,-42.8542435987426,-271.739478743858
738508.43735938495956361294,-38.5245063631092,-42.8357799005097,-271.757942442091
738508.43735947541426867247,-38.5060426648762,-42.8634754478591,-271.757942442091
738508.43735956575255841017,-38.6075930051576,-42.9280983916745,-271.674855800043
738508.43735965620726346970,-38.5060426648762,-42.8542435987426,-271.757942442091
738508.43735974666196852922,-38.5060426648762,-42.8450117496261,-271.767174291208
738508.43735983711667358875,-38.5245063631092,-42.8727072969756,-271.739478743858
738508.43735992745496332645,-38.5245063631092,-42.8727072969756,-271.748710592975
738508.43736001790966838598,-38.5152745139927,-42.8542435987426,-271.757942442091
738508.43736010836437344551,-38.5245063631092,-42.8727072969756,-271.757942442091
738508.43736019881907850504,-38.5522019104587,-42.8911709952086,-271.721015045625
738508.43736028927378356457,-38.5245063631092,-42.8819391460921,-271.748710592975
738508.43736037961207330227,-38.5429700613422,-42.8819391460921,-271.730246894742
738508.43736047006677836180,-38.5429700613422,-42.9004028443251,-271.739478743858
738508.43736056052148342133,-38.5245063631092,-42.8542435987426,-271.757942442091
738508.43736065097618848085,-38.5152745139927,-42.8727072969756,-271.757942442091
738508.43736074143089354038,-38.5245063631092,-42.8450117496261,-271.748710592975
738508.43736083176918327808,-38.4968108157598,-42.8634754478591,-271.767174291208
738508.43736092222388833761,-38.5614337595752,-42.8911709952086,-271.711783196509
738508.43736101267859339714,-38.4875789666433,-42.8634754478591,-271.767174291208
738508.43736110313329845667,-38.5152745139927,-42.8450117496261,-271.748710592975
738508.43736119358800351620,-38.4968108157598,-42.8450117496261,-271.748710592975
738508.43736128392629325390,-38.5245063631092,-42.8727072969756,-271.739478743858
738508.43736137438099831343,-38.5060426648762,-42.8542435987426,-271.748710592975
738508.43736146483570337296,-38.4968108157598,-42.8542435987426,-271.776406140324
738508.43736155529040843248,-38.6168248542741,-42.9650257881405,-271.647160252693
738508.43736164562869817019,-38.5706656086917,-42.9280983916745,-271.693319498276
738508.43736173608340322971,-38.6168248542741,-42.955793939024,-271.647160252693
738508.43736182653810828924,-38.5152745139927,-42.8819391460921,-271.757942442091
738508.43736191699281334877,-38.5152745139927,-42.8450117496261,-271.757942442091
738508.43736200744751840830,-38.4875789666433,-42.8542435987426,-271.785637989441
738508.43736209778580814600,-38.5152745139927,-42.8450117496261,-271.767174291208
738508.43736218824051320553,-38.5152745139927,-42.8819391460921,-271.757942442091
738508.43736227869521826506,-38.5152745139927,-42.8357799005097,-271.776406140324
738508.43736236914992332458,-38.5614337595752,-42.9096346934416,-271.721015045625
738508.43736245960462838411,-38.6260567033906,-42.9096346934416,-271.665623950926
738508.43736254994291812181,-38.5706656086917,-42.8819391460921,-271.665623950926
738508.43736264039762318134,-38.6260567033906,-42.7988525040437,-271.554841761528
738508.43736273085232824087,-38.6075930051576,-42.8357799005097,-271.527146214179
738508.43736282130703330040,-38.4783471175268,-43.0665761284219,-271.674855800043
738508.43736291164532303810,-38.2844782860805,-43.1496627704703,-271.942579424421
738508.43736300210002809763,-38.3952604754784,-42.99272133549,-271.877956480605
738508.43736309255473315716,-38.4506515701773,-42.955793939024,-271.831797235023
738508.43736318300943821669,-38.4691152684103,-42.9096346934416,-271.822565385907
738508.43736327346414327621,-38.5152745139927,-42.8450117496261,-271.757942442091
738508.43736336380243301392,-38.4968108157598,-42.8634754478591,-271.767174291208
738508.43736345425713807344,-38.6260567033906,-42.937330240791,-271.647160252693
738508.43736354471184313297,-38.5245063631092,-42.8727072969756,-271.739478743858
738508.43736363516654819250,-38.5429700613422,-42.8357799005097,-271.739478743858
738508.43736372562125325203,-38.5245063631092,-42.8634754478591,-271.739478743858
738508.43736381595954298973,-38.5891293069246,-42.8819391460921,-271.684087649159
738508.43736390641424804926,-38.5337382122257,-42.8634754478591,-271.730246894742
738508.43736399686895310879,-38.5522019104587,-42.8450117496261,-271.730246894742
738508.43736408732365816832,-38.5798974578082,-42.9096346934416,-271.674855800043
738508.43736417766194790602,-38.5429700613422,-42.8357799005097,-271.739478743858
738508.43736426811665296555,-38.6168248542741,-42.937330240791,-271.637928403577
738508.43736435857135802507,-38.5706656086917,-42.8542435987426,-271.702551347392
738508.43736444902606308460,-38.5337382122257,-42.8357799005097,-271.730246894742
738508.43736453948076814413,-38.5429700613422,-42.8265480513932,-271.730246894742
738508.43736462981905788183,-38.6075930051576,-42.9004028443251,-271.65639210181
738508.43736472027376294136,-38.5337382122257,-42.8173162022767,-271.730246894742
738508.43736481072846800089,-38.5429700613422,-42.8173162022767,-271.711783196509
738508.43736490118317306042,-38.5706656086917,-42.8542435987426,-271.721015045625
738508.43736499163787811995,-38.5706656086917,-42.8265480513932,-271.693319498276
738508.43736508197616785765,-38.5429700613422,-42.8265480513932,-271.711783196509
738508.43736517243087291718,-38.6075930051576,-42.8542435987426,-271.647160252693
738508.43736526288557797670,-38.709143345439,-42.99272133549,-271.536378063295
738508.43736535334028303623,-38.5614337595752,-42.8173162022767,-271.702551347392
738508.43736544379498809576,-38.5522019104587,-42.8357799005097,-271.693319498276
738508.43736553413327783346,-38.6075930051576,-42.8911709952086,-271.647160252693
738508.43736562458798289299,-38.5245063631092,-42.8357799005097,-271.711783196509
738508.43736571504268795252,-38.5429700613422,-42.8357799005097,-271.721015045625
738508.43736580549739301205,-38.5614337595752,-42.8819391460921,-271.693319498276
738508.43736589583568274975,-38.5337382122257,-42.8542435987426,-271.730246894742
738508.43736598629038780928,-38.5245063631092,-42.8542435987426,-271.730246894742
738508.43736607674509286880,-38.5152745139927,-42.8542435987426,-271.739478743858
738508.43736616719979792833,-38.6260567033906,-42.955793939024,-271.637928403577
738508.43736625765450298786,-38.5060426648762,-42.8634754478591,-271.757942442091
738508.43736634799279272556,-38.5245063631092,-42.8542435987426,-271.730246894742
738508.43736643844749778509,-38.5522019104587,-42.9004028443251,-271.702551347392
738508.43736652890220284462,-38.5245063631092,-42.8542435987426,-271.730246894742
738508.43736661935690790415,-38.5152745139927,-42.8727072969756,-271.739478743858
738508.43736670981161296368,-38.5429700613422,-42.8634754478591,-271.711783196509
738508.43736680014990270138,-38.5245063631092,-42.8911709952086,-271.674855800043
738508.43736689060460776091,-38.5152745139927,-42.8542435987426,-271.748710592975
738508.43736698105931282043,-38.5060426648762,-42.8634754478591,-271.739478743858
738508.43736707151401787996,-38.5429700613422,-42.8911709952086,-271.721015045625
738508.43736716185230761766,-38.4968108157598,-42.8542435987426,-271.739478743858
738508.43736725230701267719,-38.5060426648762,-42.8634754478591,-271.748710592975
738508.43736734276171773672,-38.5245063631092,-42.8727072969756,-271.721015045625
738508.43736743321642279625,-38.5152745139927,-42.8911709952086,-271.730246894742
738508.43736752367112785578,-38.5152745139927,-42.8634754478591,-271.739478743858
738508.43736761400941759348,-38.5429700613422,-42.9280983916745,-271.702551347392
738508.43736770446412265301,-38.6075930051576,-42.9650257881405,-271.647160252693
738508.43736779491882771254,-38.5429700613422,-42.9280983916745,-271.702551347392
738508.43736788537353277206,-38.5614337595752,-42.9096346934416,-271.693319498276
738508.43736797582823783159,-38.5614337595752,-42.955793939024,-271.684087649159
738508.43736806616652756929,-38.5522019104587,-42.9004028443251,-271.702551347392
738508.43736815662123262882,-38.5245063631092,-42.9188665425581,-271.721015045625
738508.43736824707593768835,-38.5245063631092,-42.8727072969756,-271.730246894742
738508.43736833753064274788,-38.4968108157598,-42.8911709952086,-271.748710592975
738508.43736842786893248558,-38.5060426648762,-42.8634754478591,-271.748710592975
738508.43736851832363754511,-38.4875789666433,-42.8911709952086,-271.748710592975
738508.43736860877834260464,-38.5522019104587,-42.9096346934416,-271.702551347392
738508.43736869923304766417,-38.5429700613422,-42.9096346934416,-271.702551347392
738508.43736878968775272369,-38.6075930051576,-42.99272133549,-271.637928403577
738508.43736888002604246140,-38.5245063631092,-42.8819391460921,-271.721015045625
738508.43736897048074752092,-38.4875789666433,-42.8727072969756,-271.748710592975
738508.43736906093545258045,-38.5152745139927,-42.8727072969756,-271.730246894742
738508.43736915139015763998,-38.5152745139927,-42.9096346934416,-271.711783196509
738508.43736924184486269951,-38.4968108157598,-42.8450117496261,-271.739478743858
738508.43736933218315243721,-38.4875789666433,-42.8727072969756,-271.739478743858
738508.43736942263785749674,-38.5337382122257,-42.8819391460921,-271.702551347392
738508.43736951309256255627,-38.4783471175268,-42.8727072969756,-271.739478743858
738508.43736960354726761580,-38.4968108157598,-42.8542435987426,-271.739478743858
738508.43736969388555735350,-38.5245063631092,-42.9188665425581,-271.702551347392
738508.43736978434026241302,-38.5060426648762,-42.8542435987426,-271.739478743858
738508.43736987479496747255,-38.4875789666433,-42.8819391460921,-271.748710592975
738508.43736996524967253208,-38.5152745139927,-42.8727072969756,-271.730246894742
738508.43737005570437759161,-38.4968108157598,-42.8911709952086,-271.730246894742
738508.43737014604266732931,-38.4968108157598,-42.8450117496261,-271.748710592975
738508.43737023649737238884,-38.4968108157598,-42.8727072969756,-271.739478743858
738508.43737032695207744837,-38.5522019104587,-42.9096346934416,-271.693319498276
738508.43737041740678250790,-38.4968108157598,-42.8634754478591,-271.730246894742
738508.43737050786148756742,-38.5152745139927,-42.8357799005097,-271.739478743858
738508.43737059819977730513,-38.5337382122257,-42.8357799005097,-271.711783196509
738508.43737068865448236465,-38.5337382122257,-42.8727072969756,-271.65639210181
738508.43737077910918742418,-38.5614337595752,-42.7619251075777,-271.582537308878
738508.43737086956389248371,-38.5429700613422,-42.7711569566942,-271.545609912412
738508.43737096001859754324,-38.4506515701773,-43.011185033723,-271.647160252693
738508.43737105035688728094,-38.256782738731,-43.1588946195868,-271.914883877071
738508.43737114081159234047,-38.3860286263619,-43.0204168828394,-271.850260933256
738508.43737123126629740000,-38.4875789666433,-43.0019531846065,-271.748710592975
738508.43737132172100245953,-38.4783471175268,-42.8819391460921,-271.767174291208
738508.43737141205929219723,-38.4968108157598,-42.8819391460921,-271.721015045625
738508.43737150251399725676,-38.5152745139927,-42.8727072969756,-271.711783196509
738508.43737159296870231628,-38.5891293069246,-42.955793939024,-271.62869655446
738508.43737168342340737581,-38.5152745139927,-42.8634754478591,-271.721015045625
738508.43737177387811243534,-38.5152745139927,-42.8634754478591,-271.702551347392
738508.43737186421640217304,-38.5522019104587,-42.9004028443251,-271.674855800043
738508.43737195467110723257,-38.5522019104587,-42.9004028443251,-271.665623950926
738508.43737204512581229210,-38.4968108157598,-42.8542435987426,-271.721015045625
738508.43737213558051735163,-38.4783471175268,-42.8265480513932,-271.730246894742
738508.43737222603522241116,-38.6629840998566,-43.0204168828394,-271.554841761528
738508.43737231637351214886,-38.5983611560411,-42.937330240791,-271.610232856227
738508.43737240682821720839,-38.5429700613422,-42.9004028443251,-271.702551347392
738508.43737249728292226791,-38.5798974578082,-42.9004028443251,-271.637928403577
738508.43737258773762732744,-38.5522019104587,-42.9004028443251,-271.647160252693
738508.43737267807591706514,-38.5522019104587,-42.8634754478591,-271.65639210181
738508.43737276853062212467,-38.4875789666433,-42.8173162022767,-271.711783196509
738508.43737285898532718420,-38.5522019104587,-42.8634754478591,-271.65639210181
738508.43737294944003224373,-38.5060426648762,-42.8265480513932,-271.684087649159
738508.43737303989473730326,-38.5706656086917,-42.8911709952086,-271.62869655446
738508.43737313023302704096,-38.5522019104587,-42.8727072969756,-271.62869655446
738508.43737322068773210049,-38.5429700613422,-42.8727072969756,-271.647160252693
738508.43737331114243716002,-38.5798974578082,-42.9004028443251,-271.610232856227
738508.43737340159714221954,-38.5798974578082,-42.9188665425581,-271.610232856227
738508.43737349205184727907,-38.5614337595752,-42.8819391460921,-271.62869655446
738508.43737358239013701677,-38.5429700613422,-42.9096346934416,-271.637928403577
738508.43737367284484207630,-38.5522019104587,-42.8819391460921,-271.62869655446
738508.43737376329954713583,-38.4968108157598,-42.8727072969756,-271.684087649159
738508.43737385375425219536,-38.4875789666433,-42.8265480513932,-271.702551347392
738508.43737394409254193306,-38.4321878719443,-42.8173162022767,-271.757942442091
738508.43737403454724699259,-38.5245063631092,-42.8634754478591,-271.674855800043
738508.43737412500195205212,-38.4321878719443,-42.8265480513932,-271.748710592975
738508.43737421545665711164,-38.4783471175268,-42.8265480513932,-271.721015045625
738508.43737430591136217117,-38.4968108157598,-42.8634754478591,-271.693319498276
738508.43737439624965190887,-38.5245063631092,-42.9096346934416,-271.665623950926
738508.43737448670435696840,-38.4875789666433,-42.8542435987426,-271.702551347392
738508.43737457715906202793,-38.4875789666433,-42.8727072969756,-271.702551347392
738508.43737466761376708746,-38.5060426648762,-42.8727072969756,-271.684087649159
738508.43737475806847214699,-38.5060426648762,-42.9004028443251,-271.684087649159
738508.43737484840676188469,-38.5060426648762,-42.8727072969756,-271.674855800043
738508.43737493886146694422,-38.4875789666433,-42.8911709952086,-271.684087649159
738508.43737502931617200375,-38.5614337595752,-42.9188665425581,-271.62869655446
738508.43737511977087706327,-38.5152745139927,-42.9188665425581,-271.65639210181
738508.43737521022558212280,-38.5798974578082,-42.937330240791,-271.610232856227
738508.43737530056387186050,-38.5245063631092,-42.9280983916745,-271.637928403577
738508.43737539101857692003,-38.5429700613422,-42.9004028443251,-271.637928403577
738508.43737548147328197956,-38.5245063631092,-42.9280983916745,-271.62869655446
738508.43737557192798703909,-38.5522019104587,-42.9188665425581,-271.619464705344
738508.43737566226627677679,-38.4875789666433,-42.8911709952086,-271.674855800043
738508.43737575272098183632,-38.690679647206,-43.0573442793054,-271.480986968596
738508.43737584317568689585,-38.5429700613422,-42.9465620899075,-271.610232856227
738508.43737593363039195538,-38.5152745139927,-42.8911709952086,-271.647160252693
738508.43737602408509701490,-38.4783471175268,-42.8819391460921,-271.674855800043
738508.43737611442338675261,-38.4968108157598,-42.8819391460921,-271.674855800043
738508.43737620487809181213,-38.4968108157598,-42.8727072969756,-271.665623950926
738508.43737629533279687166,-38.4783471175268,-42.8819391460921,-271.674855800043
738508.43737638578750193119,-38.5522019104587,-42.9280983916745,-271.601001007111
738508.43737647624220699072,-38.5337382122257,-42.9465620899075,-271.610232856227
738508.43737656658049672842,-38.4968108157598,-42.8727072969756,-271.665623950926
738508.43737665703520178795,-38.4598834192938,-42.8727072969756,-271.684087649159
738508.43737674748990684748,-38.4875789666433,-42.8450117496261,-271.665623950926
738508.43737683794461190701,-38.4875789666433,-42.8911709952086,-271.647160252693
738508.43737692828290164471,-38.4968108157598,-42.8819391460921,-271.647160252693
738508.43737701873760670424,-38.4783471175268,-42.8911709952086,-271.647160252693
738508.43737710919231176376,-38.5429700613422,-42.9188665425581,-271.591769157994
738508.43737719964701682329,-38.4506515701773,-42.8542435987426,-271.65639210181
738508.43737729010172188282,-38.4691152684103,-42.8450117496261,-271.665623950926
738508.43737738044001162052,-38.5152745139927,-42.9096346934416,-271.601001007111
738508.43737747089471668005,-38.5152745139927,-42.8911709952086,-271.610232856227
738508.43737756134942173958,-38.4875789666433,-42.8727072969756,-271.62869655446
738508.43737765180412679911,-38.4691152684103,-42.8542435987426,-271.65639210181
738508.43737774225883185863,-38.4691152684103,-42.8542435987426,-271.647160252693
738508.43737783259712159634,-38.4506515701773,-42.8357799005097,-271.674855800043
738508.43737792305182665586,-38.4691152684103,-42.8450117496261,-271.647160252693
738508.43737801350653171539,-38.4691152684103,-42.8542435987426,-271.619464705344
738508.43737810396123677492,-38.4691152684103,-42.8265480513932,-271.665623950926
738508.43737819429952651262,-38.4506515701773,-42.8542435987426,-271.65639210181
738508.43737828475423157215,-38.4691152684103,-42.8265480513932,-271.65639210181
738508.43737837520893663168,-38.4783471175268,-42.8542435987426,-271.637928403577
738508.43737846566364169121,-38.4321878719443,-42.7619251075777,-271.674855800043
738508.43737855611834675074,-38.4968108157598,-42.8080843531602,-271.554841761528
738508.43737864645663648844,-38.5891293069246,-42.7803888058107,-271.397900326548
738508.43737873691134154797,-38.4875789666433,-42.7988525040437,-271.44405957213
738508.43737882736604660749,-38.3491012298959,-43.011185033723,-271.647160252693
738508.43737891782075166702,-38.293710135197,-43.0850398266549,-271.776406140324
738508.43737900827545672655,-38.4137241737114,-43.0019531846065,-271.674855800043
738508.43737909861374646425,-38.4229560228278,-42.9004028443251,-271.674855800043
738508.43737918906845152378,-38.4598834192938,-42.8542435987426,-271.637928403577
738508.43737927952315658331,-38.6629840998566,-43.0388805810724,-271.434827723014
738508.43737936997786164284,-38.5337382122257,-42.9188665425581,-271.564073610645
738508.43737946031615138054,-38.4875789666433,-42.8357799005097,-271.601001007111
738508.43737955077085644007,-38.4691152684103,-42.8450117496261,-271.610232856227
738508.43737964122556149960,-38.5245063631092,-42.8819391460921,-271.554841761528
738508.43737973168026655912,-38.4691152684103,-42.8634754478591,-271.610232856227
738508.43737982213497161865,-38.4968108157598,-42.8357799005097,-271.582537308878
738508.43737991247326135635,-38.5060426648762,-42.8542435987426,-271.564073610645
738508.43738000292796641588,-38.4968108157598,-42.8265480513932,-271.582537308878
738508.43738009338267147541,-38.4875789666433,-42.8450117496261,-271.573305459761
738508.43738018383737653494,-38.4875789666433,-42.8357799005097,-271.573305459761
738508.43738027429208159447,-38.5614337595752,-42.9096346934416,-271.490218817713
738508.43738036463037133217,-38.4875789666433,-42.8357799005097,-271.573305459761
738508.43738045508507639170,-38.4968108157598,-42.8357799005097,-271.554841761528
738508.43738054553978145123,-38.5060426648762,-42.8542435987426,-271.545609912412
738508.43738063599448651075,-38.4968108157598,-42.8173162022767,-271.554841761528
738508.43738072644919157028,-38.4968108157598,-42.8080843531602,-271.554841761528
738508.43738081678748130798,-38.5152745139927,-42.7988525040437,-271.527146214179
738508.43738090724218636751,-38.5245063631092,-42.8542435987426,-271.508682515946
738508.43738099769689142704,-38.5152745139927,-42.7896206549272,-271.527146214179
738508.43738108815159648657,-38.4875789666433,-42.8173162022767,-271.545609912412
738508.43738117848988622427,-38.5614337595752,-42.8542435987426,-271.480986968596
738508.43738126894459128380,-38.4691152684103,-42.8080843531602,-271.554841761528
738508.43738135939929634333,-38.4875789666433,-42.7896206549272,-271.554841761528
738508.43738144985400140285,-38.4968108157598,-42.8634754478591,-271.527146214179
738508.43738154030870646238,-38.5060426648762,-42.8357799005097,-271.536378063295
738508.43738163064699620008,-38.4875789666433,-42.8450117496261,-271.554841761528
738508.43738172110170125961,-38.5060426648762,-42.8357799005097,-271.564073610645
738508.43738181155640631914,-38.5522019104587,-42.8911709952086,-271.499450666829
738508.43738190201111137867,-38.4783471175268,-42.8450117496261,-271.573305459761
738508.43738199246581643820,-38.4875789666433,-42.8265480513932,-271.564073610645
738508.43738208280410617590,-38.4875789666433,-42.8727072969756,-271.554841761528
738508.43738217325881123543,-38.5060426648762,-42.8542435987426,-271.545609912412
738508.43738226371351629496,-38.4598834192938,-42.8542435987426,-271.582537308878
738508.43738235416822135448,-38.4783471175268,-42.8357799005097,-271.573305459761
738508.43738244450651109219,-38.5060426648762,-42.9188665425581,-271.536378063295
738508.43738253496121615171,-38.4691152684103,-42.8357799005097,-271.582537308878
738508.43738262541592121124,-38.4506515701773,-42.8542435987426,-271.582537308878
738508.43738271587062627077,-38.5060426648762,-42.8634754478591,-271.545609912412
738508.43738280632533133030,-38.5706656086917,-42.9834894863735,-271.453291421247
738508.43738289666362106800,-38.5429700613422,-42.9188665425581,-271.499450666829
738508.43738298711832612753,-38.4598834192938,-42.8727072969756,-271.564073610645
738508.43738307757303118706,-38.4875789666433,-42.8634754478591,-271.554841761528
738508.43738316802773624659,-38.4506515701773,-42.8634754478591,-271.573305459761
738508.43738325848244130611,-38.4691152684103,-42.8450117496261,-271.573305459761
738508.43738334882073104382,-38.5152745139927,-42.9188665425581,-271.499450666829
738508.43738343927543610334,-38.4691152684103,-42.8542435987426,-271.554841761528
738508.43738352973014116287,-38.4691152684103,-42.8634754478591,-271.545609912412
738508.43738362018484622240,-38.4968108157598,-42.8911709952086,-271.554841761528
738508.43738371052313596010,-38.4875789666433,-42.8727072969756,-271.527146214179
738508.43738380097784101963,-38.4506515701773,-42.8819391460921,-271.554841761528
738508.43738389143254607916,-38.4691152684103,-42.8450117496261,-271.554841761528
738508.43738398188725113869,-38.5152745139927,-42.937330240791,-271.490218817713
738508.43738407234195619822,-38.4691152684103,-42.8634754478591,-271.545609912412
738508.43738416268024593592,-38.4506515701773,-42.8727072969756,-271.545609912412
738508.43738425313495099545,-38.4598834192938,-42.8634754478591,-271.545609912412
738508.43738434358965605497,-38.4598834192938,-42.8911709952086,-271.527146214179
738508.43738443404436111450,-38.4968108157598,-42.9096346934416,-271.499450666829
738508.43738452449906617403,-38.4968108157598,-42.937330240791,-271.480986968596
738508.43738461483735591173,-38.5706656086917,-42.9834894863735,-271.425595873898
738508.43738470529206097126,-38.4968108157598,-42.9188665425581,-271.490218817713
738508.43738479574676603079,-38.5152745139927,-42.937330240791,-271.47175511948
738508.43738488620147109032,-38.5152745139927,-42.937330240791,-271.462523270363
738508.43738497665617614985,-38.5245063631092,-42.9465620899075,-271.47175511948
738508.43738506699446588755,-38.5152745139927,-42.9280983916745,-271.47175511948
738508.43738515744917094707,-38.4783471175268,-42.9004028443251,-271.517914365062
738508.43738524790387600660,-38.4968108157598,-42.9004028443251,-271.480986968596
738508.43738533835858106613,-38.4783471175268,-42.9004028443251,-271.508682515946
738508.43738542869687080383,-38.4506515701773,-42.8542435987426,-271.536378063295
738508.43738551915157586336,-38.4691152684103,-42.9004028443251,-271.508682515946
738508.43738560960628092289,-38.5429700613422,-42.937330240791,-271.453291421247
738508.43738570006098598242,-38.4598834192938,-42.8542435987426,-271.517914365062
738508.43738579051569104195,-38.4321878719443,-42.8173162022767,-271.564073610645
738508.43738588085398077965,-38.4506515701773,-42.8357799005097,-271.499450666829
738508.43738597130868583918,-38.4968108157598,-42.7896206549272,-271.407132175665
738508.43738606176339089870,-38.4783471175268,-42.7249977111118,-271.360972930082
738508.43738615221809595823,-38.3583330790124,-42.8634754478591,-271.462523270363
738508.43738624267280101776,-38.3214056825465,-43.2050538651692,-271.573305459761
738508.43738633301109075546,-38.3767967772454,-43.1127353740043,-271.573305459761
738508.43738642346579581499,-38.4506515701773,-42.9834894863735,-271.527146214179
738508.43738651392050087452,-38.4321878719443,-42.9004028443251,-271.545609912412
738508.43738660437520593405,-38.4506515701773,-42.8357799005097,-271.508682515946
738508.43738669471349567175,-38.3675649281289,-42.7896206549272,-271.591769157994
738508.43738678516820073128,-38.4414197210608,-42.8173162022767,-271.527146214179
738508.43738687562290579081,-38.4321878719443,-42.8357799005097,-271.527146214179
738508.43738696607761085033,-38.4321878719443,-42.7988525040437,-271.527146214179
738508.43738705653231590986,-38.4414197210608,-42.8542435987426,-271.508682515946
738508.43738714687060564756,-38.4968108157598,-42.8542435987426,-271.462523270363
738508.43738723732531070709,-38.4506515701773,-42.8542435987426,-271.480986968596
738508.43738732778001576662,-38.4691152684103,-42.8265480513932,-271.480986968596
738508.43738741823472082615,-38.4783471175268,-42.8634754478591,-271.453291421247
738508.43738750868942588568,-38.4598834192938,-42.8634754478591,-271.47175511948
738508.43738759902771562338,-38.4691152684103,-42.8450117496261,-271.47175511948
738508.43738768948242068291,-38.4506515701773,-42.8450117496261,-271.480986968596
738508.43738777993712574244,-38.4968108157598,-42.8634754478591,-271.434827723014
738508.43738787039183080196,-38.4598834192938,-42.8450117496261,-271.47175511948
738508.43738796073012053967,-38.5245063631092,-42.8727072969756,-271.407132175665
738508.43738805118482559919,-38.5429700613422,-42.9280983916745,-271.379436628315
738508.43738814163953065872,-38.5245063631092,-42.8634754478591,-271.397900326548
738508.43738823209423571825,-38.5060426648762,-42.8819391460921,-271.407132175665
738508.43738832254894077778,-38.5522019104587,-42.8911709952086,-271.370204779199
738508.43738841288723051548,-38.5060426648762,-42.8819391460921,-271.397900326548
738508.43738850334193557501,-38.4691152684103,-42.8173162022767,-271.44405957213
738508.43738859379664063454,-38.4506515701773,-42.8357799005097,-271.44405957213
738508.43738868425134569407,-38.4968108157598,-42.8542435987426,-271.416364024781
738508.43738877470605075359,-38.4506515701773,-42.8450117496261,-271.44405957213
738508.43738886504434049129,-38.4691152684103,-42.8265480513932,-271.453291421247
738508.43738895549904555082,-38.4506515701773,-42.8450117496261,-271.44405957213
738508.43738904595375061035,-38.4875789666433,-42.8542435987426,-271.425595873898
738508.43738913640845566988,-38.4506515701773,-42.8450117496261,-271.453291421247
738508.43738922674674540758,-38.4598834192938,-42.8357799005097,-271.462523270363
738508.43738931720145046711,-38.4968108157598,-42.8542435987426,-271.416364024781
738508.43738940765615552664,-38.5152745139927,-42.9188665425581,-271.388668477432
738508.43738949811086058617,-38.4691152684103,-42.8357799005097,-271.44405957213
738508.43738958856556564569,-38.4598834192938,-42.8727072969756,-271.453291421247
738508.43738967890385538340,-38.5152745139927,-42.9004028443251,-271.407132175665
738508.43738976935856044292,-38.4414197210608,-42.8634754478591,-271.47175511948
738508.43738985981326550245,-38.5429700613422,-42.9096346934416,-271.379436628315
738508.43738995026797056198,-38.5706656086917,-42.974257637257,-271.333277382733
738508.43739004072267562151,-38.4691152684103,-42.8357799005097,-271.44405957213
738508.43739013106096535921,-38.4414197210608,-42.8450117496261,-271.462523270363
738508.43739022151567041874,-38.4506515701773,-42.8265480513932,-271.453291421247
738508.43739031197037547827,-38.4968108157598,-42.9004028443251,-271.397900326548
738508.43739040242508053780,-38.4598834192938,-42.8265480513932,-271.453291421247
738508.43739049287978559732,-38.4414197210608,-42.8265480513932,-271.462523270363
738508.43739058321807533503,-38.4783471175268,-42.8542435987426,-271.425595873898
738508.43739067367278039455,-38.4506515701773,-42.8265480513932,-271.44405957213
738508.43739076412748545408,-38.4506515701773,-42.8357799005097,-271.453291421247
738508.43739085458219051361,-38.4598834192938,-42.8450117496261,-271.434827723014
738508.43739094492048025131,-38.4414197210608,-42.8450117496261,-271.453291421247
738508.43739103537518531084,-38.4875789666433,-42.8727072969756,-271.407132175665
738508.43739112582989037037,-38.5152745139927,-42.9280983916745,-271.379436628315
738508.43739121628459542990,-38.4598834192938,-42.8450117496261,-271.44405957213
738508.43739130673930048943,-38.4321878719443,-42.8542435987426,-271.44405957213
738508.43739139707759022713,-38.4691152684103,-42.8542435987426,-271.425595873898
738508.43739148753229528666,-38.4598834192938,-42.8819391460921,-271.416364024781
738508.43739157798700034618,-38.4414197210608,-42.8450117496261,-271.453291421247
738508.43739166844170540571,-38.4321878719443,-42.8634754478591,-271.434827723014
738508.43739175889641046524,-38.4968108157598,-42.9004028443251,-271.388668477432
738508.43739184923470020294,-38.4321878719443,-42.8357799005097,-271.44405957213
738508.43739193968940526247,-38.4414197210608,-42.8542435987426,-271.44405957213
738508.43739203014411032200,-38.4875789666433,-42.9004028443251,-271.388668477432
738508.43739212059881538153,-38.4506515701773,-42.8634754478591,-271.434827723014
738508.43739221093710511923,-38.4598834192938,-42.8542435987426,-271.416364024781
738508.43739230139181017876,-38.4506515701773,-42.8634754478591,-271.434827723014
738508.43739239184651523829,-38.4506515701773,-42.8357799005097,-271.434827723014
738508.43739248230122029781,-38.4321878719443,-42.8450117496261,-271.44405957213
738508.43739257275592535734,-38.5060426648762,-42.8727072969756,-271.379436628315
738508.43739266309421509504,-38.5152745139927,-42.9188665425581,-271.360972930082
738508.43739275354892015457,-38.5152745139927,-42.8727072969756,-271.379436628315
738508.43739284400362521410,-38.4968108157598,-42.8911709952086,-271.388668477432
738508.43739293445833027363,-38.5614337595752,-42.9004028443251,-271.342509231849
738508.43739302491303533316,-38.5060426648762,-42.8727072969756,-271.379436628315
738508.43739311525132507086,-38.5060426648762,-42.8450117496261,-271.360972930082
738508.43739320570603013039,-38.4875789666433,-42.7619251075777,-271.3148136845
738508.43739329616073518991,-38.5337382122257,-42.7434614093448,-271.222495193335
738508.43739338661544024944,-38.4875789666433,-42.9004028443251,-271.240958891568
738508.43739347695372998714,-38.3491012298959,-43.1865901669362,-271.453291421247
738508.43739356740843504667,-38.3675649281289,-43.0573442793054,-271.490218817713
738508.43739365786314010620,-38.4044923245949,-42.9188665425581,-271.480986968596
738508.43739374831784516573,-38.4414197210608,-42.8542435987426,-271.434827723014
738508.43739383877255022526,-38.4598834192938,-42.8357799005097,-271.407132175665
738508.43739392911083996296,-38.5522019104587,-42.9004028443251,-271.324045533616
738508.43739401956554502249,-38.4598834192938,-42.8357799005097,-271.416364024781
738508.43739411002025008202,-38.4783471175268,-42.8173162022767,-271.407132175665
738508.43739420047495514154,-38.4598834192938,-42.8357799005097,-271.407132175665
738508.43739429092966020107,-38.4968108157598,-42.8265480513932,-271.379436628315
738508.43739438126794993877,-38.4506515701773,-42.8173162022767,-271.416364024781
738508.43739447172265499830,-38.4691152684103,-42.7988525040437,-271.407132175665
738508.43739456217736005783,-38.5060426648762,-42.8819391460921,-271.351741080966
738508.43739465263206511736,-38.4598834192938,-42.7896206549272,-271.416364024781
738508.43739474308677017689,-38.4414197210608,-42.8080843531602,-271.416364024781
738508.43739483342505991459,-38.4598834192938,-42.7988525040437,-271.416364024781
738508.43739492387976497412,-38.4598834192938,-42.7988525040437,-271.397900326548
738508.43739501433447003365,-38.4783471175268,-42.8450117496261,-271.379436628315
738508.43739510478917509317,-38.4691152684103,-42.7896206549272,-271.397900326548
738508.43739519512746483088,-38.4598834192938,-42.8173162022767,-271.388668477432
738508.43739528558216989040,-38.5522019104587,-42.8542435987426,-271.3148136845
738508.43739537603687494993,-38.4598834192938,-42.7988525040437,-271.388668477432
738508.43739546649158000946,-38.4783471175268,-42.7711569566942,-271.379436628315
738508.43739555694628506899,-38.4875789666433,-42.8173162022767,-271.360972930082
738508.43739564728457480669,-38.4875789666433,-42.7803888058107,-271.370204779199
738508.43739573773927986622,-38.4691152684103,-42.7988525040437,-271.379436628315
738508.43739582819398492575,-38.4875789666433,-42.7896206549272,-271.370204779199
738508.43739591864868998528,-38.4783471175268,-42.8173162022767,-271.360972930082
738508.43739600910339504480,-38.4691152684103,-42.7896206549272,-271.379436628315
738508.43739609944168478251,-38.4506515701773,-42.7988525040437,-271.379436628315
738508.43739618989638984203,-38.4691152684103,-42.7988525040437,-271.388668477432
738508.43739628035109490156,-38.4691152684103,-42.8265480513932,-271.370204779199
738508.43739637080579996109,-38.4598834192938,-42.7988525040437,-271.407132175665
738508.43739646114408969879,-38.4598834192938,-42.8080843531602,-271.397900326548
738508.43739655159879475832,-38.5429700613422,-42.8911709952086,-271.3148136845
738508.43739664205349981785,-38.5429700613422,-42.8911709952086,-271.3148136845
738508.43739673250820487738,-38.4598834192938,-42.8265480513932,-271.397900326548
738508.43739682296290993690,-38.4783471175268,-42.8173162022767,-271.388668477432
738508.43739691330119967461,-38.4968108157598,-42.8727072969756,-271.360972930082
738508.43739700375590473413,-38.6629840998566,-42.99272133549,-271.213263344218
738508.43739709421060979366,-38.4598834192938,-42.8357799005097,-271.397900326548
738508.43739718466531485319,-38.4783471175268,-42.8080843531602,-271.397900326548
738508.43739727512001991272,-38.5060426648762,-42.8727072969756,-271.351741080966
738508.43739736545830965042,-38.4691152684103,-42.8080843531602,-271.397900326548
738508.43739745591301470995,-38.4691152684103,-42.8265480513932,-271.388668477432
738508.43739754636771976948,-38.4875789666433,-42.8265480513932,-271.379436628315
738508.43739763682242482901,-38.5522019104587,-42.9004028443251,-271.305581835383
738508.43739772716071456671,-38.4691152684103,-42.7988525040437,-271.397900326548
738508.43739781761541962624,-38.4875789666433,-42.8265480513932,-271.370204779199
738508.43739790807012468576,-38.4875789666433,-42.8173162022767,-271.388668477432
738508.43739799852482974529,-38.5522019104587,-42.8819391460921,-271.3148136845
738508.43739808897953480482,-38.5152745139927,-42.8634754478591,-271.351741080966
738508.43739817931782454252,-38.5245063631092,-42.8634754478591,-271.342509231849
738508.43739826977252960205,-38.5245063631092,-42.8819391460921,-271.342509231849
738508.43739836022723466158,-38.5245063631092,-42.8634754478591,-271.342509231849
738508.43739845068193972111,-38.5060426648762,-42.8819391460921,-271.360972930082
738508.43739854113664478064,-38.5337382122257,-42.8727072969756,-271.342509231849
738508.43739863147493451834,-38.5060426648762,-42.8819391460921,-271.360972930082
738508.43739872192963957787,-38.4598834192938,-42.8265480513932,-271.416364024781
738508.43739881238434463739,-38.4598834192938,-42.8357799005097,-271.397900326548
738508.43739890283904969692,-38.4875789666433,-42.8634754478591,-271.379436628315
738508.43739899317733943462,-38.4506515701773,-42.8265480513932,-271.407132175665
738508.43739908363204449415,-38.4506515701773,-42.8357799005097,-271.416364024781
738508.43739917408674955368,-38.4783471175268,-42.8634754478591,-271.379436628315
738508.43739926454145461321,-38.4598834192938,-42.8634754478591,-271.416364024781
738508.43739935499615967274,-38.4691152684103,-42.8450117496261,-271.416364024781
738508.43739944533444941044,-38.4598834192938,-42.8450117496261,-271.416364024781
738508.43739953578915446997,-38.5245063631092,-42.8911709952086,-271.351741080966
738508.43739962624385952950,-38.4414197210608,-42.8357799005097,-271.434827723014
738508.43739971669856458902,-38.4691152684103,-42.8357799005097,-271.407132175665
738508.43739980715326964855,-38.5060426648762,-42.9004028443251,-271.370204779199
738508.43739989749155938625,-38.4598834192938,-42.8080843531602,-271.425595873898
738508.43739998794626444578,-38.4414197210608,-42.8357799005097,-271.416364024781
738508.43740007840096950531,-38.4875789666433,-42.8265480513932,-271.388668477432
738508.43740016885567456484,-38.4414197210608,-42.8265480513932,-271.425595873898
738508.43740025931037962437,-38.4414197210608,-42.7896206549272,-271.370204779199
738508.43740034964866936207,-38.4783471175268,-42.7803888058107,-271.268654438917
738508.43740044010337442160,-38.5983611560411,-42.974257637257,-271.222495193335
738508.43740053055807948112,-38.4598834192938,-43.0296487319559,-271.259422589801
738508.43740062101278454065,-38.1736960966826,-43.1588946195868,-271.647160252693
738508.43740071135107427835,-38.3214056825465,-43.1311990722373,-271.545609912412
738508.43740080180577933788,-38.4137241737114,-43.0942716757714,-271.47175511948
738508.43740089226048439741,-38.3675649281289,-42.937330240791,-271.517914365062
738508.43740098271518945694,-38.3860286263619,-42.937330240791,-271.490218817713
738508.43740107316989451647,-38.3583330790124,-42.9834894863735,-271.490218817713
738508.43740116350818425417,-38.3675649281289,-43.0388805810724,-271.47175511948
738508.43740125396288931370,-38.3491012298959,-42.9834894863735,-271.47175511948
738508.43740134441759437323,-38.3214056825465,-42.99272133549,-271.47175511948
738508.43740143487229943275,-38.3952604754784,-42.99272133549,-271.425595873898
738508.43740152532700449228,-38.4321878719443,-43.0296487319559,-271.360972930082
738508.43740161566529422998,-38.4598834192938,-42.9465620899075,-271.370204779199
738508.43740170611999928951,-38.4414197210608,-42.955793939024,-271.370204779199
738508.43740179657470434904,-38.4875789666433,-42.955793939024,-271.342509231849
738508.43740188702940940857,-38.4691152684103,-42.9280983916745,-271.342509231849
738508.43740197736769914627,-38.4506515701773,-42.8450117496261,-271.388668477432
738508.43740206782240420580,-38.4321878719443,-42.8634754478591,-271.379436628315
738508.43740215827710926533,-38.5060426648762,-42.9465620899075,-271.324045533616
738508.43740224873181432486,-38.3952604754784,-42.8819391460921,-271.425595873898
738508.43740233918651938438,-38.4044923245949,-42.8911709952086,-271.434827723014
738508.43740242952480912209,-38.4044923245949,-42.8727072969756,-271.416364024781
738508.43740251997951418161,-38.4783471175268,-42.974257637257,-271.342509231849
738508.43740261043421924114,-38.4229560228278,-42.8727072969756,-271.397900326548
738508.43740270088892430067,-38.3952604754784,-42.8911709952086,-271.397900326548
738508.43740279134362936020,-38.4229560228278,-42.8727072969756,-271.388668477432
738508.43740288168191909790,-38.4414197210608,-42.9096346934416,-271.370204779199
738508.43740297213662415743,-38.4321878719443,-42.8542435987426,-271.379436628315
738508.43740306259132921696,-38.4229560228278,-42.8542435987426,-271.388668477432
738508.43740315304603427649,-38.5245063631092,-42.8911709952086,-271.296349986267
738508.43740324338432401419,-38.4414197210608,-42.8265480513932,-271.360972930082
738508.43740333383902907372,-38.4506515701773,-42.8173162022767,-271.370204779199
738508.43740342429373413324,-38.4506515701773,-42.8450117496261,-271.351741080966
738508.43740351474843919277,-38.4414197210608,-42.8173162022767,-271.379436628315
738508.43740360520314425230,-38.4321878719443,-42.8173162022767,-271.407132175665
738508.43740369554143399000,-38.4506515701773,-42.8542435987426,-271.388668477432
738508.43740378599613904953,-38.4414197210608,-42.8542435987426,-271.388668477432
738508.43740387645084410906,-38.4321878719443,-42.8357799005097,-271.434827723014
738508.43740396690554916859,-38.5798974578082,-43.0019531846065,-271.240958891568
738508.43740405736025422812,-38.5060426648762,-42.974257637257,-271.3148136845
738508.43740414769854396582,-38.4229560228278,-42.8634754478591,-271.434827723014
738508.43740423815324902534,-38.3952604754784,-42.8819391460921,-271.44405957213
738508.43740432860795408487,-38.4229560228278,-42.8542435987426,-271.416364024781
738508.43740441906265914440,-38.3952604754784,-42.8819391460921,-271.407132175665
738508.43740450951736420393,-38.4044923245949,-42.8634754478591,-271.397900326548
738508.43740459985565394163,-38.4044923245949,-42.8819391460921,-271.425595873898
738508.43740469031035900116,-38.4414197210608,-42.9188665425581,-271.425595873898
738508.43740478076506406069,-38.3860286263619,-42.8819391460921,-271.462523270363
738508.43740487121976912022,-38.3860286263619,-42.8819391460921,-271.480986968596
738508.43740496155805885792,-38.4414197210608,-42.955793939024,-271.407132175665
738508.43740505201276391745,-38.4414197210608,-42.955793939024,-271.416364024781
738508.43740514246746897697,-38.4598834192938,-42.955793939024,-271.416364024781
738508.43740523292217403650,-38.4598834192938,-42.9834894863735,-271.416364024781
738508.43740532337687909603,-38.4321878719443,-42.955793939024,-271.434827723014
738508.43740541371516883373,-38.3491012298959,-42.9280983916745,-271.517914365062
738508.43740550416987389326,-38.3952604754784,-42.9465620899075,-271.490218817713
738508.43740559462457895279,-38.3583330790124,-42.937330240791,-271.536378063295
738508.43740568507928401232,-38.3767967772454,-42.9188665425581,-271.536378063295
738508.43740577553398907185,-38.4044923245949,-42.955793939024,-271.508682515946
738508.43740586587227880955,-38.4044923245949,-42.9096346934416,-271.490218817713
738508.43740595632698386908,-38.3952604754784,-42.9004028443251,-271.499450666829
738508.43740604678168892860,-38.4414197210608,-42.8634754478591,-271.490218817713
738508.43740613723639398813,-38.4875789666433,-42.9280983916745,-271.397900326548
738508.43740622757468372583,-38.4229560228278,-42.8634754478591,-271.47175511948
738508.43740631802938878536,-38.4414197210608,-42.8634754478591,-271.44405957213
738508.43740640848409384489,-38.4598834192938,-42.8819391460921,-271.425595873898
738508.43740649893879890442,-38.4414197210608,-42.8542435987426,-271.44405957213
738508.43740658939350396395,-38.4229560228278,-42.8542435987426,-271.44405957213
738508.43740667973179370165,-38.4414197210608,-42.8357799005097,-271.44405957213
738508.43740677018649876118,-38.4229560228278,-42.8634754478591,-271.44405957213
738508.43740686064120382071,-38.4414197210608,-42.8542435987426,-271.425595873898
738508.43740695109590888023,-38.4321878719443,-42.8634754478591,-271.44405957213
738508.43740704155061393976,-38.4875789666433,-42.8819391460921,-271.397900326548
738508.43740713188890367746,-38.4414197210608,-42.8819391460921,-271.416364024781
738508.43740722234360873699,-38.4691152684103,-42.8450117496261,-271.397900326548
738508.43740731279831379652,-38.4321878719443,-42.8542435987426,-271.407132175665
738508.43740740325301885605,-38.5060426648762,-42.8173162022767,-271.3148136845
738508.43740749359130859375,-38.5891293069246,-42.9280983916745,-271.148640400403
738508.43740758404601365328,-38.4229560228278,-42.955793939024,-271.305581835383
738508.43740767450071871281,-38.2013916440321,-43.1865901669362,-271.591769157994
738508.43740776495542377234,-38.2475508896146,-43.0481124301889,-271.601001007111
738508.43740785541012883186,-38.31217383343,-42.9650257881405,-271.564073610645
738508.43740794574841856956,-38.3952604754784,-42.955793939024,-271.554841761528
738508.43740803620312362909,-38.4137241737114,-42.9465620899075,-271.434827723014
738508.43740812665782868862,-38.330637531663,-42.9188665425581,-271.462523270363
738508.43740821711253374815,-38.3398693807794,-42.9280983916745,-271.453291421247
738508.43740830756723880768,-38.330637531663,-42.99272133549,-271.434827723014
738508.43740839790552854538,-38.3214056825465,-42.9650257881405,-271.47175511948
738508.43740848836023360491,-38.3029419843135,-42.9834894863735,-271.462523270363
738508.43740857881493866444,-38.3214056825465,-42.974257637257,-271.44405957213
738508.43740866926964372396,-38.3029419843135,-43.0019531846065,-271.44405957213
738508.43740875960793346167,-38.3214056825465,-42.955793939024,-271.44405957213
738508.43740885006263852119,-38.31217383343,-42.974257637257,-271.425595873898
738508.43740894051734358072,-38.3860286263619,-42.99272133549,-271.370204779199
738508.43740903097204864025,-38.31217383343,-42.9650257881405,-271.416364024781
738508.43740912142675369978,-38.330637531663,-42.9650257881405,-271.407132175665
738508.43740921176504343748,-38.3675649281289,-43.0296487319559,-271.333277382733
738508.43740930221974849701,-38.3029419843135,-42.955793939024,-271.388668477432
738508.43740939267445355654,-38.2844782860805,-42.974257637257,-271.370204779199
738508.43740948312915861607,-38.330637531663,-43.0204168828394,-271.360972930082
738508.43740957358386367559,-38.3398693807794,-43.0204168828394,-271.342509231849
738508.43740966392215341330,-38.3029419843135,-42.974257637257,-271.379436628315
738508.43740975437685847282,-38.2844782860805,-42.955793939024,-271.370204779199
738508.43740984483156353235,-38.293710135197,-43.011185033723,-271.333277382733
738508.43740993528626859188,-38.3214056825465,-42.9834894863735,-271.305581835383
738508.43741002574097365141,-38.31217383343,-42.99272133549,-271.296349986267
738508.43741011607926338911,-38.31217383343,-42.9465620899075,-271.342509231849
738508.43741020653396844864,-38.31217383343,-42.974257637257,-271.305581835383
738508.43741029698867350817,-38.3214056825465,-42.937330240791,-271.333277382733
738508.43741038744337856770,-38.3214056825465,-42.9834894863735,-271.296349986267
738508.43741047778166830540,-38.3029419843135,-42.955793939024,-271.3148136845
738508.43741056823637336493,-38.2844782860805,-42.9650257881405,-271.333277382733
738508.43741065869107842445,-38.3029419843135,-42.99272133549,-271.324045533616
738508.43741074914578348398,-38.2198553422651,-42.937330240791,-271.379436628315
