time_dn,ecg_projection_ll_ra_mV,ecg_projection_la_ra_mV,ecg_projection_vx_rl_mV
738508.44772683084011077881,-39.0599536118656,-41.3125247962889,-267.529755546739
738508.44772692117840051651,-39.0507217627491,-41.3309884945219,-267.538987395856
738508.44772701163310557604,-39.0414899136326,-41.3125247962889,-267.557451094089
738508.44772710208781063557,-39.0414899136326,-41.3494521927549,-267.548219244972
738508.44772719254251569510,-39.0322580645161,-41.3125247962889,-267.575914792322
738508.44772728299722075462,-38.9860988189337,-41.3032929471725,-267.612842188788
738508.44772737345192581415,-38.9953306680502,-41.3032929471725,-267.612842188788
738508.44772746379021555185,-38.9676351207007,-41.294061098056,-267.640537736137
738508.44772755424492061138,-38.9584032715842,-41.2663655507065,-267.65900143437
738508.44772764469962567091,-39.0137943662832,-41.3494521927549,-267.585146641438
738508.44772773515433073044,-38.9307077242347,-41.2479018524735,-267.677465132603
738508.44772782560903578997,-38.9768669698172,-41.3125247962889,-267.63130588702
738508.44772791594732552767,-38.9399395733512,-41.25713370159,-267.677465132603
738508.44772800640203058720,-39.1338084047975,-41.4694662312693,-267.668233283486
738508.44772809685673564672,-39.0968810083316,-41.4417706839198,-267.50205999939
738508.44772818731144070625,-39.0230262153996,-41.3402203436384,-267.594378490555
738508.44772827776614576578,-38.9768669698172,-41.3125247962889,-267.63130588702
738508.44772836810443550348,-39.0137943662832,-41.3309884945219,-267.594378490555
738508.44772845855914056301,-38.9122440260018,-41.2479018524735,-267.686696981719
738508.44772854901384562254,-38.9676351207007,-41.2848292489395,-267.640537736137
738508.44772863946855068207,-38.9584032715842,-41.3032929471725,-267.640537736137
738508.44772872992325574160,-38.9584032715842,-41.275597399823,-267.649769585253
738508.44772882026154547930,-38.9491714224677,-41.294061098056,-267.649769585253
738508.44772891071625053883,-38.9214758751183,-41.238670003357,-267.686696981719
738508.44772900117095559835,-38.8937803277688,-41.2294381542405,-267.714392529069
738508.44772909162566065788,-38.9122440260018,-41.238670003357,-267.705160679952
738508.44772918208036571741,-38.9676351207007,-41.3032929471725,-267.63130588702
738508.44772927241865545511,-38.9307077242347,-41.25713370159,-267.686696981719
738508.44772936287336051464,-38.8845484786523,-41.2294381542405,-267.714392529069
738508.44772945332806557417,-39.0045625171667,-41.3309884945219,-267.603610339671
738508.44772954378277063370,-38.9307077242347,-41.2663655507065,-267.668233283486
738508.44772963423747569323,-38.9399395733512,-41.2848292489395,-267.65900143437
738508.44772972457576543093,-38.9491714224677,-41.294061098056,-267.649769585253
738508.44772981503047049046,-38.9122440260018,-41.2663655507065,-267.686696981719
738508.44772990548517554998,-38.9214758751183,-41.2663655507065,-267.677465132603
738508.44772999593988060951,-38.9030121768853,-41.2663655507065,-267.686696981719
738508.44773008639458566904,-38.9860988189337,-41.3217566454054,-267.603610339671
738508.44773017684929072857,-38.9030121768853,-41.25713370159,-267.686696981719
738508.44773026718758046627,-38.9214758751183,-41.2663655507065,-267.677465132603
738508.44773035764228552580,-38.9307077242347,-41.2848292489395,-267.65900143437
738508.44773044809699058533,-38.9676351207007,-41.3032929471725,-267.640537736137
738508.44773053855169564486,-38.9953306680502,-41.3402203436384,-267.603610339671
738508.44773062900640070438,-38.9860988189337,-41.3217566454054,-267.612842188788
738508.44773071934469044209,-39.0045625171667,-41.3494521927549,-267.594378490555
738508.44773080979939550161,-38.9860988189337,-41.3217566454054,-267.622074037904
738508.44773090025410056114,-38.9399395733512,-41.275597399823,-267.668233283486
738508.44773099070880562067,-38.9860988189337,-41.3309884945219,-267.622074037904
738508.44773108116351068020,-38.8845484786523,-41.2202063051241,-267.714392529069
738508.44773117150180041790,-38.9122440260018,-41.2479018524735,-267.695928830836
738508.44773126195650547743,-38.9953306680502,-41.3125247962889,-267.622074037904
738508.44773135241121053696,-38.9307077242347,-41.25713370159,-267.65900143437
738508.44773144286591559649,-38.9399395733512,-41.1740470595416,-267.603610339671
738508.44773153332062065601,-39.2168950468459,-41.3494521927549,-267.252800073244
738508.44773162365891039371,-39.0599536118656,-41.3125247962889,-267.382045960875
738508.44773171411361545324,-38.8106936857204,-41.4879299295022,-267.520523697623
738508.44773180456832051277,-38.7645344401379,-41.5156254768517,-267.806711020234
738508.44773189502302557230,-38.8568529313028,-41.4417706839198,-267.732856227302
738508.44773198547773063183,-38.9491714224677,-41.4048432874538,-267.65900143437
738508.44773207581602036953,-38.9307077242347,-41.294061098056,-267.668233283486
738508.44773216627072542906,-38.9953306680502,-41.3309884945219,-267.603610339671
738508.44773225672543048859,-38.9307077242347,-41.2663655507065,-267.668233283486
738508.44773234718013554811,-38.9768669698172,-41.3032929471725,-267.622074037904
738508.44773243763484060764,-39.0045625171667,-41.3217566454054,-267.594378490555
738508.44773252808954566717,-38.9860988189337,-41.3125247962889,-267.612842188788
738508.44773261842783540487,-38.9491714224677,-41.25713370159,-267.649769585253
738508.44773270888254046440,-38.9584032715842,-41.275597399823,-267.640537736137
738508.44773279933724552393,-38.9768669698172,-41.2663655507065,-267.622074037904
738508.44773288979195058346,-38.9491714224677,-41.25713370159,-267.649769585253
738508.44773298024665564299,-38.9584032715842,-41.25713370159,-267.640537736137
738508.44773307058494538069,-38.9122440260018,-41.2294381542405,-267.677465132603
738508.44773316103965044022,-38.9399395733512,-41.2294381542405,-267.649769585253
738508.44773325149435549974,-38.9953306680502,-41.294061098056,-267.594378490555
738508.44773334194906055927,-38.9584032715842,-41.2294381542405,-267.640537736137
738508.44773343240376561880,-38.9399395733512,-41.2202063051241,-267.649769585253
738508.44773352274205535650,-38.9584032715842,-41.2202063051241,-267.63130588702
738508.44773361319676041603,-39.0137943662832,-41.275597399823,-267.566682943205
738508.44773370365146547556,-38.9307077242347,-41.1925107577746,-267.65900143437
738508.44773379410617053509,-38.9399395733512,-41.1925107577746,-267.640537736137
738508.44773388456087559462,-38.9584032715842,-41.2294381542405,-267.622074037904
738508.44773397489916533232,-38.9676351207007,-41.2202063051241,-267.612842188788
738508.44773406535387039185,-38.9491714224677,-41.2202063051241,-267.63130588702
738508.44773415580857545137,-38.9491714224677,-41.2109744560076,-267.63130588702
738508.44773424626328051090,-38.9768669698172,-41.25713370159,-267.594378490555
738508.44773433671798557043,-38.9491714224677,-41.2202063051241,-267.63130588702
738508.44773442705627530813,-38.9399395733512,-41.2479018524735,-267.640537736137
738508.44773451751098036766,-39.0045625171667,-41.294061098056,-267.594378490555
738508.44773460796568542719,-38.9030121768853,-41.2294381542405,-267.686696981719
738508.44773469842039048672,-38.9307077242347,-41.2294381542405,-267.677465132603
738508.44773478887509554625,-38.9122440260018,-41.238670003357,-267.677465132603
738508.44773487921338528395,-38.9307077242347,-41.2479018524735,-267.668233283486
738508.44773496966809034348,-38.9214758751183,-41.2663655507065,-267.668233283486
738508.44773506012279540300,-39.0691854609821,-41.3956114383373,-267.538987395856
738508.44773515057750046253,-39.0507217627491,-41.4048432874538,-267.538987395856
738508.44773524103220552206,-38.9307077242347,-41.2663655507065,-267.677465132603
738508.44773533148691058159,-38.9214758751183,-41.2663655507065,-267.677465132603
738508.44773542182520031929,-38.9953306680502,-41.3309884945219,-267.686696981719
738508.44773551227990537882,-38.9491714224677,-41.275597399823,-267.65900143437
738508.44773560273461043835,-38.9307077242347,-41.2848292489395,-267.668233283486
738508.44773569318931549788,-39.0045625171667,-41.3309884945219,-267.603610339671
738508.44773578364402055740,-38.9953306680502,-41.3402203436384,-267.603610339671
738508.44773587398231029510,-38.9584032715842,-41.275597399823,-267.649769585253
738508.44773596443701535463,-38.9676351207007,-41.3032929471725,-267.63130588702
738508.44773605489172041416,-38.9953306680502,-41.3125247962889,-267.612842188788
738508.44773614534642547369,-38.9676351207007,-41.3125247962889,-267.63130588702
738508.44773623580113053322,-38.9768669698172,-41.3032929471725,-267.622074037904
738508.44773632613942027092,-38.9491714224677,-41.294061098056,-267.640537736137
738508.44773641659412533045,-38.9584032715842,-41.294061098056,-267.640537736137
738508.44773650704883038998,-38.9768669698172,-41.3217566454054,-267.612842188788
738508.44773659750353544950,-38.9768669698172,-41.3217566454054,-267.622074037904
738508.44773668795824050903,-38.9768669698172,-41.3309884945219,-267.612842188788
738508.44773677829653024673,-38.9491714224677,-41.3125247962889,-267.640537736137
738508.44773686875123530626,-38.9491714224677,-41.3125247962889,-267.640537736137
738508.44773695920594036579,-38.9768669698172,-41.3309884945219,-267.622074037904
738508.44773704966064542532,-38.9584032715842,-41.3125247962889,-267.63130588702
738508.44773714011535048485,-38.9584032715842,-41.3402203436384,-267.63130588702
738508.44773723045364022255,-38.9584032715842,-41.3309884945219,-267.63130588702
738508.44773732090834528208,-38.8937803277688,-41.294061098056,-267.65900143437
738508.44773741136305034161,-38.9122440260018,-41.2848292489395,-267.677465132603
738508.44773750181775540113,-38.9214758751183,-41.3032929471725,-267.668233283486
738508.44773759227246046066,-38.9307077242347,-41.3032929471725,-267.65900143437
738508.44773768272716552019,-38.8845484786523,-41.275597399823,-267.695928830836
738508.44773777306545525789,-38.9214758751183,-41.294061098056,-267.677465132603
738508.44773786352016031742,-38.9860988189337,-41.3679158909879,-267.603610339671
738508.44773795397486537695,-38.9860988189337,-41.3586840418714,-267.612842188788
738508.44773804442957043648,-38.9860988189337,-41.3586840418714,-267.612842188788
738508.44773813488427549601,-38.9953306680502,-41.3771477401044,-267.594378490555
738508.44773822522256523371,-38.9768669698172,-41.3494521927549,-267.612842188788
738508.44773831567727029324,-38.9307077242347,-41.3032929471725,-267.668233283486
738508.44773840613197535276,-38.9676351207007,-41.3309884945219,-267.63130588702
738508.44773849658668041229,-38.8937803277688,-41.275597399823,-267.714392529069
738508.44773858704138547182,-39.0414899136326,-41.4048432874538,-267.566682943205
738508.44773867737967520952,-39.0045625171667,-41.3863795892209,-267.603610339671
738508.44773876783438026905,-38.9491714224677,-41.2848292489395,-267.622074037904
738508.44773885828908532858,-38.9584032715842,-41.1832789086581,-267.538987395856
738508.44773894874379038811,-38.9768669698172,-41.1278878139592,-267.483596301157
738508.44773903919849544764,-38.9214758751183,-41.3956114383373,-267.538987395856
738508.44773912953678518534,-38.709143345439,-41.5156254768517,-267.8436384167
738508.44773921999149024487,-38.727607043672,-41.4694662312693,-267.8436384167
738508.44773931044619530439,-38.8660847804193,-41.3956114383373,-267.732856227302
738508.44773940090090036392,-38.9214758751183,-41.3586840418714,-267.686696981719
738508.44773949135560542345,-38.8937803277688,-41.275597399823,-267.705160679952
738508.44773958169389516115,-38.8937803277688,-41.2663655507065,-267.705160679952
738508.44773967214860022068,-38.9768669698172,-41.3586840418714,-267.622074037904
738508.44773976260330528021,-38.9491714224677,-41.3125247962889,-267.649769585253
738508.44773985305801033974,-38.9399395733512,-41.3125247962889,-267.65900143437
738508.44773994351271539927,-38.9584032715842,-41.3125247962889,-267.640537736137
738508.44774003385100513697,-38.9491714224677,-41.3309884945219,-267.649769585253
738508.44774012430571019650,-38.9953306680502,-41.3586840418714,-267.594378490555
738508.44774021476041525602,-38.9860988189337,-41.3679158909879,-267.603610339671
738508.44774030521512031555,-38.9491714224677,-41.3032929471725,-267.649769585253
738508.44774039566982537508,-38.9584032715842,-41.3309884945219,-267.63130588702
738508.44774048612453043461,-38.9676351207007,-41.3309884945219,-267.622074037904
738508.44774057646282017231,-38.9307077242347,-41.3032929471725,-267.649769585253
738508.44774066691752523184,-38.9860988189337,-41.3402203436384,-267.603610339671
738508.44774075737223029137,-38.9491714224677,-41.3217566454054,-267.63130588702
738508.44774084782693535089,-38.9491714224677,-41.2848292489395,-267.640537736137
738508.44774093828164041042,-38.9214758751183,-41.275597399823,-267.65900143437
738508.44774102861993014812,-38.9122440260018,-41.2479018524735,-267.63130588702
738508.44774111907463520765,-38.9399395733512,-41.2663655507065,-267.640537736137
738508.44774120952934026718,-38.9030121768853,-41.2479018524735,-267.668233283486
738508.44774129998404532671,-38.9768669698172,-41.3032929471725,-267.594378490555
738508.44774139043875038624,-38.9214758751183,-41.2663655507065,-267.649769585253
738508.44774148077704012394,-38.9307077242347,-41.2663655507065,-267.640537736137
738508.44774157123174518347,-38.9584032715842,-41.3217566454054,-267.603610339671
738508.44774166168645024300,-38.9122440260018,-41.2663655507065,-267.65900143437
738508.44774175214115530252,-38.9030121768853,-41.294061098056,-267.668233283486
738508.44774184259586036205,-38.9122440260018,-41.294061098056,-267.668233283486
738508.44774193293415009975,-38.9030121768853,-41.3217566454054,-267.677465132603
738508.44774202338885515928,-38.8845484786523,-41.294061098056,-267.705160679952
738508.44774211384356021881,-38.9860988189337,-41.4140751365703,-267.594378490555
738508.44774220429826527834,-38.9860988189337,-41.4140751365703,-267.603610339671
738508.44774229475297033787,-38.8845484786523,-41.3309884945219,-267.705160679952
738508.44774238509126007557,-38.8753166295358,-41.3125247962889,-267.714392529069
738508.44774247554596513510,-38.9399395733512,-41.3771477401044,-267.65900143437
738508.44774256600067019463,-38.9307077242347,-41.3771477401044,-267.668233283486
738508.44774265645537525415,-38.9491714224677,-41.3956114383373,-267.640537736137
738508.44774274691008031368,-38.9676351207007,-41.4140751365703,-267.622074037904
738508.44774283736478537321,-38.9399395733512,-41.3863795892209,-267.649769585253
738508.44774292770307511091,-38.9399395733512,-41.3956114383373,-267.649769585253
738508.44774301815778017044,-38.9307077242347,-41.3679158909879,-267.65900143437
738508.44774310861248522997,-38.9584032715842,-41.4048432874538,-267.63130588702
738508.44774319906719028950,-38.8937803277688,-41.3309884945219,-267.695928830836
738508.44774328952189534903,-38.8568529313028,-41.3032929471725,-267.732856227302
738508.44774337986018508673,-38.9030121768853,-41.3309884945219,-267.686696981719
738508.44774347031489014626,-38.9030121768853,-41.3309884945219,-267.686696981719
738508.44774356076959520578,-38.9214758751183,-41.3494521927549,-267.668233283486
738508.44774365122430026531,-38.9584032715842,-41.3956114383373,-267.63130588702
738508.44774374167900532484,-38.9214758751183,-41.3586840418714,-267.65900143437
738508.44774383201729506254,-38.9122440260018,-41.3586840418714,-267.668233283486
738508.44774392247200012207,-38.9030121768853,-41.3494521927549,-267.677465132603
738508.44774401292670518160,-38.9307077242347,-41.3771477401044,-267.649769585253
738508.44774410338141024113,-38.9307077242347,-41.3771477401044,-267.65900143437
738508.44774419383611530066,-38.9030121768853,-41.3586840418714,-267.677465132603
738508.44774428417440503836,-38.9030121768853,-41.3679158909879,-267.677465132603
738508.44774437462911009789,-38.8937803277688,-41.3402203436384,-267.686696981719
738508.44774446508381515741,-38.9214758751183,-41.3956114383373,-267.65900143437
738508.44774455553852021694,-38.9122440260018,-41.3771477401044,-267.668233283486
738508.44774464599322527647,-38.8937803277688,-41.3863795892209,-267.686696981719
738508.44774473633151501417,-38.8383892330699,-41.3032929471725,-267.695928830836
738508.44774482678622007370,-38.8476210821863,-41.3309884945219,-267.723624378185
738508.44774491724092513323,-38.8753166295358,-41.3494521927549,-267.705160679952
738508.44774500769563019276,-38.8660847804193,-41.3494521927549,-267.714392529069
738508.44774509815033525229,-38.8568529313028,-41.3309884945219,-267.732856227302
738508.44774518848862498999,-38.9584032715842,-41.4325388348033,-267.622074037904
738508.44774527894333004951,-38.9307077242347,-41.4140751365703,-267.65900143437
738508.44774536939803510904,-38.9030121768853,-41.3771477401044,-267.686696981719
738508.44774545985274016857,-38.9122440260018,-41.3863795892209,-267.677465132603
738508.44774555030744522810,-38.8845484786523,-41.3494521927549,-267.714392529069
738508.44774564076215028763,-38.9860988189337,-41.4694662312693,-267.603610339671
738508.44774573110044002533,-39.0045625171667,-41.4694662312693,-267.585146641438
738508.44774582155514508486,-38.8660847804193,-41.3494521927549,-267.723624378185
738508.44774591200985014439,-38.8383892330699,-41.3032929471725,-267.769783623768
738508.44774600246455520391,-38.9214758751183,-41.4140751365703,-267.686696981719
738508.44774609291926026344,-38.8937803277688,-41.3494521927549,-267.695928830836
738508.44774618325755000114,-38.8937803277688,-41.294061098056,-267.63130588702
738508.44774627371225506067,-38.9584032715842,-41.1925107577746,-267.511291848506
738508.44774636416696012020,-38.9214758751183,-41.3586840418714,-267.511291848506
738508.44774645462166517973,-38.690679647206,-41.5340891750847,-267.825174718467
738508.44774654507637023926,-38.709143345439,-41.5340891750847,-267.862102114933
738508.44774663541465997696,-38.7368388927885,-41.4510025330363,-267.852870265816
738508.44774672586936503649,-38.9030121768853,-41.4694662312693,-267.705160679952
738508.44774681632407009602,-38.8660847804193,-41.3679158909879,-267.732856227302
738508.44774690677877515554,-38.8568529313028,-41.3309884945219,-267.742088076418
738508.44774699723348021507,-38.8937803277688,-41.3771477401044,-267.695928830836
738508.44774708757176995277,-38.9399395733512,-41.4048432874538,-267.649769585253
738508.44774717802647501230,-38.9399395733512,-41.4048432874538,-267.65900143437
738508.44774726848118007183,-38.9491714224677,-41.3956114383373,-267.640537736137
738508.44774735893588513136,-38.9491714224677,-41.4140751365703,-267.649769585253
738508.44774744939059019089,-38.9307077242347,-41.3771477401044,-267.668233283486
738508.44774753972887992859,-38.8845484786523,-41.3494521927549,-267.714392529069
738508.44774763018358498812,-38.9307077242347,-41.3771477401044,-267.668233283486
738508.44774772063829004765,-38.8753166295358,-41.3402203436384,-267.714392529069
738508.44774781109299510717,-38.8660847804193,-41.3125247962889,-267.723624378185
738508.44774790154770016670,-38.9584032715842,-41.4140751365703,-267.63130588702
738508.44774799188598990440,-38.9584032715842,-41.3863795892209,-267.63130588702
738508.44774808234069496393,-38.9491714224677,-41.3771477401044,-267.649769585253
738508.44774817279540002346,-38.9584032715842,-41.3679158909879,-267.640537736137
738508.44774826325010508299,-38.9030121768853,-41.3217566454054,-267.686696981719
738508.44774835370481014252,-38.9030121768853,-41.3125247962889,-267.686696981719
738508.44774844415951520205,-38.9030121768853,-41.3217566454054,-267.63130588702
738508.44774853449780493975,-38.9122440260018,-41.3402203436384,-267.668233283486
738508.44774862495250999928,-38.9399395733512,-41.3402203436384,-267.649769585253
738508.44774871540721505880,-38.9122440260018,-41.3309884945219,-267.668233283486
738508.44774880586192011833,-38.9214758751183,-41.3309884945219,-267.65900143437
738508.44774889631662517786,-38.8660847804193,-41.3032929471725,-267.705160679952
738508.44774898665491491556,-38.8753166295358,-41.294061098056,-267.705160679952
738508.44774907710961997509,-38.8845484786523,-41.3309884945219,-267.695928830836
738508.44774916756432503462,-38.9676351207007,-41.4048432874538,-267.622074037904
738508.44774925801903009415,-39.0045625171667,-41.4694662312693,-267.575914792322
738508.44774934847373515368,-38.9214758751183,-41.3771477401044,-267.668233283486
738508.44774943881202489138,-38.8476210821863,-41.3309884945219,-267.751319925535
738508.44774952926672995090,-38.8660847804193,-41.3494521927549,-267.732856227302
738508.44774961972143501043,-38.8106936857204,-41.3032929471725,-267.788247322001
738508.44774971017614006996,-38.8660847804193,-41.3586840418714,-267.742088076418
738508.44774980063084512949,-38.8753166295358,-41.3679158909879,-267.723624378185
738508.44774989096913486719,-38.8753166295358,-41.3679158909879,-267.732856227302
738508.44774998142383992672,-38.8937803277688,-41.3863795892209,-267.705160679952
738508.44775007187854498625,-38.8383892330699,-41.3402203436384,-267.760551774651
738508.44775016233325004578,-38.8291573839534,-41.3217566454054,-267.779015472884
738508.44775025278795510530,-38.8476210821863,-41.3402203436384,-267.751319925535
738508.44775034312624484301,-38.8568529313028,-41.3402203436384,-267.751319925535
738508.44775043358094990253,-38.9399395733512,-41.4417706839198,-267.65900143437
738508.44775052403565496206,-38.9122440260018,-41.4048432874538,-267.686696981719
738508.44775061449036002159,-38.9030121768853,-41.4048432874538,-267.695928830836
738508.44775070494506508112,-38.9399395733512,-41.4325388348033,-267.65900143437
738508.44775079539977014065,-38.9214758751183,-41.4140751365703,-267.677465132603
738508.44775088573805987835,-38.8937803277688,-41.3771477401044,-267.714392529069
738508.44775097619276493788,-38.8753166295358,-41.3679158909879,-267.723624378185
738508.44775106664746999741,-38.8937803277688,-41.3863795892209,-267.705160679952
738508.44775115710217505693,-38.8199255348369,-41.3125247962889,-267.779015472884
738508.44775124755688011646,-38.8383892330699,-41.3402203436384,-267.760551774651
738508.44775133789516985416,-38.9122440260018,-41.4048432874538,-267.686696981719
738508.44775142834987491369,-38.8383892330699,-41.3402203436384,-267.769783623768
738508.44775151880457997322,-38.8476210821863,-41.3402203436384,-267.751319925535
738508.44775160925928503275,-38.8660847804193,-41.3679158909879,-267.732856227302
738508.44775169971399009228,-38.8106936857204,-41.3032929471725,-267.797479171117
738508.44775179005227982998,-38.8106936857204,-41.3217566454054,-267.788247322001
738508.44775188050698488951,-38.8476210821863,-41.3402203436384,-267.751319925535
738508.44775197096168994904,-38.8937803277688,-41.4048432874538,-267.705160679952
738508.44775206141639500856,-38.8383892330699,-41.3494521927549,-267.751319925535
738508.44775215187110006809,-38.8199255348369,-41.3494521927549,-267.769783623768
738508.44775224220938980579,-38.8291573839534,-41.3494521927549,-267.751319925535
738508.44775233266409486532,-38.8937803277688,-41.4048432874538,-267.686696981719
738508.44775242311879992485,-38.8291573839534,-41.3309884945219,-267.760551774651
738508.44775251357350498438,-38.8106936857204,-41.3217566454054,-267.779015472884
738508.44775260402821004391,-38.9122440260018,-41.4325388348033,-267.677465132603
738508.44775269436649978161,-38.9214758751183,-41.4233069856868,-267.677465132603
738508.44775278482120484114,-38.9584032715842,-41.4694662312693,-267.649769585253
738508.44775287527590990067,-38.8937803277688,-41.3863795892209,-267.714392529069
738508.44775296573061496019,-38.8476210821863,-41.3586840418714,-267.751319925535
738508.44775305618532001972,-38.8845484786523,-41.3863795892209,-267.714392529069
738508.44775314652360975742,-38.8845484786523,-41.3956114383373,-267.714392529069
738508.44775323697831481695,-38.8937803277688,-41.3956114383373,-267.705160679952
738508.44775332743301987648,-38.9122440260018,-41.4325388348033,-267.686696981719
738508.44775341788772493601,-38.9491714224677,-41.4417706839198,-267.65900143437
738508.44775350834242999554,-38.9214758751183,-41.4325388348033,-267.686696981719
738508.44775359879713505507,-38.9491714224677,-41.4417706839198,-267.668233283486
738508.44775368913542479277,-38.9491714224677,-41.4325388348033,-267.640537736137
738508.44775377959012985229,-38.9768669698172,-41.3679158909879,-267.557451094089
738508.44775387004483491182,-38.9860988189337,-41.2663655507065,-267.492828150273
738508.44775396049953997135,-38.9307077242347,-41.3771477401044,-267.520523697623
738508.44775405095424503088,-38.7368388927885,-41.6079439680166,-267.640537736137
738508.44775414129253476858,-38.7183751945555,-41.6264076662496,-267.852870265816
738508.44775423174723982811,-38.7922299874874,-41.4971617786187,-267.797479171117
738508.44775432220194488764,-38.8753166295358,-41.4694662312693,-267.732856227302
738508.44775441265664994717,-38.8476210821863,-41.3402203436384,-267.760551774651
738508.44775450311135500669,-38.8199255348369,-41.3309884945219,-267.769783623768
738508.44775459344964474440,-38.8568529313028,-41.3217566454054,-267.751319925535
738508.44775468390434980392,-38.8660847804193,-41.3494521927549,-267.732856227302
738508.44775477435905486345,-38.8568529313028,-41.3217566454054,-267.751319925535
738508.44775486481375992298,-38.8291573839534,-41.3125247962889,-267.769783623768
738508.44775495526846498251,-38.8845484786523,-41.3494521927549,-267.714392529069
738508.44775504560675472021,-38.8568529313028,-41.3309884945219,-267.751319925535
738508.44775513606145977974,-38.8476210821863,-41.3032929471725,-267.760551774651
738508.44775522651616483927,-38.8753166295358,-41.3402203436384,-267.723624378185
738508.44775531697086989880,-38.8660847804193,-41.3217566454054,-267.732856227302
738508.44775540742557495832,-38.8383892330699,-41.3032929471725,-267.751319925535
738508.44775549776386469603,-38.8568529313028,-41.294061098056,-267.742088076418
738508.44775558821856975555,-38.8937803277688,-41.3402203436384,-267.695928830836
738508.44775567867327481508,-38.8660847804193,-41.3032929471725,-267.723624378185
738508.44775576912797987461,-38.9676351207007,-41.4048432874538,-267.622074037904
738508.44775585958268493414,-38.9399395733512,-41.3679158909879,-267.65900143437
738508.44775595003738999367,-38.9307077242347,-41.3402203436384,-267.668233283486
738508.44775604037567973137,-38.9676351207007,-41.3956114383373,-267.622074037904
738508.44775613083038479090,-38.9214758751183,-41.3309884945219,-267.65900143437
738508.44775622128508985043,-38.9584032715842,-41.3863795892209,-267.612842188788
738508.44775631173979490995,-39.0414899136326,-41.4510025330363,-267.548219244972
738508.44775640219449996948,-38.9399395733512,-41.3679158909879,-267.63130588702
738508.44775649253278970718,-38.9214758751183,-41.3402203436384,-267.65900143437
738508.44775658298749476671,-38.9122440260018,-41.3586840418714,-267.65900143437
738508.44775667344219982624,-38.8383892330699,-41.275597399823,-267.732856227302
738508.44775676389690488577,-38.8476210821863,-41.3125247962889,-267.723624378185
738508.44775685435160994530,-38.9030121768853,-41.3679158909879,-267.677465132603
738508.44775694468989968300,-38.8753166295358,-41.3402203436384,-267.714392529069
738508.44775703514460474253,-38.9030121768853,-41.3771477401044,-267.695928830836
738508.44775712559930980206,-38.9030121768853,-41.3863795892209,-267.686696981719
738508.44775721605401486158,-38.8476210821863,-41.3309884945219,-267.751319925535
738508.44775730650871992111,-38.9030121768853,-41.3863795892209,-267.695928830836
738508.44775739684700965881,-38.8660847804193,-41.3586840418714,-267.732856227302
738508.44775748730171471834,-38.8291573839534,-41.3217566454054,-267.769783623768
738508.44775757775641977787,-38.8753166295358,-41.3771477401044,-267.723624378185
738508.44775766821112483740,-38.8845484786523,-41.3679158909879,-267.714392529069
738508.44775775866582989693,-38.8660847804193,-41.3679158909879,-267.705160679952
738508.44775784900411963463,-38.8845484786523,-41.3771477401044,-267.705160679952
738508.44775793945882469416,-38.8568529313028,-41.3586840418714,-267.732856227302
738508.44775802991352975368,-38.8753166295358,-41.3679158909879,-267.714392529069
738508.44775812036823481321,-38.8476210821863,-41.3402203436384,-267.751319925535
738508.44775821082293987274,-38.8199255348369,-41.3125247962889,-267.779015472884
738508.44775830116122961044,-38.8291573839534,-41.3125247962889,-267.769783623768
738508.44775839161593466997,-38.9030121768853,-41.3863795892209,-267.695928830836
738508.44775848207063972950,-38.8660847804193,-41.3494521927549,-267.732856227302
738508.44775857252534478903,-38.8476210821863,-41.3402203436384,-267.751319925535
738508.44775866298004984856,-38.8568529313028,-41.3402203436384,-267.732856227302
738508.44775875343475490808,-38.8106936857204,-41.3032929471725,-267.788247322001
738508.44775884377304464579,-38.9214758751183,-41.4048432874538,-267.677465132603
738508.44775893422774970531,-38.9399395733512,-41.4417706839198,-267.649769585253
738508.44775902468245476484,-38.9214758751183,-41.4048432874538,-267.668233283486
738508.44775911513715982437,-38.9214758751183,-41.4140751365703,-267.677465132603
738508.44775920559186488390,-38.9676351207007,-41.4417706839198,-267.63130588702
738508.44775929593015462160,-38.8937803277688,-41.3956114383373,-267.695928830836
738508.44775938638485968113,-38.8660847804193,-41.3494521927549,-267.732856227302
738508.44775947683956474066,-38.8476210821863,-41.3494521927549,-267.742088076418
738508.44775956729426980019,-38.8937803277688,-41.3679158909879,-267.695928830836
738508.44775965774897485971,-38.8568529313028,-41.3402203436384,-267.732856227302
738508.44775974808726459742,-38.8845484786523,-41.3863795892209,-267.705160679952
738508.44775983854196965694,-38.9768669698172,-41.4694662312693,-267.612842188788
738508.44775992899667471647,-38.8753166295358,-41.3771477401044,-267.705160679952
738508.44776001945137977600,-38.8383892330699,-41.3217566454054,-267.751319925535
738508.44776010990608483553,-38.8568529313028,-41.3586840418714,-267.723624378185
738508.44776020024437457323,-38.9214758751183,-41.4048432874538,-267.668233283486
738508.44776029069907963276,-38.8660847804193,-41.3586840418714,-267.723624378185
738508.44776038115378469229,-38.8383892330699,-41.3217566454054,-267.760551774651
738508.44776047160848975182,-38.9307077242347,-41.4233069856868,-267.668233283486
738508.44776056206319481134,-38.8660847804193,-41.3402203436384,-267.732856227302
738508.44776065240148454905,-38.8291573839534,-41.3309884945219,-267.760551774651
738508.44776074285618960857,-38.8845484786523,-41.3586840418714,-267.714392529069
738508.44776083331089466810,-38.8291573839534,-41.3309884945219,-267.760551774651
738508.44776092376559972763,-38.8476210821863,-41.3217566454054,-267.751319925535
738508.44776101422030478716,-38.8383892330699,-41.3309884945219,-267.760551774651
738508.44776110455859452486,-38.9030121768853,-41.3771477401044,-267.705160679952
738508.44776119501329958439,-38.8199255348369,-41.3032929471725,-267.788247322001
738508.44776128546800464392,-38.8568529313028,-41.3217566454054,-267.760551774651
738508.44776137592270970345,-38.9491714224677,-41.3956114383373,-267.612842188788
738508.44776146637741476297,-38.9584032715842,-41.2848292489395,-267.63130588702
738508.44776155683211982250,-39.0230262153996,-41.2848292489395,-267.455900753807
738508.44776164717040956020,-38.9399395733512,-41.3402203436384,-267.511291848506
738508.44776173762511461973,-38.7553025910215,-41.5433210242012,-267.760551774651
738508.44776182807981967926,-38.746070741905,-41.5894802697836,-267.834406567583
738508.44776191853452473879,-38.8383892330699,-41.4786980803858,-267.760551774651
738508.44776200898922979832,-38.8291573839534,-41.3863795892209,-267.779015472884
738508.44776209932751953602,-38.9030121768853,-41.3771477401044,-267.686696981719
738508.44776218978222459555,-38.9030121768853,-41.3956114383373,-267.686696981719
738508.44776228023692965508,-38.9030121768853,-41.3679158909879,-267.686696981719
738508.44776237069163471460,-38.9307077242347,-41.4048432874538,-267.668233283486
738508.44776246114633977413,-38.9214758751183,-41.3771477401044,-267.668233283486
738508.44776255148462951183,-38.9122440260018,-41.3771477401044,-267.677465132603
738508.44776264193933457136,-38.9030121768853,-41.3586840418714,-267.686696981719
738508.44776273239403963089,-38.9030121768853,-41.3679158909879,-267.677465132603
738508.44776282284874469042,-38.9307077242347,-41.3771477401044,-267.65900143437
738508.44776291330344974995,-38.8476210821863,-41.294061098056,-267.742088076418
738508.44776300364173948765,-38.8383892330699,-41.2848292489395,-267.751319925535
738508.44776309409644454718,-38.8660847804193,-41.3125247962889,-267.714392529069
738508.44776318455114960670,-38.8753166295358,-41.3125247962889,-267.714392529069
738508.44776327500585466623,-39.0230262153996,-41.4510025330363,-267.566682943205
738508.44776336546055972576,-38.9953306680502,-41.4233069856868,-267.594378490555
738508.44776345579884946346,-38.8753166295358,-41.2848292489395,-267.714392529069
738508.44776354625355452299,-38.9399395733512,-41.3586840418714,-267.649769585253
738508.44776363670825958252,-38.8660847804193,-41.275597399823,-267.723624378185
738508.44776372716296464205,-38.8568529313028,-41.275597399823,-267.714392529069
738508.44776381761766970158,-38.9399395733512,-41.3494521927549,-267.63130588702
738508.44776390807237476110,-38.8845484786523,-41.2848292489395,-267.695928830836
738508.44776399841066449881,-38.8845484786523,-41.2848292489395,-267.686696981719
738508.44776408886536955833,-38.8660847804193,-41.275597399823,-267.705160679952
738508.44776417932007461786,-38.9030121768853,-41.3125247962889,-267.668233283486
738508.44776426977477967739,-38.8660847804193,-41.2848292489395,-267.695928830836
738508.44776436022948473692,-38.8476210821863,-41.2848292489395,-267.723624378185
738508.44776445056777447462,-38.9214758751183,-41.3679158909879,-267.649769585253
738508.44776454102247953415,-38.8753166295358,-41.3309884945219,-267.714392529069
738508.44776463147718459368,-38.8660847804193,-41.3217566454054,-267.723624378185
738508.44776472193188965321,-38.9399395733512,-41.4048432874538,-267.649769585253
738508.44776481238659471273,-38.9214758751183,-41.3863795892209,-267.668233283486
738508.44776490272488445044,-38.8937803277688,-41.3771477401044,-267.695928830836
738508.44776499317958950996,-38.9214758751183,-41.3863795892209,-267.677465132603
738508.44776508363429456949,-38.9214758751183,-41.4048432874538,-267.677465132603
738508.44776517408899962902,-38.9399395733512,-41.4048432874538,-267.695928830836
738508.44776526454370468855,-38.9307077242347,-41.4048432874538,-267.668233283486
738508.44776535488199442625,-38.8568529313028,-41.3309884945219,-267.742088076418
738508.44776544533669948578,-38.8660847804193,-41.3402203436384,-267.732856227302
738508.44776553579140454531,-38.8845484786523,-41.3679158909879,-267.705160679952
738508.44776562624610960484,-38.8568529313028,-41.3217566454054,-267.742088076418
738508.44776571670081466436,-38.8476210821863,-41.3217566454054,-267.751319925535
738508.44776580703910440207,-38.9122440260018,-41.3771477401044,-267.677465132603
738508.44776589749380946159,-38.8568529313028,-41.3309884945219,-267.742088076418
738508.44776598794851452112,-38.8568529313028,-41.3217566454054,-267.742088076418
738508.44776607840321958065,-38.8660847804193,-41.3402203436384,-267.732856227302
738508.44776616885792464018,-38.8845484786523,-41.3402203436384,-267.714392529069
738508.44776625919621437788,-38.8568529313028,-41.3309884945219,-267.742088076418
738508.44776634965091943741,-38.8753166295358,-41.3309884945219,-267.723624378185
738508.44776644010562449694,-38.9122440260018,-41.3956114383373,-267.677465132603
738508.44776653056032955647,-38.8753166295358,-41.3309884945219,-267.723624378185
738508.44776662101503461599,-38.8568529313028,-41.3402203436384,-267.732856227302
738508.44776671146973967552,-38.8937803277688,-41.3586840418714,-267.705160679952
738508.44776680180802941322,-39.0414899136326,-41.5248573259682,-267.548219244972
738508.44776689226273447275,-38.9768669698172,-41.4417706839198,-267.622074037904
738508.44776698271743953228,-38.8660847804193,-41.3494521927549,-267.723624378185
738508.44776707317214459181,-38.8568529313028,-41.3402203436384,-267.742088076418
738508.44776716362684965134,-38.8383892330699,-41.3125247962889,-267.751319925535
738508.44776725396513938904,-38.8199255348369,-41.294061098056,-267.769783623768
738508.44776734441984444857,-38.8937803277688,-41.3494521927549,-267.705160679952
738508.44776743487454950809,-38.8199255348369,-41.3032929471725,-267.769783623768
738508.44776752532925456762,-38.8476210821863,-41.3217566454054,-267.751319925535
738508.44776761578395962715,-38.8568529313028,-41.3402203436384,-267.732856227302
738508.44776770612224936485,-38.8660847804193,-41.3309884945219,-267.723624378185
738508.44776779657695442438,-38.8383892330699,-41.3217566454054,-267.742088076418
738508.44776788703165948391,-38.8383892330699,-41.3032929471725,-267.751319925535
738508.44776797748636454344,-38.8937803277688,-41.3771477401044,-267.695928830836
738508.44776806794106960297,-38.8383892330699,-41.3032929471725,-267.751319925535
738508.44776815827935934067,-38.8383892330699,-41.3309884945219,-267.751319925535
738508.44776824873406440020,-38.9122440260018,-41.3771477401044,-267.686696981719
738508.44776833918876945972,-38.8753166295358,-41.3586840418714,-267.723624378185
738508.44776842964347451925,-38.8383892330699,-41.3125247962889,-267.751319925535
738508.44776852009817957878,-38.8753166295358,-41.3494521927549,-267.723624378185
738508.44776861043646931648,-38.8845484786523,-41.3494521927549,-267.723624378185
738508.44776870089117437601,-38.8660847804193,-41.3402203436384,-267.732856227302
738508.44776879134587943554,-38.9307077242347,-41.3956114383373,-267.668233283486
738508.44776888180058449507,-38.9584032715842,-41.4233069856868,-267.63130588702
738508.44776897225528955460,-38.9307077242347,-41.3956114383373,-267.677465132603
738508.44776906270999461412,-38.9491714224677,-41.3863795892209,-267.668233283486
738508.44776915304828435183,-38.9491714224677,-41.4048432874538,-267.649769585253
738508.44776924350298941135,-38.9214758751183,-41.2848292489395,-267.622074037904
738508.44776933395769447088,-38.9307077242347,-41.1832789086581,-267.548219244972
738508.44776942441239953041,-38.9491714224677,-41.3125247962889,-267.50205999939
738508.44776951486710458994,-38.7737662892544,-41.5617847224342,-267.751319925535
738508.44776960520539432764,-38.7645344401379,-41.5710165715506,-267.825174718467
738508.44776969566009938717,-38.8383892330699,-41.4694662312693,-267.760551774651
738508.44776978611480444670,-38.8753166295358,-41.3956114383373,-267.732856227302
738508.44776987656950950623,-38.9307077242347,-41.3956114383373,-267.668233283486
738508.44776996702421456575,-38.9122440260018,-41.3771477401044,-267.686696981719
738508.44777005736250430346,-38.9122440260018,-41.3771477401044,-267.686696981719
738508.44777014781720936298,-38.9399395733512,-41.3863795892209,-267.65900143437
738508.44777023827191442251,-38.9214758751183,-41.3679158909879,-267.677465132603
738508.44777032872661948204,-39.0599536118656,-41.4971617786187,-267.538987395856
738508.44777041918132454157,-38.9768669698172,-41.4140751365703,-267.612842188788
738508.44777050951961427927,-38.9307077242347,-41.3771477401044,-267.65900143437
738508.44777059997431933880,-38.9307077242347,-41.3586840418714,-267.65900143437
738508.44777069042902439833,-38.9122440260018,-41.3494521927549,-267.677465132603
738508.44777078088372945786,-38.9491714224677,-41.3679158909879,-267.65900143437
738508.44777087133843451738,-38.9122440260018,-41.3494521927549,-267.668233283486
738508.44777096167672425508,-38.9399395733512,-41.3494521927549,-267.65900143437
738508.44777105213142931461,-38.9122440260018,-41.3309884945219,-267.677465132603
738508.44777114258613437414,-38.8753166295358,-41.2848292489395,-267.723624378185
738508.44777123304083943367,-38.8937803277688,-41.3032929471725,-267.686696981719
738508.44777132349554449320,-38.9399395733512,-41.3402203436384,-267.649769585253
738508.44777141383383423090,-38.8660847804193,-41.25713370159,-267.714392529069
738508.44777150428853929043,-38.8753166295358,-41.2663655507065,-267.705160679952
738508.44777159474324434996,-38.8568529313028,-41.238670003357,-267.723624378185
738508.44777168519794940948,-38.8937803277688,-41.2848292489395,-267.686696981719
738508.44777177565265446901,-38.9122440260018,-41.2848292489395,-267.668233283486
738508.44777186610735952854,-38.8753166295358,-41.275597399823,-267.695928830836
738508.44777195644564926624,-38.8753166295358,-41.2663655507065,-267.695928830836
738508.44777204690035432577,-38.9399395733512,-41.3586840418714,-267.63130588702
738508.44777213735505938530,-38.8845484786523,-41.294061098056,-267.695928830836
738508.44777222780976444483,-38.8660847804193,-41.294061098056,-267.714392529069
738508.44777231826446950436,-38.9307077242347,-41.3494521927549,-267.65900143437
738508.44777240860275924206,-38.8476210821863,-41.3032929471725,-267.732856227302
738508.44777249905746430159,-38.8660847804193,-41.3125247962889,-267.723624378185
738508.44777258951216936111,-38.8845484786523,-41.3494521927549,-267.705160679952
738508.44777267996687442064,-38.9399395733512,-41.3956114383373,-267.65900143437
738508.44777277042157948017,-38.8476210821863,-41.3032929471725,-267.751319925535
738508.44777286075986921787,-38.8568529313028,-41.3217566454054,-267.732856227302
738508.44777295121457427740,-38.8937803277688,-41.3586840418714,-267.695928830836
738508.44777304166927933693,-38.8753166295358,-41.3494521927549,-267.714392529069
738508.44777313212398439646,-38.8845484786523,-41.3402203436384,-267.714392529069
738508.44777322257868945599,-38.8291573839534,-41.3032929471725,-267.769783623768
738508.44777331291697919369,-38.9030121768853,-41.3679158909879,-267.686696981719
738508.44777340337168425322,-38.8753166295358,-41.3402203436384,-267.714392529069
738508.44777349382638931274,-38.9122440260018,-41.3586840418714,-267.686696981719
738508.44777358428109437227,-38.9491714224677,-41.4233069856868,-267.640537736137
738508.44777367473579943180,-38.9584032715842,-41.4048432874538,-267.640537736137
738508.44777376507408916950,-38.9491714224677,-41.4140751365703,-267.640537736137
738508.44777385552879422903,-39.0784173100986,-41.5156254768517,-267.520523697623
738508.44777394598349928856,-39.0230262153996,-41.4971617786187,-267.557451094089
738508.44777403643820434809,-38.9307077242347,-41.3771477401044,-267.65900143437
738508.44777412689290940762,-38.9122440260018,-41.3863795892209,-267.668233283486
738508.44777421734761446714,-38.9307077242347,-41.3863795892209,-267.65900143437
738508.44777430768590420485,-38.9307077242347,-41.3956114383373,-267.649769585253
738508.44777439814060926437,-38.8937803277688,-41.3402203436384,-267.695928830836
738508.44777448859531432390,-38.8568529313028,-41.3217566454054,-267.705160679952
738508.44777457905001938343,-38.8660847804193,-41.3309884945219,-267.723624378185
738508.44777466950472444296,-38.8568529313028,-41.3125247962889,-267.732856227302
738508.44777475984301418066,-38.8753166295358,-41.3494521927549,-267.714392529069
738508.44777485029771924019,-38.8568529313028,-41.3125247962889,-267.732856227302
738508.44777494075242429972,-38.8753166295358,-41.3494521927549,-267.714392529069
738508.44777503120712935925,-38.9307077242347,-41.3863795892209,-267.65900143437
738508.44777512166183441877,-38.8476210821863,-41.3217566454054,-267.742088076418
738508.44777521200012415648,-38.8753166295358,-41.3217566454054,-267.714392529069
738508.44777530245482921600,-38.9307077242347,-41.4048432874538,-267.649769585253
738508.44777539290953427553,-38.9122440260018,-41.3679158909879,-267.677465132603
738508.44777548336423933506,-38.8568529313028,-41.3309884945219,-267.714392529069
738508.44777557381894439459,-38.9307077242347,-41.3863795892209,-267.649769585253
738508.44777566415723413229,-38.8660847804193,-41.3402203436384,-267.705160679952
738508.44777575461193919182,-38.8383892330699,-41.294061098056,-267.732856227302
738508.44777584506664425135,-38.8660847804193,-41.3309884945219,-267.705160679952
738508.44777593552134931087,-38.9214758751183,-41.3956114383373,-267.649769585253
738508.44777602597605437040,-38.8753166295358,-41.3402203436384,-267.705160679952
738508.44777611631434410810,-38.8199255348369,-41.2848292489395,-267.769783623768
738508.44777620676904916763,-38.9214758751183,-41.3863795892209,-267.668233283486
738508.44777629722375422716,-38.8383892330699,-41.3032929471725,-267.751319925535
738508.44777638767845928669,-38.8199255348369,-41.275597399823,-267.769783623768
738508.44777647813316434622,-38.8383892330699,-41.3125247962889,-267.742088076418
738508.44777656847145408392,-38.9307077242347,-41.3863795892209,-267.668233283486
738508.44777665892615914345,-38.9030121768853,-41.3771477401044,-267.686696981719
738508.44777674938086420298,-38.9122440260018,-41.3679158909879,-267.686696981719
738508.44777683983556926250,-38.9491714224677,-41.4140751365703,-267.649769585253
738508.44777693029027432203,-38.9399395733512,-41.3771477401044,-267.668233283486
738508.44777702074497938156,-38.9307077242347,-41.3771477401044,-267.677465132603
738508.44777711108326911926,-38.9030121768853,-41.3217566454054,-267.668233283486
738508.44777720153797417879,-38.9307077242347,-41.2479018524735,-267.566682943205
738508.44777729199267923832,-38.9122440260018,-41.1555833613086,-267.557451094089
738508.44777738244738429785,-38.8937803277688,-41.4325388348033,-267.566682943205
738508.44777747290208935738,-38.8106936857204,-41.709494308298,-267.751319925535
738508.44777756324037909508,-38.7553025910215,-41.4602343821528,-267.825174718467
738508.44777765369508415461,-38.8291573839534,-41.4048432874538,-267.779015472884
738508.44777774414978921413,-38.9122440260018,-41.3956114383373,-267.686696981719
738508.44777783460449427366,-38.9214758751183,-41.3863795892209,-267.668233283486
738508.44777792505919933319,-38.9307077242347,-41.3863795892209,-267.65900143437
738508.44777801539748907089,-38.8937803277688,-41.3494521927549,-267.695928830836
738508.44777810585219413042,-38.9307077242347,-41.3679158909879,-267.65900143437
738508.44777819630689918995,-38.9030121768853,-41.3494521927549,-267.65900143437
738508.44777828676160424948,-38.9307077242347,-41.3586840418714,-267.668233283486
738508.44777837721630930901,-38.9122440260018,-41.3586840418714,-267.668233283486
738508.44777846755459904671,-38.9307077242347,-41.3679158909879,-267.65900143437
738508.44777855800930410624,-38.8845484786523,-41.3217566454054,-267.695928830836
738508.44777864846400916576,-38.9214758751183,-41.3494521927549,-267.668233283486
738508.44777873891871422529,-38.9214758751183,-41.3494521927549,-267.668233283486
738508.44777882937341928482,-38.9214758751183,-41.3494521927549,-267.668233283486
738508.44777891971170902252,-38.8937803277688,-41.3032929471725,-267.695928830836
738508.44777901016641408205,-38.9030121768853,-41.3217566454054,-267.677465132603
738508.44777910062111914158,-38.9030121768853,-41.294061098056,-267.686696981719
738508.44777919107582420111,-38.8937803277688,-41.3032929471725,-267.686696981719
738508.44777928153052926064,-38.8845484786523,-41.275597399823,-267.695928830836
738508.44777937186881899834,-38.8568529313028,-41.25713370159,-267.723624378185
738508.44777946232352405787,-38.9491714224677,-41.3309884945219,-267.622074037904
738508.44777955277822911739,-38.8753166295358,-41.2848292489395,-267.686696981719
738508.44777964323293417692,-38.8937803277688,-41.2663655507065,-267.677465132603
738508.44777973368763923645,-38.9307077242347,-41.3217566454054,-267.640537736137
738508.44777982414234429598,-38.9307077242347,-41.3125247962889,-267.640537736137
738508.44777991448063403368,-38.8845484786523,-41.3032929471725,-267.677465132603
738508.44778000493533909321,-38.9307077242347,-41.3309884945219,-267.63130588702
738508.44778009539004415274,-38.9491714224677,-41.3494521927549,-267.622074037904
738508.44778018584474921227,-38.9584032715842,-41.3863795892209,-267.612842188788
738508.44778027629945427179,-38.9399395733512,-41.3586840418714,-267.640537736137
738508.44778036663774400949,-38.9307077242347,-41.3771477401044,-267.649769585253
738508.44778045709244906902,-38.9122440260018,-41.3402203436384,-267.677465132603
738508.44778054754715412855,-38.8660847804193,-41.3309884945219,-267.714392529069
738508.44778063800185918808,-38.8291573839534,-41.2663655507065,-267.760551774651
738508.44778072845656424761,-38.8568529313028,-41.3217566454054,-267.723624378185
738508.44778081879485398531,-38.8937803277688,-41.3309884945219,-267.695928830836
738508.44778090924955904484,-38.9122440260018,-41.3771477401044,-267.668233283486
738508.44778099970426410437,-38.9584032715842,-41.4048432874538,-267.63130588702
738508.44778109015896916389,-38.8845484786523,-41.3494521927549,-267.705160679952
738508.44778118061367422342,-38.8476210821863,-41.294061098056,-267.742088076418
738508.44778127095196396112,-38.8383892330699,-41.3032929471725,-267.742088076418
738508.44778136140666902065,-38.8383892330699,-41.275597399823,-267.760551774651
738508.44778145186137408018,-38.8845484786523,-41.3402203436384,-267.705160679952
738508.44778154231607913971,-38.8291573839534,-41.2663655507065,-267.769783623768
738508.44778163277078419924,-38.8383892330699,-41.294061098056,-267.751319925535
738508.44778172310907393694,-38.9399395733512,-41.3863795892209,-267.649769585253
738508.44778181356377899647,-38.8660847804193,-41.3125247962889,-267.723624378185
738508.44778190401848405600,-38.8291573839534,-41.275597399823,-267.769783623768
738508.44778199447318911552,-38.8476210821863,-41.2848292489395,-267.742088076418
738508.44778208492789417505,-38.8383892330699,-41.294061098056,-267.751319925535
738508.44778217538259923458,-38.8845484786523,-41.3217566454054,-267.705160679952
738508.44778226572088897228,-38.9584032715842,-41.4233069856868,-267.622074037904
738508.44778235617559403181,-38.9399395733512,-41.3863795892209,-267.640537736137
738508.44778244663029909134,-38.9214758751183,-41.3863795892209,-267.668233283486
738508.44778253708500415087,-38.9030121768853,-41.3494521927549,-267.686696981719
738508.44778262753970921040,-38.8937803277688,-41.3586840418714,-267.686696981719
738508.44778271787799894810,-38.9122440260018,-41.3679158909879,-267.677465132603
738508.44778280833270400763,-38.9030121768853,-41.3679158909879,-267.677465132603
738508.44778289878740906715,-38.9030121768853,-41.3586840418714,-267.686696981719
738508.44778298924211412668,-38.9122440260018,-41.3771477401044,-267.668233283486
738508.44778307969681918621,-38.9122440260018,-41.3679158909879,-267.677465132603
738508.44778317003510892391,-38.8753166295358,-41.3309884945219,-267.705160679952
738508.44778326048981398344,-38.8660847804193,-41.3309884945219,-267.714392529069
738508.44778335094451904297,-38.8937803277688,-41.3586840418714,-267.686696981719
738508.44778344139922410250,-38.9030121768853,-41.3679158909879,-267.677465132603
738508.44778353185392916203,-38.8845484786523,-41.3494521927549,-267.686696981719
738508.44778362219221889973,-38.8845484786523,-41.3494521927549,-267.686696981719
738508.44778371264692395926,-38.8937803277688,-41.3494521927549,-267.677465132603
738508.44778380310162901878,-38.8753166295358,-41.3402203436384,-267.695928830836
738508.44778389355633407831,-38.8845484786523,-41.3402203436384,-267.695928830836
738508.44778398401103913784,-38.8476210821863,-41.3125247962889,-267.732856227302
738508.44778407434932887554,-38.9122440260018,-41.3679158909879,-267.677465132603
738508.44778416480403393507,-38.9122440260018,-41.3771477401044,-267.677465132603
738508.44778425525873899460,-38.8568529313028,-41.3125247962889,-267.732856227302
738508.44778434571344405413,-38.8476210821863,-41.3125247962889,-267.732856227302
738508.44778443616814911366,-39.0230262153996,-41.4786980803858,-267.566682943205
738508.44778452650643885136,-39.0230262153996,-41.4786980803858,-267.566682943205
738508.44778461696114391088,-38.9307077242347,-41.3863795892209,-267.65900143437
738508.44778470741584897041,-38.9399395733512,-41.3863795892209,-267.649769585253
738508.44778479787055402994,-38.9584032715842,-41.4048432874538,-267.640537736137
738508.44778488832525908947,-38.9030121768853,-41.3309884945219,-267.705160679952
738508.44778497877996414900,-38.8753166295358,-41.3217566454054,-267.705160679952
738508.44778506911825388670,-38.9584032715842,-41.3217566454054,-267.585146641438
738508.44778515957295894623,-38.9491714224677,-41.2017426068911,-267.520523697623
738508.44778525002766400576,-38.9122440260018,-41.2017426068911,-267.520523697623
738508.44778534048236906528,-38.8291573839534,-41.5063936277352,-267.649769585253
738508.44778543093707412481,-38.7183751945555,-41.5433210242012,-267.834406567583
738508.44778552127536386251,-38.7829981383709,-41.4233069856868,-267.797479171117
738508.44778561173006892204,-38.8291573839534,-41.3494521927549,-267.788247322001
738508.44778570218477398157,-38.9214758751183,-41.4048432874538,-267.677465132603
738508.44778579263947904110,-38.8753166295358,-41.3125247962889,-267.714392529069
738508.44778588309418410063,-38.8568529313028,-41.294061098056,-267.723624378185
738508.44778597343247383833,-38.8845484786523,-41.3217566454054,-267.705160679952
738508.44778606388717889786,-38.8845484786523,-41.3032929471725,-267.695928830836
738508.44778615434188395739,-38.8753166295358,-41.3032929471725,-267.714392529069
738508.44778624479658901691,-38.8845484786523,-41.3032929471725,-267.686696981719
738508.44778633525129407644,-38.9491714224677,-41.3771477401044,-267.63130588702
738508.44778642558958381414,-38.9768669698172,-41.3863795892209,-267.603610339671
738508.44778651604428887367,-38.9307077242347,-41.3494521927549,-267.649769585253
738508.44778660649899393320,-38.9491714224677,-41.3494521927549,-267.63130588702
738508.44778669695369899273,-38.9122440260018,-41.3217566454054,-267.65900143437
738508.44778678740840405226,-38.9307077242347,-41.3217566454054,-267.649769585253
738508.44778687774669378996,-38.9399395733512,-41.3402203436384,-267.63130588702
738508.44778696820139884949,-38.9214758751183,-41.3032929471725,-267.649769585253
738508.44778705865610390902,-38.9030121768853,-41.294061098056,-267.65900143437
738508.44778714911080896854,-38.9122440260018,-41.275597399823,-267.65900143437
738508.44778723956551402807,-38.9307077242347,-41.3125247962889,-267.63130588702
738508.44778733002021908760,-38.9214758751183,-41.2848292489395,-267.640537736137
738508.44778742035850882530,-38.9676351207007,-41.3402203436384,-267.585146641438
738508.44778751081321388483,-38.9491714224677,-41.294061098056,-267.585146641438
738508.44778760126791894436,-38.9584032715842,-41.3125247962889,-267.594378490555
738508.44778769172262400389,-38.8937803277688,-41.2663655507065,-267.65900143437
738508.44778778217732906342,-38.9214758751183,-41.275597399823,-267.63130588702
738508.44778787251561880112,-38.9214758751183,-41.3032929471725,-267.622074037904
738508.44778796297032386065,-39.0137943662832,-41.3771477401044,-267.538987395856
738508.44778805342502892017,-39.0507217627491,-41.4510025330363,-267.50205999939
738508.44778814387973397970,-38.9399395733512,-41.3309884945219,-267.622074037904
738508.44778823433443903923,-38.9122440260018,-41.3217566454054,-267.649769585253
738508.44778832467272877693,-38.8845484786523,-41.2848292489395,-267.686696981719
738508.44778841512743383646,-38.8937803277688,-41.3217566454054,-267.677465132603
738508.44778850558213889599,-38.8937803277688,-41.3032929471725,-267.686696981719
738508.44778859603684395552,-38.9030121768853,-41.3402203436384,-267.65900143437
738508.44778868649154901505,-38.8937803277688,-41.3125247962889,-267.677465132603
738508.44778877682983875275,-38.8476210821863,-41.294061098056,-267.714392529069
738508.44778886728454381227,-38.9214758751183,-41.3494521927549,-267.649769585253
738508.44778895773924887180,-38.8568529313028,-41.294061098056,-267.723624378185
738508.44778904819395393133,-38.8845484786523,-41.3125247962889,-267.695928830836
738508.44778913864865899086,-38.8937803277688,-41.3309884945219,-267.668233283486
738508.44778922898694872856,-38.8937803277688,-41.3309884945219,-267.668233283486
738508.44778931944165378809,-38.9307077242347,-41.3586840418714,-267.640537736137
738508.44778940989635884762,-38.9399395733512,-41.3771477401044,-267.63130588702
738508.44778950035106390715,-38.9584032715842,-41.3771477401044,-267.612842188788
738508.44778959080576896667,-38.9399395733512,-41.3771477401044,-267.622074037904
738508.44778968114405870438,-38.9676351207007,-41.3863795892209,-267.603610339671
738508.44778977159876376390,-38.9030121768853,-41.3309884945219,-267.668233283486
738508.44778986205346882343,-38.8937803277688,-41.3125247962889,-267.677465132603
738508.44778995250817388296,-38.9122440260018,-41.3402203436384,-267.649769585253
738508.44779004296287894249,-38.8753166295358,-41.294061098056,-267.695928830836
738508.44779013341758400202,-38.8476210821863,-41.275597399823,-267.723624378185
738508.44779022375587373972,-38.9122440260018,-41.3402203436384,-267.649769585253
738508.44779031421057879925,-38.9030121768853,-41.3309884945219,-267.668233283486
738508.44779040466528385878,-38.8568529313028,-41.2848292489395,-267.705160679952
738508.44779049511998891830,-38.8753166295358,-41.3032929471725,-267.686696981719
738508.44779058557469397783,-38.8937803277688,-41.3309884945219,-267.668233283486
738508.44779067591298371553,-38.8476210821863,-41.2848292489395,-267.714392529069
738508.44779076636768877506,-38.8568529313028,-41.3032929471725,-267.705160679952
738508.44779085682239383459,-38.9399395733512,-41.3679158909879,-267.622074037904
738508.44779094727709889412,-38.8845484786523,-41.3309884945219,-267.668233283486
738508.44779103773180395365,-38.8660847804193,-41.294061098056,-267.686696981719
738508.44779112807009369135,-38.9399395733512,-41.3771477401044,-267.612842188788
738508.44779121852479875088,-38.8753166295358,-41.3125247962889,-267.640537736137
738508.44779130897950381041,-38.8476210821863,-41.294061098056,-267.695928830836
738508.44779139943420886993,-38.8383892330699,-41.2848292489395,-267.705160679952
738508.44779148988891392946,-38.9860988189337,-41.4325388348033,-267.557451094089
738508.44779158022720366716,-39.0137943662832,-41.4510025330363,-267.538987395856
738508.44779167068190872669,-38.8476210821863,-41.294061098056,-267.695928830836
738508.44779176113661378622,-38.9399395733512,-41.3863795892209,-267.612842188788
738508.44779185159131884575,-38.8937803277688,-41.3217566454054,-267.65900143437
738508.44779194204602390528,-38.9307077242347,-41.3771477401044,-267.622074037904
738508.44779203238431364298,-38.9307077242347,-41.3679158909879,-267.622074037904
738508.44779212283901870251,-38.9399395733512,-41.3863795892209,-267.612842188788
738508.44779221329372376204,-38.9307077242347,-41.3586840418714,-267.63130588702
738508.44779230374842882156,-38.9030121768853,-41.3402203436384,-267.649769585253
738508.44779239420313388109,-38.9307077242347,-41.3494521927549,-267.63130588702
738508.44779248465783894062,-38.8753166295358,-41.3217566454054,-267.686696981719
738508.44779257499612867832,-38.9307077242347,-41.3494521927549,-267.63130588702
738508.44779266545083373785,-38.8937803277688,-41.3217566454054,-267.677465132603
738508.44779275590553879738,-38.8937803277688,-41.3032929471725,-267.677465132603
738508.44779284636024385691,-38.8660847804193,-41.25713370159,-267.649769585253
738508.44779293681494891644,-38.9676351207007,-41.2202063051241,-267.492828150273
738508.44779302715323865414,-38.9214758751183,-41.1463515121921,-267.483596301157
738508.44779311760794371367,-38.9030121768853,-41.2294381542405,-267.483596301157
738508.44779320806264877319,-38.746070741905,-41.4879299295022,-267.714392529069
738508.44779329851735383272,-38.690679647206,-41.4786980803858,-267.834406567583
738508.44779338897205889225,-38.8014618366039,-41.3679158909879,-267.760551774651
738508.44779347931034862995,-38.8291573839534,-41.3217566454054,-267.742088076418
738508.44779356976505368948,-38.8937803277688,-41.3125247962889,-267.65900143437
738508.44779366021975874901,-38.8568529313028,-41.2848292489395,-267.695928830836
738508.44779375067446380854,-38.8476210821863,-41.25713370159,-267.705160679952
738508.44779384112916886806,-38.9214758751183,-41.3402203436384,-267.63130588702
738508.44779393146745860577,-38.9030121768853,-41.3032929471725,-267.649769585253
738508.44779402192216366529,-38.8845484786523,-41.3032929471725,-267.668233283486
738508.44779411237686872482,-38.9214758751183,-41.3217566454054,-267.622074037904
738508.44779420283157378435,-38.9030121768853,-41.3217566454054,-267.649769585253
738508.44779429328627884388,-38.9122440260018,-41.3032929471725,-267.649769585253
738508.44779438362456858158,-38.9399395733512,-41.3494521927549,-267.603610339671
738508.44779447407927364111,-38.9491714224677,-41.3402203436384,-267.603610339671
738508.44779456453397870064,-38.9584032715842,-41.3679158909879,-267.585146641438
738508.44779465498868376017,-38.9399395733512,-41.3217566454054,-267.612842188788
738508.44779474544338881969,-38.9584032715842,-41.3494521927549,-267.585146641438
738508.44779483578167855740,-38.9676351207007,-41.3309884945219,-267.585146641438
738508.44779492623638361692,-38.9491714224677,-41.3309884945219,-267.594378490555
738508.44779501669108867645,-38.9584032715842,-41.3402203436384,-267.585146641438
738508.44779510714579373598,-38.9768669698172,-41.3217566454054,-267.566682943205
738508.44779519760049879551,-38.9584032715842,-41.3309884945219,-267.575914792322
738508.44779528805520385504,-38.9584032715842,-41.3032929471725,-267.575914792322
738508.44779537839349359274,-38.9491714224677,-41.3125247962889,-267.575914792322
738508.44779546884819865227,-38.9399395733512,-41.2848292489395,-267.585146641438
738508.44779555930290371180,-38.9122440260018,-41.2848292489395,-267.612842188788
738508.44779564975760877132,-38.9676351207007,-41.3217566454054,-267.566682943205
738508.44779574021231383085,-38.9122440260018,-41.294061098056,-267.612842188788
738508.44779583055060356855,-38.9214758751183,-41.3032929471725,-267.612842188788
738508.44779592100530862808,-38.9030121768853,-41.3125247962889,-267.63130588702
738508.44779601146001368761,-38.9122440260018,-41.3217566454054,-267.622074037904
738508.44779610191471874714,-38.9491714224677,-41.3679158909879,-267.594378490555
738508.44779619236942380667,-38.9214758751183,-41.3402203436384,-267.63130588702
738508.44779628270771354437,-38.9122440260018,-41.3402203436384,-267.640537736137
738508.44779637316241860390,-38.8753166295358,-41.3032929471725,-267.677465132603
738508.44779646361712366343,-38.8660847804193,-41.3032929471725,-267.686696981719
738508.44779655407182872295,-38.9122440260018,-41.3494521927549,-267.649769585253
738508.44779664452653378248,-38.8753166295358,-41.3125247962889,-267.677465132603
738508.44779673486482352018,-38.8568529313028,-41.3032929471725,-267.705160679952
738508.44779682531952857971,-38.8660847804193,-41.294061098056,-267.695928830836
738508.44779691577423363924,-38.8660847804193,-41.3125247962889,-267.686696981719
738508.44779700622893869877,-38.8383892330699,-41.275597399823,-267.723624378185
738508.44779709668364375830,-38.8383892330699,-41.294061098056,-267.714392529069
738508.44779718702193349600,-38.8660847804193,-41.3032929471725,-267.686696981719
738508.44779727747663855553,-38.8845484786523,-41.3309884945219,-267.668233283486
738508.44779736793134361506,-38.8660847804193,-41.3032929471725,-267.695928830836
738508.44779745838604867458,-38.8476210821863,-41.2848292489395,-267.705160679952
738508.44779754884075373411,-38.8937803277688,-41.3309884945219,-267.65900143437
738508.44779763917904347181,-38.8476210821863,-41.2848292489395,-267.705160679952
738508.44779772963374853134,-38.8568529313028,-41.294061098056,-267.695928830836
738508.44779782008845359087,-38.9030121768853,-41.3402203436384,-267.649769585253
738508.44779791054315865040,-38.8660847804193,-41.3125247962889,-267.686696981719
738508.44779800099786370993,-38.8291573839534,-41.2663655507065,-267.723624378185
738508.44779809145256876945,-38.8291573839534,-41.2848292489395,-267.723624378185
738508.44779818179085850716,-38.8660847804193,-41.294061098056,-267.686696981719
738508.44779827224556356668,-38.8845484786523,-41.3402203436384,-267.668233283486
738508.44779836270026862621,-38.9307077242347,-41.3679158909879,-267.63130588702
738508.44779845315497368574,-38.9307077242347,-41.3956114383373,-267.622074037904
738508.44779854360967874527,-39.0968810083316,-41.5433210242012,-267.455900753807
738508.44779863394796848297,-38.9860988189337,-41.4417706839198,-267.50205999939
738508.44779872440267354250,-38.9122440260018,-41.3586840418714,-267.640537736137
738508.44779881485737860203,-38.9030121768853,-41.3586840418714,-267.640537736137
738508.44779890531208366156,-38.8937803277688,-41.3586840418714,-267.649769585253
738508.44779899576678872108,-38.9399395733512,-41.4048432874538,-267.603610339671
738508.44779908610507845879,-38.9030121768853,-41.3771477401044,-267.640537736137
738508.44779917655978351831,-38.9307077242347,-41.3863795892209,-267.603610339671
738508.44779926701448857784,-38.9030121768853,-41.3586840418714,-267.640537736137
738508.44779935746919363737,-38.9214758751183,-41.3679158909879,-267.622074037904
738508.44779944792389869690,-38.8937803277688,-41.3586840418714,-267.649769585253
738508.44779953826218843460,-38.9214758751183,-41.3679158909879,-267.63130588702
738508.44779962871689349413,-38.8568529313028,-41.3309884945219,-267.686696981719
738508.44779971917159855366,-38.9307077242347,-41.3771477401044,-267.622074037904
738508.44779980962630361319,-38.9122440260018,-41.3771477401044,-267.63130588702
738508.44779990008100867271,-38.9030121768853,-41.3402203436384,-267.649769585253
738508.44779999041929841042,-38.8660847804193,-41.3309884945219,-267.686696981719
738508.44780008087400346994,-38.8937803277688,-41.3402203436384,-267.65900143437
738508.44780017132870852947,-38.8845484786523,-41.3494521927549,-267.65900143437
738508.44780026178341358900,-38.9307077242347,-41.3679158909879,-267.63130588702
738508.44780035223811864853,-38.9122440260018,-41.3586840418714,-267.649769585253
738508.44780044269282370806,-38.9214758751183,-41.3586840418714,-267.640537736137
738508.44780053303111344576,-38.9030121768853,-41.3309884945219,-267.649769585253
738508.44780062348581850529,-38.8845484786523,-41.2663655507065,-267.612842188788
738508.44780071394052356482,-38.9214758751183,-41.1648152104251,-267.511291848506
738508.44780080439522862434,-38.8660847804193,-41.238670003357,-267.520523697623
738508.44780089484993368387,-38.7645344401379,-41.5156254768517,-267.695928830836
738508.44780098518822342157,-38.6999114963225,-41.5433210242012,-267.825174718467
738508.44780107564292848110,-38.8106936857204,-41.4325388348033,-267.742088076418
738508.44780116609763354063,-38.8660847804193,-41.3956114383373,-267.695928830836
738508.44780125655233860016,-38.8568529313028,-41.294061098056,-267.695928830836
738508.44780134700704365969,-38.8291573839534,-41.2848292489395,-267.723624378185
738508.44780143734533339739,-38.9399395733512,-41.3679158909879,-267.622074037904
738508.44780152780003845692,-38.8753166295358,-41.3125247962889,-267.677465132603
738508.44780161825474351645,-38.8476210821863,-41.2663655507065,-267.714392529069
738508.44780170870944857597,-38.8660847804193,-41.294061098056,-267.686696981719
738508.44780179916415363550,-38.8660847804193,-41.275597399823,-267.695928830836
738508.44780188950244337320,-38.8568529313028,-41.2848292489395,-267.686696981719
738508.44780197995714843273,-38.8568529313028,-41.2663655507065,-267.695928830836
738508.44780207041185349226,-39.0691854609821,-41.4879299295022,-267.483596301157
738508.44780216086655855179,-38.9214758751183,-41.3309884945219,-267.622074037904
738508.44780225132126361132,-38.8660847804193,-41.275597399823,-267.686696981719
738508.44780234165955334902,-38.9030121768853,-41.3032929471725,-267.705160679952
738508.44780243211425840855,-38.9860988189337,-41.3771477401044,-267.566682943205
738508.44780252256896346807,-38.8845484786523,-41.294061098056,-267.65900143437
738508.44780261302366852760,-38.8845484786523,-41.25713370159,-267.668233283486
738508.44780270347837358713,-38.8753166295358,-41.2663655507065,-267.668233283486
738508.44780279381666332483,-38.9214758751183,-41.294061098056,-267.622074037904
738508.44780288427136838436,-38.8845484786523,-41.2663655507065,-267.649769585253
738508.44780297472607344389,-38.9214758751183,-41.294061098056,-267.612842188788
738508.44780306518077850342,-38.9122440260018,-41.294061098056,-267.612842188788
738508.44780315563548356295,-38.9676351207007,-41.3402203436384,-267.557451094089
738508.44780324609018862247,-38.9768669698172,-41.3494521927549,-267.548219244972
738508.44780333642847836018,-38.9768669698172,-41.3494521927549,-267.557451094089
738508.44780342688318341970,-38.9676351207007,-41.3494521927549,-267.557451094089
738508.44780351733788847923,-38.9399395733512,-41.3402203436384,-267.585146641438
738508.44780360779259353876,-38.9491714224677,-41.3586840418714,-267.585146641438
738508.44780369824729859829,-38.9676351207007,-41.3863795892209,-267.575914792322
738508.44780378858558833599,-38.9214758751183,-41.3402203436384,-267.622074037904
738508.44780387904029339552,-38.9030121768853,-41.3402203436384,-267.649769585253
738508.44780396949499845505,-38.9399395733512,-41.3679158909879,-267.612842188788
738508.44780405994970351458,-38.8660847804193,-41.3217566454054,-267.686696981719
738508.44780415040440857410,-38.8753166295358,-41.3032929471725,-267.686696981719
738508.44780424074269831181,-38.8199255348369,-41.275597399823,-267.714392529069
738508.44780433119740337133,-38.8753166295358,-41.3125247962889,-267.677465132603
738508.44780442165210843086,-38.8660847804193,-41.3125247962889,-267.686696981719
738508.44780451210681349039,-38.8383892330699,-41.2848292489395,-267.714392529069
738508.44780460256151854992,-38.8660847804193,-41.3125247962889,-267.686696981719
738508.44780469289980828762,-38.9030121768853,-41.3494521927549,-267.649769585253
738508.44780478335451334715,-38.8568529313028,-41.294061098056,-267.695928830836
738508.44780487380921840668,-38.9214758751183,-41.3586840418714,-267.63130588702
738508.44780496426392346621,-38.9491714224677,-41.3863795892209,-267.603610339671
738508.44780505471862852573,-38.9307077242347,-41.3679158909879,-267.622074037904
738508.44780514505691826344,-38.9122440260018,-41.3402203436384,-267.640537736137
738508.44780523551162332296,-38.8937803277688,-41.3402203436384,-267.65900143437
738508.44780532596632838249,-38.9307077242347,-41.3586840418714,-267.622074037904
738508.44780541642103344202,-38.8753166295358,-41.3217566454054,-267.677465132603
738508.44780550687573850155,-38.8476210821863,-41.275597399823,-267.705160679952
738508.44780559733044356108,-39.0137943662832,-41.4602343821528,-267.538987395856
738508.44780568766873329878,-38.9676351207007,-41.3956114383373,-267.594378490555
738508.44780577812343835831,-38.8568529313028,-41.3125247962889,-267.695928830836
738508.44780586857814341784,-38.8476210821863,-41.2848292489395,-267.705160679952
738508.44780595903284847736,-38.8383892330699,-41.294061098056,-267.714392529069
738508.44780604948755353689,-38.8845484786523,-41.3125247962889,-267.677465132603
738508.44780613982584327459,-38.8291573839534,-41.2663655507065,-267.723624378185
738508.44780623028054833412,-38.8476210821863,-41.294061098056,-267.705160679952
738508.44780632073525339365,-38.8476210821863,-41.294061098056,-267.705160679952
738508.44780641118995845318,-38.8660847804193,-41.3125247962889,-267.686696981719
738508.44780650164466351271,-38.8753166295358,-41.3125247962889,-267.677465132603
738508.44780659198295325041,-38.8291573839534,-41.2848292489395,-267.714392529069
738508.44780668243765830994,-38.9676351207007,-41.4140751365703,-267.575914792322
738508.44780677289236336946,-38.8568529313028,-41.3217566454054,-267.686696981719
738508.44780686334706842899,-38.8383892330699,-41.294061098056,-267.695928830836
738508.44780695380177348852,-38.8568529313028,-41.3125247962889,-267.677465132603
738508.44780704414006322622,-38.8845484786523,-41.3309884945219,-267.65900143437
738508.44780713459476828575,-38.8568529313028,-41.3217566454054,-267.686696981719
738508.44780722504947334528,-38.9030121768853,-41.3402203436384,-267.649769585253
738508.44780731550417840481,-38.9122440260018,-41.3771477401044,-267.63130588702
738508.44780740595888346434,-38.9214758751183,-41.3679158909879,-267.622074037904
738508.44780749629717320204,-38.9030121768853,-41.3586840418714,-267.649769585253
738508.44780758675187826157,-38.9030121768853,-41.3402203436384,-267.649769585253
738508.44780767720658332109,-38.8937803277688,-41.3494521927549,-267.65900143437
738508.44780776766128838062,-38.9030121768853,-41.3494521927549,-267.649769585253
738508.44780785811599344015,-38.9307077242347,-41.3863795892209,-267.622074037904
738508.44780794845428317785,-38.8568529313028,-41.294061098056,-267.686696981719
738508.44780803890898823738,-38.8753166295358,-41.3032929471725,-267.686696981719
738508.44780812936369329691,-38.8660847804193,-41.3125247962889,-267.695928830836
738508.44780821981839835644,-38.8845484786523,-41.3032929471725,-267.686696981719
738508.44780831027310341597,-38.9307077242347,-41.3586840418714,-267.603610339671
738508.44780840072780847549,-38.9768669698172,-41.294061098056,-267.50205999939
738508.44780849106609821320,-39.0507217627491,-41.275597399823,-267.372814111759
738508.44780858152080327272,-38.9122440260018,-41.3679158909879,-267.483596301157
738508.44780867197550833225,-38.746070741905,-41.6079439680166,-267.742088076418
738508.44780876243021339178,-38.8199255348369,-41.5525528733177,-267.714392529069
738508.44780885288491845131,-38.8568529313028,-41.4325388348033,-267.705160679952
738508.44780894322320818901,-38.8660847804193,-41.3402203436384,-267.695928830836
738508.44780903367791324854,-38.8845484786523,-41.3217566454054,-267.668233283486
738508.44780912413261830807,-39.0230262153996,-41.4602343821528,-267.529755546739
738508.44780921458732336760,-38.9214758751183,-41.3494521927549,-267.63130588702
738508.44780930504202842712,-38.9122440260018,-41.3402203436384,-267.640537736137
738508.44780939538031816483,-38.9399395733512,-41.3586840418714,-267.612842188788
738508.44780948583502322435,-38.9214758751183,-41.3402203436384,-267.622074037904
738508.44780957628972828388,-38.9491714224677,-41.3586840418714,-267.603610339671
738508.44780966674443334341,-38.8660847804193,-41.2848292489395,-267.686696981719
738508.44780975719913840294,-38.8753166295358,-41.2848292489395,-267.677465132603
738508.44780984753742814064,-38.8383892330699,-41.25713370159,-267.714392529069
738508.44780993799213320017,-38.9584032715842,-41.3586840418714,-267.594378490555
738508.44781002844683825970,-38.8476210821863,-41.25713370159,-267.705160679952
738508.44781011890154331923,-38.8753166295358,-41.2663655507065,-267.677465132603
738508.44781020935624837875,-38.9214758751183,-41.3125247962889,-267.63130588702
738508.44781029969453811646,-38.9030121768853,-41.2848292489395,-267.649769585253
738508.44781039014924317598,-38.8568529313028,-41.238670003357,-267.686696981719
738508.44781048060394823551,-38.8937803277688,-41.2663655507065,-267.65900143437
738508.44781057105865329504,-38.9214758751183,-41.294061098056,-267.622074037904
738508.44781066151335835457,-38.8660847804193,-41.238670003357,-267.668233283486
738508.44781075185164809227,-38.8845484786523,-41.2479018524735,-267.649769585253
738508.44781084230635315180,-38.8937803277688,-41.2663655507065,-267.640537736137
738508.44781093276105821133,-38.9122440260018,-41.275597399823,-267.622074037904
738508.44781102321576327085,-38.8660847804193,-41.2479018524735,-267.65900143437
738508.44781111367046833038,-38.8753166295358,-41.2479018524735,-267.649769585253
738508.44781120412517338991,-38.9307077242347,-41.3217566454054,-267.594378490555
738508.44781129446346312761,-38.8660847804193,-41.2479018524735,-267.668233283486
738508.44781138491816818714,-38.8753166295358,-41.2848292489395,-267.65900143437
738508.44781147537287324667,-38.9491714224677,-41.3494521927549,-267.603610339671
738508.44781156582757830620,-38.8753166295358,-41.3125247962889,-267.668233283486
738508.44781165628228336573,-38.8568529313028,-41.2663655507065,-267.686696981719
738508.44781174662057310343,-38.8937803277688,-41.3217566454054,-267.65900143437
738508.44781183707527816296,-38.9491714224677,-41.3771477401044,-267.612842188788
738508.44781192752998322248,-38.9584032715842,-41.3956114383373,-267.594378490555
738508.44781201798468828201,-38.9491714224677,-41.3863795892209,-267.612842188788
738508.44781210843939334154,-38.9676351207007,-41.3956114383373,-267.594378490555
738508.44781219877768307924,-38.9676351207007,-41.4140751365703,-267.594378490555
738508.44781228923238813877,-38.9584032715842,-41.3863795892209,-267.603610339671
738508.44781237968709319830,-38.9491714224677,-41.3956114383373,-267.603610339671
738508.44781247014179825783,-38.9399395733512,-41.3679158909879,-267.612842188788
738508.44781256059650331736,-38.9399395733512,-41.3863795892209,-267.612842188788
738508.44781265093479305506,-39.0230262153996,-41.4510025330363,-267.529755546739
738508.44781274138949811459,-39.0045625171667,-41.4510025330363,-267.548219244972
738508.44781283184420317411,-38.9491714224677,-41.3771477401044,-267.603610339671
738508.44781292229890823364,-38.8937803277688,-41.3402203436384,-267.65900143437
738508.44781301275361329317,-38.9399395733512,-41.3586840418714,-267.622074037904
738508.44781310309190303087,-38.9307077242347,-41.3771477401044,-267.622074037904
738508.44781319354660809040,-38.8753166295358,-41.3032929471725,-267.677465132603
738508.44781328400131314993,-38.9307077242347,-41.3771477401044,-267.63130588702
738508.44781337445601820946,-38.9030121768853,-41.3309884945219,-267.65900143437
738508.44781346491072326899,-38.8937803277688,-41.3402203436384,-267.65900143437
738508.44781355536542832851,-38.8476210821863,-41.294061098056,-267.705160679952
738508.44781364570371806622,-38.8660847804193,-41.3032929471725,-267.686696981719
738508.44781373615842312574,-38.9399395733512,-41.3863795892209,-267.622074037904
738508.44781382661312818527,-38.9030121768853,-41.3309884945219,-267.65900143437
738508.44781391706783324480,-38.8845484786523,-41.3402203436384,-267.668233283486
738508.44781400752253830433,-38.8753166295358,-41.3125247962889,-267.686696981719
738508.44781409786082804203,-38.8660847804193,-41.3217566454054,-267.686696981719
738508.44781418831553310156,-38.8753166295358,-41.3125247962889,-267.677465132603
738508.44781427877023816109,-38.8845484786523,-41.3586840418714,-267.65900143437
738508.44781436922494322062,-38.8383892330699,-41.2848292489395,-267.714392529069
738508.44781445967964828014,-38.8383892330699,-41.3125247962889,-267.695928830836
738508.44781455001793801785,-38.9307077242347,-41.3771477401044,-267.612842188788
738508.44781464047264307737,-38.8660847804193,-41.3217566454054,-267.677465132603
738508.44781473092734813690,-38.8660847804193,-41.3125247962889,-267.686696981719
738508.44781482138205319643,-38.9030121768853,-41.3586840418714,-267.649769585253
738508.44781491183675825596,-38.8568529313028,-41.3032929471725,-267.695928830836
738508.44781500217504799366,-38.8199255348369,-41.275597399823,-267.723624378185
738508.44781509262975305319,-38.9214758751183,-41.3679158909879,-267.63130588702
738508.44781518308445811272,-38.9399395733512,-41.3956114383373,-267.612842188788
738508.44781527353916317225,-38.9307077242347,-41.3771477401044,-267.622074037904
738508.44781536399386823177,-38.9307077242347,-41.3771477401044,-267.622074037904
738508.44781545433215796947,-38.9307077242347,-41.3863795892209,-267.622074037904
738508.44781554478686302900,-38.9307077242347,-41.3679158909879,-267.63130588702
738508.44781563524156808853,-38.8660847804193,-41.3217566454054,-267.686696981719
738508.44781572569627314806,-38.8845484786523,-41.3125247962889,-267.677465132603
738508.44781581615097820759,-38.9307077242347,-41.3771477401044,-267.640537736137
738508.44781590648926794529,-38.8937803277688,-41.3032929471725,-267.640537736137
738508.44781599694397300482,-38.9584032715842,-41.2848292489395,-267.520523697623
738508.44781608739867806435,-38.9768669698172,-41.2109744560076,-267.446668904691
738508.44781617785338312387,-38.9399395733512,-41.4417706839198,-267.455900753807
738508.44781626830808818340,-38.8106936857204,-41.6817987609485,-267.695928830836
738508.44781635876279324293,-38.7829981383709,-41.5156254768517,-267.751319925535
738508.44781644910108298063,-38.8568529313028,-41.4233069856868,-267.705160679952
738508.44781653955578804016,-38.8937803277688,-41.3771477401044,-267.668233283486
738508.44781663001049309969,-38.8568529313028,-41.294061098056,-267.695928830836
738508.44781672046519815922,-38.9122440260018,-41.3494521927549,-267.640537736137
738508.44781681091990321875,-38.9307077242347,-41.3586840418714,-267.63130588702
738508.44781690125819295645,-38.9030121768853,-41.3309884945219,-267.649769585253
738508.44781699171289801598,-38.9122440260018,-41.3402203436384,-267.640537736137
738508.44781708216760307550,-38.9030121768853,-41.3125247962889,-267.65900143437
738508.44781717262230813503,-38.8753166295358,-41.3032929471725,-267.677465132603
738508.44781726307701319456,-38.8476210821863,-41.25713370159,-267.705160679952
738508.44781735341530293226,-38.8568529313028,-41.2848292489395,-267.686696981719
738508.44781744387000799179,-38.9214758751183,-41.3309884945219,-267.63130588702
738508.44781753432471305132,-38.8845484786523,-41.3032929471725,-267.65900143437
738508.44781762477941811085,-38.8753166295358,-41.275597399823,-267.677465132603
738508.44781771523412317038,-38.9491714224677,-41.3494521927549,-267.603610339671
738508.44781780557241290808,-38.9214758751183,-41.3217566454054,-267.622074037904
738508.44781789602711796761,-38.9030121768853,-41.294061098056,-267.640537736137
738508.44781798648182302713,-38.8937803277688,-41.294061098056,-267.640537736137
738508.44781807693652808666,-38.9307077242347,-41.3125247962889,-267.612842188788
738508.44781816739123314619,-38.8753166295358,-41.2663655507065,-267.668233283486
738508.44781825772952288389,-38.8476210821863,-41.2294381542405,-267.686696981719
738508.44781834818422794342,-38.9122440260018,-41.3032929471725,-267.622074037904
738508.44781843863893300295,-38.9030121768853,-41.275597399823,-267.63130588702
738508.44781852909363806248,-38.8568529313028,-41.2479018524735,-267.677465132603
738508.44781861954834312201,-38.8753166295358,-41.25713370159,-267.649769585253
738508.44781871000304818153,-38.8937803277688,-41.294061098056,-267.63130588702
738508.44781880034133791924,-38.8476210821863,-41.238670003357,-267.686696981719
738508.44781889079604297876,-38.8753166295358,-41.294061098056,-267.65900143437
738508.44781898125074803829,-38.8937803277688,-41.3032929471725,-267.640537736137
738508.44781907170545309782,-38.8476210821863,-41.294061098056,-267.65900143437
738508.44781916216015815735,-38.8476210821863,-41.294061098056,-267.686696981719
738508.44781925249844789505,-38.8568529313028,-41.294061098056,-267.686696981719
738508.44781934295315295458,-38.8568529313028,-41.3032929471725,-267.695928830836
738508.44781943340785801411,-38.8476210821863,-41.2848292489395,-267.705160679952
738508.44781952386256307364,-38.8476210821863,-41.3032929471725,-267.705160679952
738508.44781961431726813316,-38.9214758751183,-41.3679158909879,-267.63130588702
738508.44781970465555787086,-38.9214758751183,-41.3863795892209,-267.622074037904
738508.44781979511026293039,-38.9307077242347,-41.3863795892209,-267.612842188788
738508.44781988556496798992,-38.8937803277688,-41.3679158909879,-267.649769585253
738508.44781997601967304945,-38.8476210821863,-41.294061098056,-267.705160679952
738508.44782006647437810898,-38.8291573839534,-41.294061098056,-267.723624378185
738508.44782015681266784668,-38.8568529313028,-41.3032929471725,-267.695928830836
738508.44782024726737290621,-38.8937803277688,-41.3586840418714,-267.649769585253
738508.44782033772207796574,-38.8383892330699,-41.2848292489395,-267.714392529069
738508.44782042817678302526,-38.8106936857204,-41.275597399823,-267.742088076418
738508.44782051863148808479,-38.9030121768853,-41.3402203436384,-267.649769585253
738508.44782060896977782249,-38.9307077242347,-41.3863795892209,-267.612842188788
738508.44782069942448288202,-38.9307077242347,-41.3679158909879,-267.622074037904
738508.44782078987918794155,-38.9399395733512,-41.3956114383373,-267.603610339671
738508.44782088033389300108,-38.9491714224677,-41.3956114383373,-267.594378490555
738508.44782097078859806061,-38.9307077242347,-41.3863795892209,-267.575914792322
738508.44782106112688779831,-38.9214758751183,-41.3771477401044,-267.63130588702
738508.44782115158159285784,-38.9214758751183,-41.3679158909879,-267.63130588702
738508.44782124203629791737,-38.9122440260018,-41.3771477401044,-267.640537736137
738508.44782133249100297689,-38.8753166295358,-41.3217566454054,-267.677465132603
738508.44782142294570803642,-38.8568529313028,-41.3217566454054,-267.686696981719
738508.44782151340041309595,-38.8568529313028,-41.3032929471725,-267.686696981719
738508.44782160373870283365,-38.8753166295358,-41.3402203436384,-267.677465132603
738508.44782169419340789318,-38.8568529313028,-41.3125247962889,-267.686696981719
738508.44782178464811295271,-38.8291573839534,-41.294061098056,-267.714392529069
738508.44782187510281801224,-38.9122440260018,-41.3679158909879,-267.640537736137
738508.44782196555752307177,-38.8383892330699,-41.3217566454054,-267.705160679952
738508.44782205589581280947,-38.8199255348369,-41.2848292489395,-267.723624378185
738508.44782214635051786900,-38.9122440260018,-41.3863795892209,-267.622074037904
738508.44782223680522292852,-38.8660847804193,-41.3217566454054,-267.677465132603
738508.44782232725992798805,-38.8845484786523,-41.3586840418714,-267.65900143437
738508.44782241771463304758,-38.8568529313028,-41.3309884945219,-267.686696981719
738508.44782250805292278528,-38.8014618366039,-41.275597399823,-267.742088076418
738508.44782259850762784481,-38.8199255348369,-41.2848292489395,-267.723624378185
738508.44782268896233290434,-38.8660847804193,-41.3309884945219,-267.677465132603
738508.44782277941703796387,-38.8660847804193,-41.3402203436384,-267.686696981719
738508.44782286987174302340,-38.8383892330699,-41.294061098056,-267.714392529069
738508.44782296021003276110,-38.8199255348369,-41.294061098056,-267.723624378185
738508.44782305066473782063,-38.8291573839534,-41.2848292489395,-267.723624378185
738508.44782314111944288015,-38.8753166295358,-41.3494521927549,-267.677465132603
738508.44782323157414793968,-39.0599536118656,-41.5248573259682,-267.483596301157
738508.44782332202885299921,-39.0414899136326,-41.4786980803858,-267.529755546739
738508.44782341236714273691,-38.8753166295358,-41.3217566454054,-267.677465132603
738508.44782350282184779644,-38.8383892330699,-41.238670003357,-267.668233283486
738508.44782359327655285597,-38.9768669698172,-41.25713370159,-267.455900753807
738508.44782368373125791550,-38.9122440260018,-41.2294381542405,-267.483596301157
738508.44782377418596297503,-38.7737662892544,-41.4510025330363,-267.65900143437
738508.44782386464066803455,-38.6814477980895,-41.5617847224342,-267.8436384167
738508.44782395497895777225,-38.8660847804193,-41.5248573259682,-267.677465132603
738508.44782404543366283178,-38.8291573839534,-41.3863795892209,-267.732856227302
738508.44782413588836789131,-38.8660847804193,-41.3309884945219,-267.677465132603
738508.44782422634307295084,-38.9122440260018,-41.3771477401044,-267.63130588702
738508.44782431679777801037,-38.8845484786523,-41.3309884945219,-267.65900143437
738508.44782440713606774807,-38.8753166295358,-41.3309884945219,-267.668233283486
738508.44782449759077280760,-38.9030121768853,-41.3402203436384,-267.640537736137
738508.44782458804547786713,-38.9030121768853,-41.3494521927549,-267.594378490555
738508.44782467850018292665,-38.9214758751183,-41.3586840418714,-267.622074037904
738508.44782476895488798618,-38.9307077242347,-41.3679158909879,-267.612842188788
738508.44782485929317772388,-38.9584032715842,-41.3956114383373,-267.585146641438
738508.44782494974788278341,-38.9214758751183,-41.3586840418714,-267.612842188788
738508.44782504020258784294,-38.9399395733512,-41.3679158909879,-267.603610339671
738508.44782513065729290247,-38.9122440260018,-41.3402203436384,-267.622074037904
738508.44782522111199796200,-38.8845484786523,-41.3217566454054,-267.649769585253
738508.44782531145028769970,-38.9307077242347,-41.3494521927549,-267.612842188788
738508.44782540190499275923,-38.9584032715842,-41.3771477401044,-267.585146641438
738508.44782549235969781876,-38.9676351207007,-41.3771477401044,-267.566682943205
738508.44782558281440287828,-38.9030121768853,-41.3217566454054,-267.63130588702
738508.44782567326910793781,-38.9584032715842,-41.3494521927549,-267.575914792322
738508.44782576360739767551,-38.9491714224677,-41.3586840418714,-267.585146641438
738508.44782585406210273504,-38.9030121768853,-41.294061098056,-267.63130588702
738508.44782594451680779457,-38.9122440260018,-41.3309884945219,-267.603610339671
738508.44782603497151285410,-38.9122440260018,-41.3032929471725,-267.612842188788
738508.44782612542621791363,-38.9030121768853,-41.3125247962889,-267.612842188788
738508.44782621576450765133,-38.8845484786523,-41.275597399823,-267.640537736137
738508.44782630621921271086,-38.8753166295358,-41.294061098056,-267.640537736137
738508.44782639667391777039,-38.8753166295358,-41.2848292489395,-267.640537736137
738508.44782648712862282991,-38.8753166295358,-41.3032929471725,-267.640537736137
738508.44782657758332788944,-38.9768669698172,-41.4233069856868,-267.538987395856
738508.44782666803803294897,-38.8753166295358,-41.3125247962889,-267.649769585253
738508.44782675837632268667,-38.8937803277688,-41.3586840418714,-267.63130588702
738508.44782684883102774620,-38.9768669698172,-41.4233069856868,-267.557451094089
738508.44782693928573280573,-38.8845484786523,-41.3586840418714,-267.649769585253
738508.44782702974043786526,-38.8383892330699,-41.294061098056,-267.695928830836
738508.44782712019514292479,-38.8476210821863,-41.3309884945219,-267.686696981719
738508.44782721053343266249,-38.9214758751183,-41.3771477401044,-267.622074037904
738508.44782730098813772202,-38.8291573839534,-41.3217566454054,-267.705160679952
738508.44782739144284278154,-38.8199255348369,-41.275597399823,-267.723624378185
738508.44782748189754784107,-38.9030121768853,-41.3863795892209,-267.63130588702
738508.44782757235225290060,-38.8660847804193,-41.3217566454054,-267.677465132603
738508.44782766269054263830,-38.8383892330699,-41.3125247962889,-267.695928830836
738508.44782775314524769783,-38.8568529313028,-41.3217566454054,-267.686696981719
738508.44782784359995275736,-38.8568529313028,-41.3309884945219,-267.686696981719
738508.44782793405465781689,-38.8476210821863,-41.3125247962889,-267.686696981719
738508.44782802450936287642,-38.8476210821863,-41.3217566454054,-267.686696981719
738508.44782811484765261412,-38.9214758751183,-41.3863795892209,-267.612842188788
738508.44782820530235767365,-38.8383892330699,-41.3125247962889,-267.695928830836
738508.44782829575706273317,-38.8753166295358,-41.3402203436384,-267.705160679952
738508.44782838621176779270,-38.9214758751183,-41.3771477401044,-267.622074037904
738508.44782847666647285223,-38.9491714224677,-41.4325388348033,-267.585146641438
738508.44782856700476258993,-38.9214758751183,-41.3956114383373,-267.622074037904
738508.44782865745946764946,-38.9030121768853,-41.4048432874538,-267.63130588702
738508.44782874791417270899,-38.9399395733512,-41.4233069856868,-267.594378490555
738508.44782883836887776852,-38.9307077242347,-41.4325388348033,-267.603610339671
738508.44782892882358282804,-38.9030121768853,-41.3956114383373,-267.63130588702
738508.44782901916187256575,-38.8845484786523,-41.3956114383373,-267.640537736137
738508.44782910961657762527,-38.8937803277688,-41.3771477401044,-267.63130588702
738508.44782920007128268480,-38.8937803277688,-41.3956114383373,-267.63130588702
738508.44782929052598774433,-38.9122440260018,-41.4048432874538,-267.622074037904
738508.44782938098069280386,-38.9030121768853,-41.4140751365703,-267.612842188788
738508.44782947143539786339,-38.8753166295358,-41.3863795892209,-267.640537736137
738508.44782956177368760109,-38.8753166295358,-41.3863795892209,-267.63130588702
738508.44782965222839266062,-38.8937803277688,-41.3956114383373,-267.622074037904
738508.44782974268309772015,-38.8845484786523,-41.3863795892209,-267.640537736137
738508.44782983313780277967,-38.9030121768853,-41.4140751365703,-267.612842188788
738508.44782992359250783920,-38.8660847804193,-41.3586840418714,-267.65900143437
738508.44783001393079757690,-38.8753166295358,-41.3771477401044,-267.649769585253
738508.44783010438550263643,-38.8568529313028,-41.3402203436384,-267.677465132603
738508.44783019484020769596,-38.8476210821863,-41.3494521927549,-267.677465132603
738508.44783028529491275549,-38.8753166295358,-41.3679158909879,-267.649769585253
738508.44783037574961781502,-39.0045625171667,-41.5063936277352,-267.520523697623
738508.44783046608790755272,-38.8568529313028,-41.3402203436384,-267.677465132603
738508.44783055654261261225,-38.8476210821863,-41.3402203436384,-267.677465132603
738508.44783064699731767178,-38.9214758751183,-41.4048432874538,-267.612842188788
738508.44783073745202273130,-38.8568529313028,-41.3402203436384,-267.677465132603
738508.44783082790672779083,-38.8845484786523,-41.3494521927549,-267.65900143437
738508.44783091824501752853,-38.8568529313028,-41.3217566454054,-267.677465132603
738508.44783100869972258806,-38.8568529313028,-41.294061098056,-267.63130588702
738508.44783109915442764759,-38.9491714224677,-41.25713370159,-267.47436445204
738508.44783118960913270712,-38.8937803277688,-41.238670003357,-267.492828150273
738508.44783128006383776665,-38.7645344401379,-41.4417706839198,-267.649769585253
738508.44783137040212750435,-38.6537522507401,-41.5802484206671,-267.8436384167
738508.44783146085683256388,-38.7645344401379,-41.4510025330363,-267.760551774651
738508.44783155131153762341,-38.7922299874874,-41.3771477401044,-267.751319925535
738508.44783164176624268293,-38.8660847804193,-41.3402203436384,-267.668233283486
738508.44783173222094774246,-38.9030121768853,-41.3863795892209,-267.622074037904
738508.44783182267565280199,-38.8660847804193,-41.3217566454054,-267.668233283486
738508.44783191301394253969,-38.8291573839534,-41.3032929471725,-267.705160679952
738508.44783200346864759922,-38.9307077242347,-41.3863795892209,-267.649769585253
738508.44783209392335265875,-38.8753166295358,-41.3309884945219,-267.65900143437
738508.44783218437805771828,-38.8383892330699,-41.294061098056,-267.695928830836
738508.44783227483276277781,-38.8753166295358,-41.3309884945219,-267.649769585253
738508.44783236517105251551,-38.9122440260018,-41.3679158909879,-267.612842188788
738508.44783245562575757504,-38.8660847804193,-41.3125247962889,-267.668233283486
738508.44783254608046263456,-38.8568529313028,-41.3125247962889,-267.668233283486
738508.44783263653516769409,-38.9491714224677,-41.3863795892209,-267.575914792322
738508.44783272698987275362,-38.9584032715842,-41.4140751365703,-267.566682943205
738508.44783281732816249132,-38.9399395733512,-41.3679158909879,-267.585146641438
738508.44783290778286755085,-38.9214758751183,-41.3679158909879,-267.594378490555
738508.44783299823757261038,-38.9491714224677,-41.3679158909879,-267.575914792322
738508.44783308869227766991,-38.9307077242347,-41.3679158909879,-267.585146641438
738508.44783317914698272943,-39.0045625171667,-41.4140751365703,-267.520523697623
738508.44783326948527246714,-38.9491714224677,-41.3771477401044,-267.557451094089
738508.44783335993997752666,-38.9860988189337,-41.3956114383373,-267.529755546739
738508.44783345039468258619,-38.9676351207007,-41.3863795892209,-267.548219244972
738508.44783354084938764572,-38.9584032715842,-41.3679158909879,-267.548219244972
738508.44783363130409270525,-38.9584032715842,-41.3771477401044,-267.548219244972
738508.44783372164238244295,-38.9030121768853,-41.3217566454054,-267.603610339671
738508.44783381209708750248,-39.0599536118656,-41.4971617786187,-267.437437055574
738508.44783390255179256201,-39.0414899136326,-41.4786980803858,-267.465132602924
738508.44783399300649762154,-38.8845484786523,-41.3125247962889,-267.63130588702
738508.44783408346120268106,-38.9307077242347,-41.3863795892209,-267.575914792322
738508.44783417379949241877,-38.9214758751183,-41.3679158909879,-267.594378490555
738508.44783426425419747829,-38.9030121768853,-41.3771477401044,-267.622074037904
738508.44783435470890253782,-38.9122440260018,-41.3679158909879,-267.622074037904
738508.44783444516360759735,-38.9214758751183,-41.4048432874538,-267.612842188788
738508.44783453561831265688,-38.8753166295358,-41.3402203436384,-267.65900143437
738508.44783462607301771641,-38.8937803277688,-41.3863795892209,-267.640537736137
738508.44783471641130745411,-38.9030121768853,-41.3771477401044,-267.622074037904
738508.44783480686601251364,-38.9030121768853,-41.3956114383373,-267.622074037904
738508.44783489732071757317,-38.8845484786523,-41.3679158909879,-267.649769585253
738508.44783498777542263269,-38.8845484786523,-41.3679158909879,-267.649769585253
738508.44783507823012769222,-38.8476210821863,-41.3217566454054,-267.677465132603
738508.44783516856841742992,-38.8568529313028,-41.3402203436384,-267.668233283486
738508.44783525902312248945,-38.9307077242347,-41.3956114383373,-267.603610339671
738508.44783534947782754898,-38.8476210821863,-41.3217566454054,-267.677465132603
738508.44783543993253260851,-38.8660847804193,-41.3402203436384,-267.668233283486
738508.44783553038723766804,-38.8660847804193,-41.3494521927549,-267.65900143437
738508.44783562072552740574,-38.8568529313028,-41.3309884945219,-267.677465132603
738508.44783571118023246527,-38.8291573839534,-41.3032929471725,-267.668233283486
738508.44783580163493752480,-38.8383892330699,-41.3217566454054,-267.686696981719
738508.44783589208964258432,-38.8660847804193,-41.3309884945219,-267.65900143437
738508.44783598254434764385,-38.8476210821863,-41.3309884945219,-267.677465132603
738508.44783607288263738155,-38.8753166295358,-41.3402203436384,-267.65900143437
738508.44783616333734244108,-38.9122440260018,-41.4048432874538,-267.603610339671
738508.44783625379204750061,-38.9399395733512,-41.4140751365703,-267.594378490555
738508.44783634424675256014,-38.9307077242347,-41.4140751365703,-267.594378490555
738508.44783643470145761967,-38.9307077242347,-41.4140751365703,-267.594378490555
738508.44783652503974735737,-38.9214758751183,-41.4140751365703,-267.603610339671
738508.44783661549445241690,-38.8753166295358,-41.3494521927549,-267.65900143437
738508.44783670594915747643,-38.8476210821863,-41.3309884945219,-267.677465132603
738508.44783679640386253595,-38.8660847804193,-41.3494521927549,-267.65900143437
738508.44783688685856759548,-38.8291573839534,-41.3309884945219,-267.686696981719
738508.44783697731327265501,-38.8199255348369,-41.3217566454054,-267.705160679952
738508.44783706765156239271,-38.8660847804193,-41.3494521927549,-267.65900143437
738508.44783715810626745224,-38.8660847804193,-41.3679158909879,-267.649769585253
738508.44783724856097251177,-38.8660847804193,-41.3586840418714,-267.649769585253
738508.44783733901567757130,-39.0414899136326,-41.5433210242012,-267.47436445204
738508.44783742947038263083,-38.9676351207007,-41.4602343821528,-267.548219244972
738508.44783751980867236853,-38.9030121768853,-41.4048432874538,-267.612842188788
738508.44783761026337742805,-38.9122440260018,-41.3956114383373,-267.622074037904
738508.44783770071808248758,-38.9122440260018,-41.4048432874538,-267.612842188788
738508.44783779117278754711,-38.9122440260018,-41.3956114383373,-267.622074037904
738508.44783788162749260664,-38.9122440260018,-41.4048432874538,-267.612842188788
738508.44783797196578234434,-38.9214758751183,-41.4140751365703,-267.603610339671
738508.44783806242048740387,-38.8568529313028,-41.3494521927549,-267.668233283486
738508.44783815287519246340,-38.8937803277688,-41.3863795892209,-267.63130588702
738508.44783824332989752293,-38.9030121768853,-41.3771477401044,-267.63130588702
738508.44783833378460258245,-38.9122440260018,-41.3863795892209,-267.63130588702
738508.44783842412289232016,-38.9122440260018,-41.3771477401044,-267.622074037904
738508.44783851457759737968,-38.9584032715842,-41.4048432874538,-267.529755546739
738508.44783860503230243921,-38.9122440260018,-41.2294381542405,-267.511291848506
738508.44783869548700749874,-38.9307077242347,-41.275597399823,-267.455900753807
738508.44783878594171255827,-38.8199255348369,-41.4879299295022,-267.594378490555
738508.44783887628000229597,-38.672215948973,-41.5987121189001,-267.834406567583
738508.44783896673470735550,-38.8199255348369,-41.5156254768517,-267.705160679952
738508.44783905718941241503,-38.8476210821863,-41.4417706839198,-267.686696981719
738508.44783914764411747456,-38.8845484786523,-41.3679158909879,-267.649769585253
738508.44783923809882253408,-38.9307077242347,-41.4233069856868,-267.594378490555
738508.44783932843711227179,-38.9399395733512,-41.4048432874538,-267.594378490555
738508.44783941889181733131,-38.9307077242347,-41.4140751365703,-267.594378490555
738508.44783950934652239084,-38.9584032715842,-41.4325388348033,-267.566682943205
738508.44783959980122745037,-38.9399395733512,-41.3956114383373,-267.594378490555
738508.44783969025593250990,-38.9307077242347,-41.4048432874538,-267.594378490555
738508.44783978071063756943,-38.8937803277688,-41.3494521927549,-267.640537736137
738508.44783987104892730713,-38.9307077242347,-41.3956114383373,-267.594378490555
738508.44783996150363236666,-38.8937803277688,-41.3402203436384,-267.640537736137
738508.44784005195833742619,-38.8476210821863,-41.3125247962889,-267.686696981719
738508.44784014241304248571,-38.9214758751183,-41.3586840418714,-267.612842188788
738508.44784023286774754524,-38.8753166295358,-41.3309884945219,-267.649769585253
738508.44784032320603728294,-38.8845484786523,-41.3125247962889,-267.649769585253
738508.44784041366074234247,-38.8660847804193,-41.3125247962889,-267.65900143437
738508.44784050411544740200,-38.9214758751183,-41.3402203436384,-267.603610339671
738508.44784059457015246153,-38.8568529313028,-41.294061098056,-267.668233283486
738508.44784068502485752106,-38.8753166295358,-41.2848292489395,-267.65900143437
738508.44784077536314725876,-38.9122440260018,-41.3402203436384,-267.603610339671
738508.44784086581785231829,-39.0599536118656,-41.4786980803858,-267.446668904691
738508.44784095627255737782,-38.9676351207007,-41.3956114383373,-267.538987395856
738508.44784104672726243734,-38.8568529313028,-41.2663655507065,-267.65900143437
738508.44784113718196749687,-38.8476210821863,-41.275597399823,-267.65900143437
738508.44784122752025723457,-38.9399395733512,-41.3586840418714,-267.575914792322
738508.44784131797496229410,-38.9030121768853,-41.3402203436384,-267.640537736137
738508.44784140842966735363,-38.8937803277688,-41.3402203436384,-267.612842188788
738508.44784149888437241316,-38.8568529313028,-41.3032929471725,-267.649769585253
738508.44784158933907747269,-38.8845484786523,-41.3586840418714,-267.622074037904
738508.44784167967736721039,-38.8937803277688,-41.3494521927549,-267.622074037904
738508.44784177013207226992,-38.8660847804193,-41.3586840418714,-267.649769585253
738508.44784186058677732944,-38.9122440260018,-41.3771477401044,-267.622074037904
738508.44784195104148238897,-38.9030121768853,-41.3956114383373,-267.622074037904
738508.44784204149618744850,-38.9030121768853,-41.3863795892209,-267.63130588702
738508.44784213195089250803,-38.8568529313028,-41.3586840418714,-267.668233283486
738508.44784222228918224573,-38.9030121768853,-41.3956114383373,-267.622074037904
738508.44784231274388730526,-38.8937803277688,-41.3956114383373,-267.63130588702
738508.44784240319859236479,-38.8660847804193,-41.3586840418714,-267.65900143437
738508.44784249365329742432,-38.8937803277688,-41.3956114383373,-267.63130588702
738508.44784258410800248384,-38.8937803277688,-41.3771477401044,-267.640537736137
738508.44784267444629222155,-38.8106936857204,-41.3125247962889,-267.714392529069
738508.44784276490099728107,-38.8568529313028,-41.3494521927549,-267.668233283486
738508.44784285535570234060,-38.8937803277688,-41.3863795892209,-267.63130588702
738508.44784294581040740013,-38.8937803277688,-41.3863795892209,-267.640537736137
738508.44784303626511245966,-38.9030121768853,-41.3863795892209,-267.622074037904
738508.44784312660340219736,-38.8845484786523,-41.3771477401044,-267.640537736137
738508.44784321705810725689,-38.9030121768853,-41.3863795892209,-267.622074037904
738508.44784330751281231642,-38.8937803277688,-41.3956114383373,-267.63130588702
738508.44784339796751737595,-38.9214758751183,-41.3956114383373,-267.612842188788
738508.44784348842222243547,-38.9122440260018,-41.4140751365703,-267.612842188788
738508.44784357876051217318,-38.9214758751183,-41.4048432874538,-267.603610339671
738508.44784366921521723270,-38.9214758751183,-41.4140751365703,-267.603610339671
738508.44784375966992229223,-38.9214758751183,-41.4140751365703,-267.612842188788
738508.44784385012462735176,-38.8753166295358,-41.3679158909879,-267.649769585253
738508.44784394057933241129,-38.9030121768853,-41.3956114383373,-267.63130588702
738508.44784403091762214899,-38.8383892330699,-41.3309884945219,-267.686696981719
738508.44784412137232720852,-38.8476210821863,-41.3402203436384,-267.686696981719
738508.44784421182703226805,-38.9030121768853,-41.3956114383373,-267.622074037904
738508.44784430228173732758,-38.8291573839534,-41.3494521927549,-267.695928830836
738508.44784439273644238710,-38.9676351207007,-41.4694662312693,-267.557451094089
738508.44784448307473212481,-38.9399395733512,-41.4602343821528,-267.575914792322
738508.44784457352943718433,-38.8383892330699,-41.3309884945219,-267.677465132603
738508.44784466398414224386,-38.8476210821863,-41.3586840418714,-267.668233283486
738508.44784475443884730339,-38.8476210821863,-41.3494521927549,-267.668233283486
738508.44784484489355236292,-38.8568529313028,-41.3679158909879,-267.668233283486
738508.44784493534825742245,-38.8383892330699,-41.3217566454054,-267.695928830836
738508.44784502568654716015,-38.8383892330699,-41.3494521927549,-267.714392529069
738508.44784511614125221968,-38.8383892330699,-41.3402203436384,-267.695928830836
738508.44784520659595727921,-38.8383892330699,-41.3309884945219,-267.695928830836
738508.44784529705066233873,-38.8476210821863,-41.3402203436384,-267.686696981719
738508.44784538750536739826,-38.8199255348369,-41.3125247962889,-267.705160679952
738508.44784547784365713596,-38.8753166295358,-41.3679158909879,-267.65900143437
738508.44784556829836219549,-38.8199255348369,-41.3032929471725,-267.714392529069
738508.44784565875306725502,-38.9030121768853,-41.4048432874538,-267.63130588702
738508.44784574920777231455,-38.9030121768853,-41.3771477401044,-267.640537736137
738508.44784583966247737408,-38.8845484786523,-41.3679158909879,-267.65900143437
738508.44784593000076711178,-38.8937803277688,-41.3494521927549,-267.622074037904
738508.44784602045547217131,-38.9307077242347,-41.3217566454054,-267.520523697623
738508.44784611091017723083,-38.9768669698172,-41.25713370159,-267.428205206458
738508.44784620136488229036,-38.8291573839534,-41.3771477401044,-267.548219244972
738508.44784629181958734989,-38.727607043672,-41.654103213599,-267.751319925535
738508.44784638215787708759,-38.746070741905,-41.5340891750847,-267.769783623768
738508.44784647261258214712,-38.8383892330699,-41.4510025330363,-267.705160679952
738508.44784656306728720665,-38.8660847804193,-41.4048432874538,-267.668233283486
738508.44784665352199226618,-38.8845484786523,-41.3586840418714,-267.640537736137
738508.44784674397669732571,-38.8937803277688,-41.3863795892209,-267.640537736137
738508.44784683431498706341,-38.9214758751183,-41.3956114383373,-267.603610339671
738508.44784692476969212294,-38.9122440260018,-41.3863795892209,-267.622074037904
738508.44784701522439718246,-38.8937803277688,-41.3771477401044,-267.640537736137
738508.44784710567910224199,-38.8845484786523,-41.3494521927549,-267.649769585253
738508.44784719613380730152,-38.9030121768853,-41.3771477401044,-267.63130588702
738508.44784728647209703922,-38.8568529313028,-41.3217566454054,-267.668233283486
738508.44784737692680209875,-38.8476210821863,-41.3309884945219,-267.668233283486
738508.44784746738150715828,-38.8568529313028,-41.3125247962889,-267.668233283486
738508.44784755783621221781,-38.8845484786523,-41.3679158909879,-267.63130588702
738508.44784764829091727734,-38.8291573839534,-41.2848292489395,-267.686696981719
738508.44784773874562233686,-38.8660847804193,-41.3309884945219,-267.649769585253
738508.44784782908391207457,-38.9399395733512,-41.3771477401044,-267.585146641438
738508.44784791953861713409,-38.9584032715842,-41.4140751365703,-267.557451094089
738508.44784800999332219362,-38.9307077242347,-41.3586840418714,-267.594378490555
738508.44784810044802725315,-38.8845484786523,-41.3309884945219,-267.63130588702
738508.44784819090273231268,-38.8660847804193,-41.294061098056,-267.649769585253
738508.44784828124102205038,-38.8568529313028,-41.294061098056,-267.65900143437
738508.44784837169572710991,-38.8937803277688,-41.3309884945219,-267.612842188788
738508.44784846215043216944,-38.8568529313028,-41.294061098056,-267.649769585253
738508.44784855260513722897,-38.8383892330699,-41.275597399823,-267.668233283486
738508.44784864305984228849,-38.8937803277688,-41.3309884945219,-267.612842188788
738508.44784873339813202620,-38.9214758751183,-41.3771477401044,-267.594378490555
738508.44784882385283708572,-38.9491714224677,-41.3956114383373,-267.557451094089
738508.44784891430754214525,-38.9122440260018,-41.3956114383373,-267.585146641438
738508.44784900476224720478,-38.9214758751183,-41.3863795892209,-267.594378490555
738508.44784909521695226431,-38.9122440260018,-41.4140751365703,-267.594378490555
738508.44784918555524200201,-38.8568529313028,-41.3494521927549,-267.668233283486
738508.44784927600994706154,-38.8106936857204,-41.3309884945219,-267.705160679952
738508.44784936646465212107,-38.8383892330699,-41.3494521927549,-267.695928830836
738508.44784945691935718060,-38.8106936857204,-41.3494521927549,-267.705160679952
738508.44784954737406224012,-38.8014618366039,-41.3309884945219,-267.723624378185
738508.44784963771235197783,-38.8106936857204,-41.3586840418714,-267.705160679952
738508.44784972816705703735,-38.8476210821863,-41.3863795892209,-267.677465132603
738508.44784981862176209688,-38.7829981383709,-41.3217566454054,-267.732856227302
738508.44784990907646715641,-38.8014618366039,-41.3494521927549,-267.714392529069
738508.44784999953117221594,-38.8753166295358,-41.4233069856868,-267.63130588702
738508.44785008998587727547,-38.8291573839534,-41.3679158909879,-267.695928830836
738508.44785018032416701317,-38.8291573839534,-41.3679158909879,-267.686696981719
738508.44785027077887207270,-38.8937803277688,-41.4325388348033,-267.622074037904
738508.44785036123357713223,-38.8291573839534,-41.3494521927549,-267.686696981719
738508.44785045168828219175,-38.8014618366039,-41.3402203436384,-267.714392529069
738508.44785054214298725128,-38.8568529313028,-41.3863795892209,-267.65900143437
738508.44785063248127698898,-38.8937803277688,-41.4325388348033,-267.622074037904
738508.44785072293598204851,-38.8476210821863,-41.3679158909879,-267.668233283486
738508.44785081339068710804,-38.9030121768853,-41.4417706839198,-267.603610339671
738508.44785090384539216757,-38.8476210821863,-41.3771477401044,-267.668233283486
738508.44785099430009722710,-38.8845484786523,-41.4233069856868,-267.622074037904
738508.44785108463838696480,-38.8845484786523,-41.4233069856868,-267.63130588702
738508.44785117509309202433,-38.8568529313028,-41.4048432874538,-267.649769585253
738508.44785126554779708385,-38.8476210821863,-41.3956114383373,-267.668233283486
738508.44785135600250214338,-38.8106936857204,-41.3586840418714,-267.686696981719
738508.44785144645720720291,-38.9030121768853,-41.4602343821528,-267.603610339671
738508.44785153679549694061,-39.0230262153996,-41.5710165715506,-267.492828150273
738508.44785162725020200014,-38.8845484786523,-41.4417706839198,-267.63130588702
738508.44785171770490705967,-38.8014618366039,-41.3494521927549,-267.705160679952
738508.44785180815961211920,-38.8568529313028,-41.4417706839198,-267.640537736137
738508.44785189861431717873,-38.8199255348369,-41.3771477401044,-267.686696981719
738508.44785198895260691643,-38.8106936857204,-41.3956114383373,-267.686696981719
738508.44785207940731197596,-38.8291573839534,-41.3863795892209,-267.668233283486
738508.44785216986201703548,-38.8199255348369,-41.4048432874538,-267.677465132603
738508.44785226031672209501,-38.7829981383709,-41.3494521927549,-267.723624378185
738508.44785235077142715454,-38.8014618366039,-41.3771477401044,-267.705160679952
738508.44785244110971689224,-38.8753166295358,-41.4233069856868,-267.649769585253
738508.44785253156442195177,-38.8291573839534,-41.3956114383373,-267.677465132603
738508.44785262201912701130,-38.8014618366039,-41.3586840418714,-267.714392529069
738508.44785271247383207083,-38.8199255348369,-41.3771477401044,-267.686696981719
738508.44785280292853713036,-38.8383892330699,-41.4048432874538,-267.668233283486
738508.44785289338324218988,-38.8383892330699,-41.3863795892209,-267.677465132603
738508.44785298372153192759,-38.8383892330699,-41.4048432874538,-267.668233283486
738508.44785307417623698711,-38.8568529313028,-41.4048432874538,-267.649769585253
738508.44785316463094204664,-38.8476210821863,-41.4048432874538,-267.668233283486
738508.44785325508564710617,-38.8568529313028,-41.3956114383373,-267.65900143437
738508.44785334554035216570,-38.8753166295358,-41.4325388348033,-267.640537736137
738508.44785343587864190340,-38.8476210821863,-41.3586840418714,-267.640537736137
738508.44785352633334696293,-38.8753166295358,-41.3217566454054,-267.548219244972
738508.44785361678805202246,-38.9491714224677,-41.3032929471725,-267.437437055574
738508.44785370724275708199,-38.7922299874874,-41.4233069856868,-267.566682943205
738508.44785379769746214151,-38.6445204016236,-41.6356395153661,-267.81594286935
738508.44785388803575187922,-38.727607043672,-41.5894802697836,-267.760551774651
738508.44785397849045693874,-38.7922299874874,-41.4786980803858,-267.723624378185
738508.44785406894516199827,-38.8106936857204,-41.4325388348033,-267.695928830836
738508.44785415939986705780,-38.8753166295358,-41.4325388348033,-267.63130588702
738508.44785424985457211733,-38.8568529313028,-41.4233069856868,-267.649769585253
738508.44785434019286185503,-38.8937803277688,-41.4417706839198,-267.649769585253
738508.44785443064756691456,-38.8845484786523,-41.4325388348033,-267.612842188788
738508.44785452110227197409,-38.8845484786523,-41.4510025330363,-267.622074037904
738508.44785461155697703362,-38.8753166295358,-41.4233069856868,-267.622074037904
738508.44785470201168209314,-38.8660847804193,-41.4325388348033,-267.63130588702
738508.44785479234997183084,-38.8660847804193,-41.4048432874538,-267.640537736137
738508.44785488280467689037,-38.8291573839534,-41.3956114383373,-267.668233283486
738508.44785497325938194990,-38.9768669698172,-41.5248573259682,-267.520523697623
738508.44785506371408700943,-38.9307077242347,-41.4879299295022,-267.566682943205
738508.44785515416879206896,-38.8660847804193,-41.4048432874538,-267.63130588702
738508.44785524462349712849,-38.8660847804193,-41.4140751365703,-267.63130588702
738508.44785533496178686619,-38.9214758751183,-41.4510025330363,-267.575914792322
738508.44785542541649192572,-38.8568529313028,-41.3956114383373,-267.63130588702
738508.44785551587119698524,-38.8291573839534,-41.3586840418714,-267.668233283486
738508.44785560632590204477,-38.8199255348369,-41.3494521927549,-267.668233283486
738508.44785569678060710430,-38.9030121768853,-41.4233069856868,-267.585146641438
738508.44785578711889684200,-38.8383892330699,-41.3586840418714,-267.649769585253
738508.44785587757360190153,-38.7829981383709,-41.3125247962889,-267.695928830836
738508.44785596802830696106,-38.8291573839534,-41.3402203436384,-267.649769585253
738508.44785605848301202059,-38.8660847804193,-41.3863795892209,-267.622074037904
738508.44785614893771708012,-38.8199255348369,-41.3402203436384,-267.65900143437
738508.44785623927600681782,-38.8014618366039,-41.3402203436384,-267.668233283486
738508.44785632973071187735,-38.9030121768853,-41.4325388348033,-267.575914792322
738508.44785642018541693687,-38.8383892330699,-41.3863795892209,-267.640537736137
738508.44785651064012199640,-38.8014618366039,-41.3494521927549,-267.686696981719
738508.44785660109482705593,-38.7922299874874,-41.3586840418714,-267.686696981719
738508.44785669143311679363,-38.8660847804193,-41.4325388348033,-267.622074037904
738508.44785678188782185316,-38.8014618366039,-41.3771477401044,-267.686696981719
738508.44785687234252691269,-38.8014618366039,-41.3771477401044,-267.695928830836
738508.44785696279723197222,-38.8660847804193,-41.4417706839198,-267.622074037904
738508.44785705325193703175,-38.8014618366039,-41.3863795892209,-267.695928830836
738508.44785714359022676945,-38.7645344401379,-41.3494521927549,-267.723624378185
738508.44785723404493182898,-38.8568529313028,-41.4417706839198,-267.640537736137
738508.44785732449963688850,-38.8106936857204,-41.4048432874538,-267.677465132603
738508.44785741495434194803,-38.7922299874874,-41.3863795892209,-267.695928830836
738508.44785750540904700756,-38.8014618366039,-41.3863795892209,-267.686696981719
738508.44785759574733674526,-38.8106936857204,-41.4140751365703,-267.677465132603
738508.44785768620204180479,-38.8014618366039,-41.3863795892209,-267.686696981719
738508.44785777665674686432,-38.7737662892544,-41.3771477401044,-267.705160679952
738508.44785786711145192385,-38.8845484786523,-41.4602343821528,-267.612842188788
738508.44785795756615698338,-38.7737662892544,-41.3679158909879,-267.714392529069
738508.44785804802086204290,-38.8660847804193,-41.4417706839198,-267.686696981719
738508.44785813835915178061,-38.8937803277688,-41.4879299295022,-267.594378490555
738508.44785822881385684013,-38.8937803277688,-41.4879299295022,-267.594378490555
738508.44785831926856189966,-38.9214758751183,-41.5063936277352,-267.566682943205
738508.44785840972326695919,-38.8476210821863,-41.4417706839198,-267.640537736137
738508.44785850017797201872,-38.9399395733512,-41.5340891750847,-267.538987395856
738508.44785859051626175642,-38.9584032715842,-41.5617847224342,-267.529755546739
738508.44785868097096681595,-38.8660847804193,-41.4510025330363,-267.622074037904
738508.44785877142567187548,-38.9030121768853,-41.5063936277352,-267.585146641438
738508.44785886188037693501,-38.8383892330699,-41.4325388348033,-267.65900143437
738508.44785895233508199453,-38.8291573839534,-41.4325388348033,-267.65900143437
738508.44785904267337173223,-38.8291573839534,-41.4140751365703,-267.65900143437
738508.44785913312807679176,-38.8291573839534,-41.4325388348033,-267.65900143437
738508.44785922358278185129,-38.8660847804193,-41.4602343821528,-267.63130588702
738508.44785931403748691082,-38.8383892330699,-41.4510025330363,-267.640537736137
738508.44785940449219197035,-38.8199255348369,-41.4140751365703,-267.65900143437
