time_dn,ecg_projection_ll_ra_mV,ecg_projection_la_ra_mV,ecg_projection_vx_rl_mV
738508.43172394298017024994,-39.0045625171667,-42.8542435987426,-272.995010223701
738508.43172403343487530947,-38.9953306680502,-42.7988525040437,-273.013473921934
738508.43172412377316504717,-39.0137943662832,-42.7711569566942,-272.985778374584
738508.43172421422787010670,-39.0599536118656,-42.8173162022767,-272.948850978118
738508.43172430468257516623,-39.0507217627491,-42.7988525040437,-272.967314676351
738508.43172439502086490393,-39.0230262153996,-42.7711569566942,-272.976546525468
738508.43172448547556996346,-39.0507217627491,-42.7711569566942,-272.948850978118
738508.43172457593027502298,-39.0599536118656,-42.7803888058107,-272.930387279885
738508.43172466638498008251,-39.0230262153996,-42.7249977111118,-272.967314676351
738508.43172475672326982021,-39.0137943662832,-42.7249977111118,-272.976546525468
738508.43172484717797487974,-38.9953306680502,-42.6603747672964,-273.004242072817
738508.43172493763267993927,-39.0230262153996,-42.6973021637623,-272.967314676351
738508.43172502797096967697,-39.0507217627491,-42.7157658619953,-272.958082827235
738508.43172511842567473650,-38.9860988189337,-42.6419110690634,-273.013473921934
738508.43172520888037979603,-39.0230262153996,-42.6603747672964,-272.976546525468
738508.43172529921866953373,-39.1891994994964,-42.8080843531602,-272.810373241371
738508.43172538967337459326,-39.124576555681,-42.7434614093448,-272.884228034303
738508.43172548012807965279,-39.0414899136326,-42.6142155217139,-272.967314676351
738508.43172557058278471231,-39.0414899136326,-42.6049836725974,-272.967314676351
738508.43172566092107445002,-39.0691854609821,-42.5865199743644,-272.939619129002
738508.43172575137577950954,-39.0599536118656,-42.5865199743644,-272.967314676351
738508.43172584183048456907,-39.0784173100986,-42.577288125248,-272.921155430769
738508.43172593216877430677,-39.1338084047975,-42.5957518234809,-272.819605090487
738508.43172602262347936630,-39.1984313486129,-42.4665059358501,-272.699591051973
738508.43172611307818442583,-39.1522721030305,-42.5126651814325,-272.690359202857
738508.43172620341647416353,-39.0322580645161,-42.7619251075777,-272.764213995788
738508.43172629387117922306,-38.9307077242347,-42.8542435987426,-273.013473921934
738508.43172638432588428259,-38.9953306680502,-42.7434614093448,-272.985778374584
738508.43172647478058934212,-39.0968810083316,-42.6696066164128,-272.911923581652
738508.43172656511887907982,-39.161503952147,-42.6880703146458,-272.83806878872
738508.43172665557358413935,-39.1707358012635,-42.6511429181799,-272.83806878872
738508.43172674602828919888,-39.161503952147,-42.6603747672964,-272.83806878872
738508.43172683636657893658,-39.1891994994964,-42.6696066164128,-272.810373241371
738508.43172692682128399611,-39.161503952147,-42.6511429181799,-272.828836939604
738508.43172701727598905563,-39.1338084047975,-42.5957518234809,-272.86576433607
738508.43172710761427879333,-39.161503952147,-42.6511429181799,-272.828836939604
738508.43172719806898385286,-39.1153447065645,-42.577288125248,-272.874996185186
738508.43172728852368891239,-39.1153447065645,-42.6049836725974,-272.884228034303
738508.43172737897839397192,-39.1522721030305,-42.6142155217139,-272.83806878872
738508.43172746931668370962,-39.124576555681,-42.6142155217139,-272.86576433607
738508.43172755977138876915,-39.124576555681,-42.5865199743644,-272.874996185186
738508.43172765022609382868,-39.1522721030305,-42.6419110690634,-272.83806878872
738508.43172774056438356638,-39.1707358012635,-42.6419110690634,-272.819605090487
738508.43172783101908862591,-39.106112857448,-42.5957518234809,-272.884228034303
738508.43172792147379368544,-39.106112857448,-42.577288125248,-272.874996185186
738508.43172801192849874496,-39.1522721030305,-42.6419110690634,-272.819605090487
738508.43172810226678848267,-39.1522721030305,-42.6326792199469,-272.828836939604
738508.43172819272149354219,-39.1522721030305,-42.6142155217139,-272.828836939604
738508.43172828317619860172,-39.124576555681,-42.6049836725974,-272.847300637837
738508.43172837351448833942,-39.1338084047975,-42.5957518234809,-272.83806878872
738508.43172846396919339895,-39.1522721030305,-42.6326792199469,-272.819605090487
738508.43172855442389845848,-39.1338084047975,-42.6142155217139,-272.828836939604
738508.43172864476218819618,-39.106112857448,-42.6142155217139,-272.856532486953
738508.43172873521689325571,-39.0599536118656,-42.558824427015,-272.911923581652
738508.43172882567159831524,-39.161503952147,-42.6973021637623,-272.801141392254
738508.43172891612630337477,-39.17996765038,-42.7065340128788,-272.791909543138
738508.43172900646459311247,-39.0414899136326,-42.6049836725974,-272.930387279885
738508.43172909691929817200,-39.0230262153996,-42.577288125248,-272.958082827235
738508.43172918737400323153,-39.0876491592151,-42.6788384655293,-272.884228034303
738508.43172927771229296923,-39.0137943662832,-42.5865199743644,-272.976546525468
738508.43172936816699802876,-38.9953306680502,-42.5957518234809,-272.976546525468
738508.43172945862170308828,-39.0784173100986,-42.6696066164128,-272.911923581652
738508.43172954895999282598,-39.0322580645161,-42.6326792199469,-272.948850978118
738508.43172963941469788551,-39.0599536118656,-42.6511429181799,-272.930387279885
738508.43172972986940294504,-39.0507217627491,-42.6511429181799,-272.939619129002
738508.43172982032410800457,-39.0876491592151,-42.6880703146458,-272.902691732536
738508.43172991066239774227,-39.0507217627491,-42.6419110690634,-272.930387279885
738508.43173000111710280180,-39.0414899136326,-42.6603747672964,-272.939619129002
738508.43173009157180786133,-39.0599536118656,-42.6603747672964,-272.930387279885
738508.43173018191009759903,-39.0876491592151,-42.6973021637623,-272.902691732536
738508.43173027236480265856,-39.0507217627491,-42.6511429181799,-272.939619129002
738508.43173036281950771809,-39.0414899136326,-42.6788384655293,-272.948850978118
738508.43173045315779745579,-39.0968810083316,-42.7249977111118,-272.893459883419
738508.43173054361250251532,-39.0230262153996,-42.6696066164128,-272.967314676351
738508.43173063406720757484,-39.0322580645161,-42.6696066164128,-272.958082827235
738508.43173072452191263437,-39.0599536118656,-42.7065340128788,-272.930387279885
738508.43173081486020237207,-39.0322580645161,-42.6788384655293,-272.958082827235
738508.43173090531490743160,-39.0230262153996,-42.6788384655293,-272.967314676351
738508.43173099576961249113,-39.0507217627491,-42.7157658619953,-272.930387279885
738508.43173108610790222883,-39.0876491592151,-42.7434614093448,-272.902691732536
738508.43173117656260728836,-39.0876491592151,-42.7342295602283,-272.911923581652
738508.43173126701731234789,-39.0876491592151,-42.7249977111118,-272.911923581652
738508.43173135735560208559,-39.0968810083316,-42.7526932584613,-272.893459883419
738508.43173144781030714512,-39.0784173100986,-42.7249977111118,-272.921155430769
738508.43173153826501220465,-39.0414899136326,-42.7157658619953,-272.958082827235
738508.43173162871971726418,-39.0507217627491,-42.7157658619953,-272.939619129002
738508.43173171905800700188,-39.0322580645161,-42.7342295602283,-272.958082827235
738508.43173180951271206141,-39.0230262153996,-42.6973021637623,-272.976546525468
738508.43173189996741712093,-39.0137943662832,-42.7065340128788,-272.967314676351
738508.43173199030570685863,-39.0507217627491,-42.7434614093448,-272.939619129002
738508.43173208076041191816,-39.0230262153996,-42.7065340128788,-272.967314676351
738508.43173217121511697769,-39.0137943662832,-42.6880703146458,-272.985778374584
738508.43173226166982203722,-39.0230262153996,-42.6973021637623,-272.967314676351
738508.43173235200811177492,-39.161503952147,-42.8450117496261,-272.83806878872
738508.43173244246281683445,-39.1153447065645,-42.7896206549272,-272.884228034303
738508.43173253291752189398,-39.0230262153996,-42.7157658619953,-272.985778374584
738508.43173262325581163168,-39.0230262153996,-42.7157658619953,-272.976546525468
738508.43173271371051669121,-39.0230262153996,-42.7249977111118,-272.976546525468
738508.43173280416522175074,-39.0322580645161,-42.7065340128788,-272.967314676351
738508.43173289450351148844,-39.0230262153996,-42.7157658619953,-272.985778374584
738508.43173298495821654797,-39.0876491592151,-42.7342295602283,-272.930387279885
738508.43173307541292160749,-39.0230262153996,-42.7065340128788,-272.985778374584
738508.43173316586762666702,-39.0414899136326,-42.6696066164128,-272.939619129002
738508.43173325620591640472,-39.0968810083316,-42.6696066164128,-272.810373241371
738508.43173334666062146425,-39.124576555681,-42.558824427015,-272.745750297555
738508.43173343711532652378,-38.9768669698172,-42.7434614093448,-272.86576433607
738508.43173352745361626148,-38.8476210821863,-42.9465620899075,-273.105792413099
738508.43173361790832132101,-38.9953306680502,-42.9650257881405,-272.976546525468
738508.43173370836302638054,-38.9768669698172,-42.7434614093448,-273.041169469283
738508.43173379870131611824,-38.9953306680502,-42.7249977111118,-273.013473921934
738508.43173388915602117777,-39.0230262153996,-42.7065340128788,-272.976546525468
738508.43173397961072623730,-39.1153447065645,-42.7896206549272,-272.884228034303
738508.43173407006543129683,-39.0137943662832,-42.7065340128788,-272.985778374584
738508.43173416040372103453,-39.0414899136326,-42.6973021637623,-272.958082827235
738508.43173425085842609406,-39.0322580645161,-42.7065340128788,-272.958082827235
738508.43173434131313115358,-39.0599536118656,-42.6788384655293,-272.948850978118
738508.43173443165142089128,-39.0230262153996,-42.6880703146458,-272.967314676351
738508.43173452210612595081,-39.0322580645161,-42.6696066164128,-272.967314676351
738508.43173461256083101034,-39.0507217627491,-42.7157658619953,-272.930387279885
738508.43173470289912074804,-39.0507217627491,-42.6788384655293,-272.948850978118
738508.43173479335382580757,-39.0322580645161,-42.7065340128788,-272.958082827235
738508.43173488380853086710,-39.0691854609821,-42.7157658619953,-272.921155430769
738508.43173497426323592663,-39.0230262153996,-42.6973021637623,-272.958082827235
738508.43173506460152566433,-39.0507217627491,-42.6788384655293,-272.948850978118
738508.43173515505623072386,-39.0784173100986,-42.7249977111118,-272.902691732536
738508.43173524551093578339,-39.0414899136326,-42.6603747672964,-272.948850978118
738508.43173533584922552109,-39.0414899136326,-42.6696066164128,-272.939619129002
738508.43173542630393058062,-39.0507217627491,-42.6603747672964,-272.939619129002
738508.43173551675863564014,-39.0507217627491,-42.6696066164128,-272.921155430769
738508.43173560709692537785,-39.0876491592151,-42.6973021637623,-272.930387279885
738508.43173569755163043737,-39.0968810083316,-42.6973021637623,-272.884228034303
738508.43173578800633549690,-39.106112857448,-42.7434614093448,-272.86576433607
738508.43173587846104055643,-39.143040253914,-42.7434614093448,-272.83806878872
738508.43173596879933029413,-39.1984313486129,-42.8450117496261,-272.773445844905
738508.43173605925403535366,-39.106112857448,-42.7249977111118,-272.874996185186
738508.43173614970874041319,-39.106112857448,-42.7619251075777,-272.86576433607
738508.43173624004703015089,-39.0414899136326,-42.6973021637623,-272.939619129002
738508.43173633050173521042,-39.0230262153996,-42.7065340128788,-272.948850978118
738508.43173642095644026995,-39.0876491592151,-42.7526932584613,-272.902691732536
738508.43173651141114532948,-39.0230262153996,-42.7157658619953,-272.958082827235
738508.43173660174943506718,-39.0230262153996,-42.7157658619953,-272.967314676351
738508.43173669220414012671,-39.0137943662832,-42.7157658619953,-272.976546525468
738508.43173678265884518623,-39.0137943662832,-42.7157658619953,-272.985778374584
738508.43173687299713492393,-39.0137943662832,-42.7249977111118,-272.976546525468
738508.43173696345183998346,-39.0599536118656,-42.7803888058107,-272.930387279885
738508.43173705390654504299,-39.0230262153996,-42.7342295602283,-272.967314676351
738508.43173714424483478069,-39.0876491592151,-42.8173162022767,-272.911923581652
738508.43173723469953984022,-39.0045625171667,-42.7157658619953,-272.985778374584
738508.43173732515424489975,-38.9953306680502,-42.7249977111118,-272.995010223701
738508.43173741560894995928,-39.0414899136326,-42.7434614093448,-272.958082827235
738508.43173750594723969698,-39.0599536118656,-42.7988525040437,-272.930387279885
738508.43173759640194475651,-39.0045625171667,-42.7157658619953,-272.995010223701
738508.43173768685664981604,-38.9953306680502,-42.7342295602283,-272.985778374584
738508.43173777719493955374,-39.0322580645161,-42.7619251075777,-272.967314676351
738508.43173786764964461327,-38.9953306680502,-42.7434614093448,-272.995010223701
738508.43173795810434967279,-39.0045625171667,-42.7434614093448,-272.995010223701
738508.43173804844263941050,-39.0137943662832,-42.7619251075777,-272.976546525468
738508.43173813889734447002,-38.9953306680502,-42.7342295602283,-273.004242072817
738508.43173822935204952955,-39.0045625171667,-42.7342295602283,-272.995010223701
738508.43173831980675458908,-39.0137943662832,-42.7619251075777,-272.985778374584
738508.43173841014504432678,-38.9860988189337,-42.7342295602283,-273.013473921934
738508.43173850059974938631,-38.9860988189337,-42.7434614093448,-273.004242072817
738508.43173859105445444584,-39.0137943662832,-42.7342295602283,-272.976546525468
738508.43173868139274418354,-38.9860988189337,-42.7619251075777,-273.004242072817
738508.43173877184744924307,-38.9860988189337,-42.7342295602283,-273.004242072817
738508.43173886230215430260,-38.9768669698172,-42.7619251075777,-273.013473921934
738508.43173895264044404030,-39.0507217627491,-42.7896206549272,-272.939619129002
738508.43173904309514909983,-38.9676351207007,-42.7619251075777,-273.013473921934
738508.43173913354985415936,-38.9860988189337,-42.7434614093448,-273.004242072817
738508.43173922400455921888,-38.9953306680502,-42.7988525040437,-272.985778374584
738508.43173931434284895658,-38.9953306680502,-42.7526932584613,-273.004242072817
738508.43173940479755401611,-39.0045625171667,-42.7896206549272,-272.985778374584
738508.43173949525225907564,-39.0968810083316,-42.8911709952086,-272.902691732536
738508.43173958559054881334,-39.0414899136326,-42.8173162022767,-272.958082827235
738508.43173967604525387287,-38.9768669698172,-42.7803888058107,-273.02270577105
738508.43173976649995893240,-39.0045625171667,-42.7619251075777,-272.995010223701
738508.43173985683824867010,-38.9768669698172,-42.7711569566942,-273.02270577105
738508.43173994729295372963,-39.0414899136326,-42.7896206549272,-272.958082827235
738508.43174003774765878916,-38.9768669698172,-42.7619251075777,-273.02270577105
738508.43174012820236384869,-39.0230262153996,-42.7711569566942,-272.985778374584
738508.43174021854065358639,-39.0414899136326,-42.8357799005097,-272.958082827235
738508.43174030899535864592,-39.124576555681,-42.8727072969756,-272.856532486953
738508.43174039945006370544,-39.0137943662832,-42.7342295602283,-272.902691732536
738508.43174048978835344315,-39.0599536118656,-42.6419110690634,-272.828836939604
738508.43174058024305850267,-38.9584032715842,-42.7434614093448,-272.874996185186
738508.43174067069776356220,-38.8199255348369,-42.974257637257,-273.105792413099
738508.43174076115246862173,-38.8476210821863,-42.99272133549,-273.124256111332
738508.43174085149075835943,-38.8845484786523,-42.8080843531602,-273.124256111332
738508.43174094194546341896,-38.8845484786523,-42.7526932584613,-273.115024262215
738508.43174103240016847849,-38.9399395733512,-42.7342295602283,-273.059633167516
738508.43174112273845821619,-38.9768669698172,-42.8080843531602,-273.004242072817
738508.43174121319316327572,-38.9399395733512,-42.7619251075777,-273.059633167516
738508.43174130364786833525,-38.9584032715842,-42.7526932584613,-273.041169469283
738508.43174139398615807295,-38.9676351207007,-42.7988525040437,-273.02270577105
738508.43174148444086313248,-38.9953306680502,-42.7803888058107,-273.004242072817
738508.43174157489556819201,-38.9030121768853,-42.7249977111118,-273.078096865749
738508.43174166535027325153,-38.9676351207007,-42.7619251075777,-273.031937620167
738508.43174175568856298923,-39.0230262153996,-42.8542435987426,-272.967314676351
738508.43174184614326804876,-38.9768669698172,-42.7619251075777,-273.02270577105
738508.43174193659797310829,-38.9491714224677,-42.7711569566942,-273.031937620167
738508.43174202693626284599,-38.9676351207007,-42.7711569566942,-273.02270577105
738508.43174211739096790552,-38.9953306680502,-42.8080843531602,-272.995010223701
738508.43174220784567296505,-38.9768669698172,-42.7526932584613,-273.004242072817
738508.43174229818396270275,-38.9584032715842,-42.7711569566942,-273.02270577105
738508.43174238863866776228,-39.0230262153996,-42.8080843531602,-272.967314676351
738508.43174247909337282181,-38.9491714224677,-42.7342295602283,-273.02270577105
738508.43174256954807788134,-38.9584032715842,-42.7434614093448,-273.031937620167
738508.43174265988636761904,-38.9768669698172,-42.7803888058107,-272.995010223701
738508.43174275034107267857,-38.9491714224677,-42.7434614093448,-273.02270577105
738508.43174284079577773809,-38.9491714224677,-42.7619251075777,-273.02270577105
738508.43174293113406747580,-39.1153447065645,-42.9280983916745,-272.856532486953
738508.43174302158877253532,-39.0322580645161,-42.8357799005097,-272.939619129002
738508.43174311204347759485,-38.9491714224677,-42.7803888058107,-273.013473921934
738508.43174320238176733255,-38.9491714224677,-42.7711569566942,-273.02270577105
738508.43174329283647239208,-38.9676351207007,-42.8173162022767,-272.995010223701
738508.43174338329117745161,-38.9953306680502,-42.8450117496261,-272.985778374584
738508.43174347374588251114,-38.9214758751183,-42.7988525040437,-273.0504013184
738508.43174356408417224884,-38.9307077242347,-42.8080843531602,-273.059633167516
738508.43174365453887730837,-38.9768669698172,-42.8634754478591,-273.004242072817
738508.43174374499358236790,-38.9307077242347,-42.7988525040437,-273.059633167516
738508.43174383533187210560,-38.9307077242347,-42.8080843531602,-273.059633167516
738508.43174392578657716513,-38.9399395733512,-42.8265480513932,-273.059633167516
738508.43174401624128222466,-38.9491714224677,-42.8542435987426,-273.041169469283
738508.43174410657957196236,-38.9214758751183,-42.8265480513932,-273.078096865749
738508.43174419703427702188,-38.9122440260018,-42.8265480513932,-273.078096865749
738508.43174428748898208141,-38.9214758751183,-42.8357799005097,-273.078096865749
738508.43174437794368714094,-38.9584032715842,-42.8450117496261,-273.041169469283
738508.43174446828197687864,-38.9307077242347,-42.8450117496261,-273.068865016633
738508.43174455873668193817,-38.9584032715842,-42.8265480513932,-273.041169469283
738508.43174464919138699770,-38.9953306680502,-42.9004028443251,-272.995010223701
738508.43174473952967673540,-38.9399395733512,-42.8173162022767,-273.0504013184
738508.43174482998438179493,-38.9214758751183,-42.8357799005097,-273.068865016633
738508.43174492043908685446,-38.9214758751183,-42.8265480513932,-273.068865016633
738508.43174501089379191399,-38.9399395733512,-42.8819391460921,-273.031937620167
738508.43174510123208165169,-38.9122440260018,-42.8265480513932,-273.087328714866
738508.43174519168678671122,-38.9214758751183,-42.8080843531602,-273.068865016633
738508.43174528214149177074,-38.9214758751183,-42.8450117496261,-273.068865016633
738508.43174537247978150845,-38.9491714224677,-42.8450117496261,-273.041169469283
738508.43174546293448656797,-38.9676351207007,-42.8819391460921,-273.02270577105
738508.43174555338919162750,-38.9584032715842,-42.9096346934416,-273.041169469283
738508.43174564372748136520,-38.9953306680502,-42.9465620899075,-272.995010223701
738508.43174573418218642473,-38.9768669698172,-42.8727072969756,-273.013473921934
738508.43174582463689148426,-38.9676351207007,-42.9004028443251,-273.02270577105
738508.43174591509159654379,-39.0230262153996,-42.9188665425581,-272.976546525468
738508.43174600542988628149,-38.9214758751183,-42.8450117496261,-273.059633167516
738508.43174609588459134102,-38.9307077242347,-42.8080843531602,-273.059633167516
738508.43174618633929640055,-38.9491714224677,-42.8634754478591,-273.031937620167
738508.43174627667758613825,-38.9491714224677,-42.8173162022767,-273.0504013184
738508.43174636713229119778,-38.9214758751183,-42.8265480513932,-273.068865016633
738508.43174645758699625731,-39.0876491592151,-42.955793939024,-272.921155430769
738508.43174654792528599501,-39.0137943662832,-42.9096346934416,-272.985778374584
738508.43174663837999105453,-38.9307077242347,-42.8080843531602,-273.078096865749
738508.43174672883469611406,-38.9214758751183,-42.8265480513932,-273.078096865749
738508.43174681928940117359,-38.9584032715842,-42.8357799005097,-273.059633167516
738508.43174690962769091129,-38.9584032715842,-42.8173162022767,-273.059633167516
738508.43174700008239597082,-38.9214758751183,-42.8265480513932,-273.078096865749
738508.43174709053710103035,-38.9399395733512,-42.8080843531602,-273.078096865749
738508.43174718087539076805,-38.9676351207007,-42.8542435987426,-273.041169469283
738508.43174727133009582758,-38.9584032715842,-42.8080843531602,-273.059633167516
738508.43174736178480088711,-38.9307077242347,-42.8173162022767,-273.087328714866
738508.43174745212309062481,-38.9491714224677,-42.7988525040437,-273.059633167516
738508.43174754257779568434,-38.9584032715842,-42.7896206549272,-272.995010223701
738508.43174763303250074387,-39.0045625171667,-42.7157658619953,-272.902691732536
738508.43174772348720580339,-38.9399395733512,-42.7711569566942,-272.921155430769
738508.43174781382549554110,-38.8199255348369,-42.9650257881405,-273.105792413099
738508.43174790428020060062,-38.7829981383709,-43.0665761284219,-273.198110904263
738508.43174799473490566015,-38.8660847804193,-42.9004028443251,-273.151951658681
738508.43174808507319539785,-38.9122440260018,-42.8634754478591,-273.105792413099
738508.43174817552790045738,-38.9307077242347,-42.7988525040437,-273.087328714866
738508.43174826598260551691,-38.9953306680502,-42.8727072969756,-273.004242072817
738508.43174835632089525461,-38.9399395733512,-42.7896206549272,-273.078096865749
738508.43174844677560031414,-38.9307077242347,-42.7803888058107,-273.078096865749
738508.43174853723030537367,-38.9860988189337,-42.8265480513932,-273.031937620167
738508.43174862768501043320,-38.9491714224677,-42.7988525040437,-273.059633167516
738508.43174871802330017090,-38.9491714224677,-42.7988525040437,-273.068865016633
738508.43174880847800523043,-38.9953306680502,-42.8080843531602,-273.02270577105
738508.43174889893271028996,-39.0230262153996,-42.8819391460921,-272.976546525468
738508.43174898927100002766,-39.0137943662832,-42.8265480513932,-273.013473921934
738508.43174907972570508718,-38.9953306680502,-42.8357799005097,-273.013473921934
738508.43174917018041014671,-39.0137943662832,-42.8357799005097,-273.004242072817
738508.43174926063511520624,-38.9953306680502,-42.8357799005097,-273.013473921934
738508.43174935097340494394,-38.9860988189337,-42.8080843531602,-273.031937620167
738508.43174944142811000347,-38.9491714224677,-42.7896206549272,-273.059633167516
738508.43174953188281506300,-38.9676351207007,-42.7988525040437,-273.0504013184
738508.43174962222110480070,-38.9491714224677,-42.7803888058107,-273.059633167516
738508.43174971267580986023,-38.9491714224677,-42.7711569566942,-273.068865016633
738508.43174980313051491976,-39.0137943662832,-42.8357799005097,-272.995010223701
738508.43174989346880465746,-38.9676351207007,-42.7988525040437,-273.041169469283
738508.43174998392350971699,-39.143040253914,-42.9465620899075,-272.856532486953
738508.43175007437821477652,-39.0322580645161,-42.8634754478591,-272.976546525468
738508.43175016483291983604,-38.9676351207007,-42.7803888058107,-273.041169469283
738508.43175025517120957375,-38.9768669698172,-42.8173162022767,-273.02270577105
738508.43175034562591463327,-38.9584032715842,-42.7803888058107,-273.041169469283
738508.43175043608061969280,-38.9307077242347,-42.8080843531602,-273.059633167516
738508.43175052641890943050,-39.0045625171667,-42.8542435987426,-272.995010223701
738508.43175061687361449003,-38.9307077242347,-42.8173162022767,-273.059633167516
738508.43175070732831954956,-38.9399395733512,-42.8080843531602,-273.078096865749
738508.43175079766660928726,-38.9399395733512,-42.8265480513932,-273.068865016633
738508.43175088812131434679,-38.9399395733512,-42.8357799005097,-273.068865016633
738508.43175097857601940632,-38.9307077242347,-42.8265480513932,-273.078096865749
738508.43175106903072446585,-38.9214758751183,-42.8357799005097,-273.096560563982
738508.43175115936901420355,-38.9307077242347,-42.8357799005097,-273.078096865749
738508.43175124982371926308,-38.9122440260018,-42.8265480513932,-273.105792413099
738508.43175134027842432261,-38.9307077242347,-42.8265480513932,-273.087328714866
738508.43175143061671406031,-38.9491714224677,-42.8727072969756,-273.068865016633
738508.43175152107141911983,-38.9307077242347,-42.8173162022767,-273.096560563982
738508.43175161152612417936,-38.9122440260018,-42.8357799005097,-273.105792413099
738508.43175170186441391706,-38.9214758751183,-42.8080843531602,-273.096560563982
738508.43175179231911897659,-38.9122440260018,-42.9096346934416,-273.105792413099
738508.43175188277382403612,-38.9122440260018,-42.8357799005097,-273.115024262215
738508.43175197322852909565,-38.8937803277688,-42.8542435987426,-273.115024262215
738508.43175206356681883335,-38.9399395733512,-42.8542435987426,-273.087328714866
738508.43175215402152389288,-38.9122440260018,-42.8542435987426,-273.105792413099
738508.43175224447622895241,-38.9214758751183,-42.8265480513932,-273.105792413099
738508.43175233481451869011,-38.9122440260018,-42.8542435987426,-273.096560563982
738508.43175242526922374964,-38.9491714224677,-42.8542435987426,-273.087328714866
738508.43175251572392880917,-38.9491714224677,-42.8911709952086,-273.096560563982
738508.43175260606221854687,-38.9860988189337,-42.9188665425581,-273.031937620167
738508.43175269651692360640,-38.9768669698172,-42.8911709952086,-273.041169469283
738508.43175278697162866592,-38.9122440260018,-42.8542435987426,-273.096560563982
738508.43175287742633372545,-38.9307077242347,-42.8450117496261,-273.087328714866
738508.43175296776462346315,-38.9307077242347,-42.8819391460921,-273.087328714866
738508.43175305821932852268,-38.9399395733512,-42.8634754478591,-273.078096865749
738508.43175314867403358221,-38.9399395733512,-42.8911709952086,-273.068865016633
738508.43175323901232331991,-38.9030121768853,-42.8265480513932,-273.105792413099
738508.43175332946702837944,-38.9214758751183,-42.8727072969756,-273.078096865749
738508.43175341992173343897,-38.9399395733512,-42.8542435987426,-273.068865016633
738508.43175351037643849850,-38.9768669698172,-42.9188665425581,-273.02270577105
738508.43175360071472823620,-39.0230262153996,-42.9280983916745,-272.985778374584
738508.43175369116943329573,-38.9491714224677,-42.8727072969756,-273.0504013184
738508.43175378162413835526,-38.9584032715842,-42.8542435987426,-273.0504013184
738508.43175387196242809296,-38.9584032715842,-42.8634754478591,-273.0504013184
738508.43175396241713315248,-38.9768669698172,-42.8450117496261,-273.0504013184
738508.43175405287183821201,-38.9584032715842,-42.8634754478591,-273.0504013184
738508.43175414321012794971,-38.9676351207007,-42.8727072969756,-273.0504013184
738508.43175423366483300924,-38.9676351207007,-42.8819391460921,-273.0504013184
738508.43175432411953806877,-38.9584032715842,-42.8819391460921,-273.068865016633
738508.43175441457424312830,-38.9584032715842,-42.8634754478591,-273.068865016633
738508.43175450491253286600,-38.9676351207007,-42.9004028443251,-273.059633167516
738508.43175459536723792553,-38.9307077242347,-42.8265480513932,-273.096560563982
738508.43175468582194298506,-38.9214758751183,-42.8080843531602,-273.0504013184
738508.43175477616023272276,-39.0137943662832,-42.7619251075777,-272.902691732536
738508.43175486661493778229,-38.9399395733512,-42.7896206549272,-272.930387279885
738508.43175495706964284182,-38.8014618366039,-42.974257637257,-273.115024262215
738508.43175504740793257952,-38.727607043672,-43.0758079775384,-273.253501998962
738508.43175513786263763905,-38.9030121768853,-42.99272133549,-273.115024262215
738508.43175522831734269857,-38.8845484786523,-42.8819391460921,-273.133487960448
738508.43175531877204775810,-38.9214758751183,-42.8265480513932,-273.096560563982
738508.43175540911033749580,-38.9214758751183,-42.8173162022767,-273.087328714866
738508.43175549956504255533,-38.9768669698172,-42.8727072969756,-273.031937620167
738508.43175559001974761486,-38.9307077242347,-42.8080843531602,-273.068865016633
738508.43175568035803735256,-38.9214758751183,-42.7988525040437,-273.078096865749
738508.43175577081274241209,-38.9860988189337,-42.8265480513932,-273.02270577105
738508.43175586126744747162,-38.9399395733512,-42.7988525040437,-273.059633167516
738508.43175595160573720932,-38.9399395733512,-42.7803888058107,-273.059633167516
738508.43175604206044226885,-38.9399395733512,-42.7988525040437,-273.059633167516
738508.43175613251514732838,-39.0137943662832,-42.8357799005097,-272.985778374584
738508.43175622296985238791,-38.9491714224677,-42.7988525040437,-273.0504013184
738508.43175631330814212561,-38.9584032715842,-42.7803888058107,-273.041169469283
738508.43175640376284718513,-38.9584032715842,-42.7803888058107,-273.041169469283
738508.43175649421755224466,-39.0322580645161,-42.8357799005097,-272.976546525468
738508.43175658455584198236,-38.9768669698172,-42.7711569566942,-273.02270577105
738508.43175667501054704189,-38.9768669698172,-42.7619251075777,-273.02270577105
738508.43175676546525210142,-39.0230262153996,-42.7988525040437,-272.967314676351
738508.43175685580354183912,-38.9768669698172,-42.7526932584613,-273.02270577105
738508.43175694625824689865,-38.9953306680502,-42.7434614093448,-272.995010223701
738508.43175703671295195818,-39.0691854609821,-42.8357799005097,-272.921155430769
738508.43175712716765701771,-39.106112857448,-42.8450117496261,-272.884228034303
738508.43175721750594675541,-38.9860988189337,-42.7434614093448,-272.995010223701
738508.43175730796065181494,-39.0137943662832,-42.7342295602283,-272.967314676351
738508.43175739841535687447,-39.0322580645161,-42.7803888058107,-272.948850978118
738508.43175748875364661217,-39.0414899136326,-42.7711569566942,-272.948850978118
738508.43175757920835167170,-39.0230262153996,-42.7988525040437,-272.948850978118
738508.43175766966305673122,-39.0045625171667,-42.7434614093448,-272.995010223701
738508.43175776011776179075,-38.9584032715842,-42.7988525040437,-273.031937620167
738508.43175785045605152845,-38.9953306680502,-42.7711569566942,-273.004242072817
738508.43175794091075658798,-38.9768669698172,-42.7896206549272,-273.013473921934
738508.43175803136546164751,-38.9860988189337,-42.7619251075777,-273.004242072817
738508.43175812170375138521,-38.9676351207007,-42.7711569566942,-273.013473921934
738508.43175821215845644474,-39.0230262153996,-42.8173162022767,-272.976546525468
738508.43175830261316150427,-39.0137943662832,-42.7803888058107,-272.985778374584
738508.43175839295145124197,-39.0045625171667,-42.8080843531602,-272.985778374584
738508.43175848340615630150,-39.0322580645161,-42.8080843531602,-272.958082827235
738508.43175857386086136103,-39.0507217627491,-42.8542435987426,-272.939619129002
738508.43175866431556642056,-39.0322580645161,-42.8080843531602,-272.958082827235
738508.43175875465385615826,-39.0137943662832,-42.8265480513932,-272.976546525468
738508.43175884510856121778,-39.0507217627491,-42.8357799005097,-272.948850978118
738508.43175893556326627731,-38.9676351207007,-42.7803888058107,-273.013473921934
738508.43175902590155601501,-38.9768669698172,-42.7434614093448,-273.02270577105
738508.43175911635626107454,-38.9676351207007,-42.7803888058107,-273.013473921934
738508.43175920681096613407,-38.9676351207007,-42.7434614093448,-273.041169469283
738508.43175929714925587177,-38.9491714224677,-42.7619251075777,-273.041169469283
738508.43175938760396093130,-38.9491714224677,-42.7526932584613,-273.0504013184
738508.43175947805866599083,-38.9768669698172,-42.8173162022767,-273.013473921934
738508.43175956851337105036,-38.9584032715842,-42.7619251075777,-273.041169469283
738508.43175965885166078806,-38.9491714224677,-42.7711569566942,-273.041169469283
738508.43175974930636584759,-39.0137943662832,-42.7988525040437,-272.985778374584
738508.43175983976107090712,-38.9584032715842,-42.7526932584613,-273.031937620167
738508.43175993009936064482,-38.9676351207007,-42.7526932584613,-273.02270577105
738508.43176002055406570435,-38.9584032715842,-42.7342295602283,-273.02270577105
738508.43176011100877076387,-38.9768669698172,-42.7711569566942,-273.004242072817
738508.43176020134706050158,-38.9768669698172,-42.7526932584613,-273.013473921934
738508.43176029180176556110,-38.9584032715842,-42.7619251075777,-273.02270577105
738508.43176038225647062063,-38.9676351207007,-42.7249977111118,-273.02270577105
738508.43176047271117568016,-38.9860988189337,-42.7619251075777,-272.995010223701
738508.43176056304946541786,-39.0507217627491,-42.7896206549272,-272.958082827235
738508.43176065350417047739,-39.0691854609821,-42.8542435987426,-272.921155430769
738508.43176074395887553692,-38.9860988189337,-42.7434614093448,-273.013473921934
738508.43176083429716527462,-38.9860988189337,-42.7619251075777,-273.004242072817
738508.43176092475187033415,-38.9860988189337,-42.7434614093448,-273.013473921934
738508.43176101520657539368,-38.9768669698172,-42.7434614093448,-273.02270577105
738508.43176110554486513138,-38.9860988189337,-42.7434614093448,-273.02270577105
738508.43176119599957019091,-39.0045625171667,-42.7803888058107,-272.995010223701
738508.43176128645427525043,-38.9953306680502,-42.7434614093448,-273.013473921934
738508.43176137690898030996,-38.9953306680502,-42.7434614093448,-273.02270577105
738508.43176146724727004766,-39.0507217627491,-42.8080843531602,-272.967314676351
738508.43176155770197510719,-38.9953306680502,-42.7434614093448,-273.02270577105
738508.43176164815668016672,-39.0045625171667,-42.7619251075777,-273.02270577105
738508.43176173849496990442,-39.0968810083316,-42.8080843531602,-272.911923581652
738508.43176182894967496395,-39.0599536118656,-42.7434614093448,-272.893459883419
738508.43176191940438002348,-39.106112857448,-42.6603747672964,-272.83806878872
738508.43176200974266976118,-39.0784173100986,-42.6880703146458,-272.801141392254
738508.43176210019737482071,-39.0137943662832,-42.8911709952086,-272.884228034303
738508.43176219065207988024,-38.8291573839534,-43.0204168828394,-273.142719809564
738508.43176228110678493977,-38.9214758751183,-42.9004028443251,-273.105792413099
738508.43176237144507467747,-38.9491714224677,-42.7988525040437,-273.078096865749
738508.43176246189977973700,-38.9953306680502,-42.7896206549272,-273.031937620167
738508.43176255235448479652,-38.9768669698172,-42.7342295602283,-273.031937620167
738508.43176264269277453423,-38.9953306680502,-42.7342295602283,-273.02270577105
738508.43176273314747959375,-39.0414899136326,-42.7896206549272,-272.967314676351
738508.43176282360218465328,-38.9860988189337,-42.7434614093448,-273.02270577105
738508.43176291405688971281,-38.9953306680502,-42.7434614093448,-273.013473921934
738508.43176300439517945051,-39.0230262153996,-42.8080843531602,-272.967314676351
738508.43176309484988451004,-38.9860988189337,-42.7619251075777,-273.013473921934
738508.43176318530458956957,-38.9768669698172,-42.7803888058107,-273.02270577105
738508.43176327564287930727,-38.9953306680502,-42.7988525040437,-273.013473921934
738508.43176336609758436680,-38.9307077242347,-42.8080843531602,-273.059633167516
738508.43176345655228942633,-38.9307077242347,-42.8173162022767,-273.059633167516
738508.43176354689057916403,-38.9030121768853,-42.8542435987426,-273.059633167516
738508.43176363734528422356,-38.9122440260018,-42.8727072969756,-273.068865016633
738508.43176372779998928308,-38.8845484786523,-42.8542435987426,-273.087328714866
738508.43176381825469434261,-38.9030121768853,-42.8450117496261,-273.068865016633
738508.43176390859298408031,-38.9214758751183,-42.8911709952086,-273.031937620167
738508.43176399904768913984,-38.8753166295358,-42.8911709952086,-273.078096865749
738508.43176408950239419937,-38.9122440260018,-42.9188665425581,-273.031937620167
738508.43176417984068393707,-38.9768669698172,-43.0296487319559,-272.967314676351
738508.43176427029538899660,-38.8845484786523,-42.937330240791,-273.059633167516
738508.43176436075009405613,-38.8383892330699,-42.9188665425581,-273.096560563982
738508.43176445108838379383,-38.8476210821863,-42.9096346934416,-273.087328714866
738508.43176454154308885336,-38.8845484786523,-42.9834894863735,-273.0504013184
738508.43176463199779391289,-38.8383892330699,-42.9096346934416,-273.105792413099
738508.43176472245249897242,-38.8383892330699,-42.9096346934416,-273.124256111332
738508.43176481279078871012,-38.9122440260018,-42.9834894863735,-273.068865016633
738508.43176490324549376965,-38.8291573839534,-42.9465620899075,-273.133487960448
738508.43176499370019882917,-38.8291573839534,-42.937330240791,-273.151951658681
738508.43176508403848856688,-38.8476210821863,-42.99272133549,-273.142719809564
738508.43176517449319362640,-38.8476210821863,-42.955793939024,-273.151951658681
738508.43176526494789868593,-38.8199255348369,-42.9650257881405,-273.17964720603
738508.43176535528618842363,-38.8660847804193,-43.0019531846065,-273.142719809564
738508.43176544574089348316,-38.8568529313028,-42.99272133549,-273.161183507797
738508.43176553619559854269,-38.8660847804193,-42.974257637257,-273.161183507797
738508.43176562665030360222,-38.8845484786523,-42.9650257881405,-273.151951658681
738508.43176571698859333992,-38.8845484786523,-42.955793939024,-273.170415356914
738508.43176580744329839945,-38.9030121768853,-42.937330240791,-273.151951658681
738508.43176589789800345898,-38.9122440260018,-42.9280983916745,-273.142719809564
738508.43176598823629319668,-38.9399395733512,-42.9188665425581,-273.124256111332
738508.43176607869099825621,-38.9584032715842,-42.9004028443251,-273.096560563982
738508.43176616914570331573,-39.0045625171667,-42.9188665425581,-273.0504013184
738508.43176625948399305344,-38.9953306680502,-42.9004028443251,-273.0504013184
738508.43176634993869811296,-38.9860988189337,-42.8819391460921,-273.059633167516
738508.43176644039340317249,-39.0045625171667,-42.8727072969756,-273.041169469283
738508.43176653084810823202,-39.0045625171667,-42.8542435987426,-273.041169469283
738508.43176662118639796972,-38.9860988189337,-42.8173162022767,-273.068865016633
738508.43176671164110302925,-39.0045625171667,-42.8357799005097,-273.041169469283
738508.43176680209580808878,-39.0414899136326,-42.8450117496261,-273.013473921934
738508.43176689243409782648,-38.9676351207007,-42.7526932584613,-273.096560563982
738508.43176698288880288601,-39.0137943662832,-42.7896206549272,-273.059633167516
738508.43176707334350794554,-39.0414899136326,-42.8173162022767,-273.013473921934
738508.43176716379821300507,-39.0230262153996,-42.7896206549272,-273.031937620167
738508.43176725413650274277,-39.0230262153996,-42.7896206549272,-273.041169469283
738508.43176734459120780230,-38.9491714224677,-42.7157658619953,-273.115024262215
738508.43176743504591286182,-38.9491714224677,-42.7065340128788,-273.115024262215
738508.43176752538420259953,-38.9953306680502,-42.7619251075777,-273.096560563982
738508.43176761583890765905,-39.0322580645161,-42.8173162022767,-273.02270577105
738508.43176770629361271858,-39.0691854609821,-42.8634754478591,-272.985778374584
738508.43176779663190245628,-38.9676351207007,-42.7619251075777,-273.096560563982
738508.43176788708660751581,-39.0414899136326,-42.8080843531602,-273.031937620167
738508.43176797754131257534,-38.9584032715842,-42.7249977111118,-273.115024262215
738508.43176806799601763487,-38.9768669698172,-42.7342295602283,-273.105792413099
738508.43176815833430737257,-39.0137943662832,-42.7526932584613,-273.078096865749
738508.43176824878901243210,-39.0045625171667,-42.7434614093448,-273.087328714866
738508.43176833924371749163,-38.9768669698172,-42.7157658619953,-273.115024262215
738508.43176842958200722933,-38.9768669698172,-42.7065340128788,-273.124256111332
738508.43176852003671228886,-39.0322580645161,-42.7526932584613,-273.068865016633
738508.43176861049141734838,-38.9676351207007,-42.6973021637623,-273.133487960448
738508.43176870082970708609,-38.9953306680502,-42.7065340128788,-273.124256111332
738508.43176879128441214561,-39.0599536118656,-42.8080843531602,-273.0504013184
738508.43176888173911720514,-39.0137943662832,-42.7434614093448,-273.115024262215
738508.43176897219382226467,-39.0691854609821,-42.7803888058107,-273.013473921934
738508.43176906253211200237,-39.124576555681,-42.6880703146458,-272.902691732536
738508.43176915298681706190,-39.124576555681,-42.6511429181799,-272.856532486953
738508.43176924344152212143,-39.0230262153996,-42.7896206549272,-272.958082827235
738508.43176933377981185913,-38.8476210821863,-43.0388805810724,-273.20734275338
738508.43176942423451691866,-38.9676351207007,-42.9280983916745,-273.216574602496
738508.43176951468922197819,-38.9768669698172,-42.8727072969756,-273.124256111332
738508.43176960502751171589,-38.9676351207007,-42.7896206549272,-273.151951658681
738508.43176969548221677542,-39.0507217627491,-42.7803888058107,-273.059633167516
738508.43176978593692183495,-39.0507217627491,-42.7988525040437,-273.059633167516
738508.43176987639162689447,-39.0322580645161,-42.7896206549272,-273.087328714866
738508.43176996672991663218,-39.0322580645161,-42.7896206549272,-273.078096865749
738508.43177005718462169170,-39.0045625171667,-42.7342295602283,-273.105792413099
738508.43177014763932675123,-39.0691854609821,-42.8080843531602,-273.031937620167
738508.43177023797761648893,-39.0784173100986,-42.8080843531602,-273.013473921934
738508.43177032843232154846,-39.0230262153996,-42.7711569566942,-273.059633167516
738508.43177041888702660799,-39.0230262153996,-42.7434614093448,-273.068865016633
738508.43177050922531634569,-39.0414899136326,-42.7803888058107,-273.041169469283
738508.43177059968002140522,-38.9860988189337,-42.7157658619953,-273.096560563982
738508.43177069013472646475,-39.0230262153996,-42.7526932584613,-273.059633167516
738508.43177078058943152428,-39.0691854609821,-42.7619251075777,-273.02270577105
738508.43177087092772126198,-39.0045625171667,-42.7157658619953,-273.068865016633
738508.43177096138242632151,-39.0968810083316,-42.8080843531602,-272.985778374584
738508.43177105183713138103,-38.9953306680502,-42.7249977111118,-273.068865016633
738508.43177114217542111874,-39.2168950468459,-42.9465620899075,-272.847300637837
738508.43177123263012617826,-39.0876491592151,-42.8357799005097,-272.976546525468
738508.43177132308483123779,-39.0507217627491,-42.8080843531602,-273.004242072817
738508.43177141353953629732,-39.0322580645161,-42.7619251075777,-273.02270577105
738508.43177150387782603502,-38.9953306680502,-42.7434614093448,-273.059633167516
738508.43177159433253109455,-38.9768669698172,-42.7065340128788,-273.068865016633
738508.43177168478723615408,-38.9584032715842,-42.7249977111118,-273.078096865749
738508.43177177512552589178,-39.0137943662832,-42.7619251075777,-273.031937620167
738508.43177186558023095131,-38.9491714224677,-42.7434614093448,-273.087328714866
738508.43177195603493601084,-38.9676351207007,-42.7342295602283,-273.078096865749
738508.43177204637322574854,-38.9860988189337,-42.8080843531602,-273.041169469283
738508.43177213682793080807,-38.9584032715842,-42.7526932584613,-273.087328714866
738508.43177222728263586760,-38.9122440260018,-42.7711569566942,-273.115024262215
738508.43177231773734092712,-38.9399395733512,-42.7896206549272,-273.096560563982
738508.43177240807563066483,-38.9399395733512,-42.8265480513932,-273.078096865749
738508.43177249853033572435,-38.9399395733512,-42.8357799005097,-273.087328714866
738508.43177258898504078388,-38.8845484786523,-42.8542435987426,-273.115024262215
738508.43177267932333052158,-38.9214758751183,-42.8727072969756,-273.096560563982
738508.43177276977803558111,-38.8568529313028,-42.8450117496261,-273.142719809564
738508.43177286023274064064,-38.8660847804193,-42.8634754478591,-273.133487960448
738508.43177295057103037834,-38.8845484786523,-42.8911709952086,-273.096560563982
738508.43177304102573543787,-38.8383892330699,-42.9004028443251,-273.142719809564
738508.43177313148044049740,-38.9030121768853,-42.937330240791,-273.059633167516
738508.43177322193514555693,-38.9122440260018,-42.955793939024,-273.0504013184
738508.43177331227343529463,-38.9122440260018,-42.8911709952086,-273.059633167516
738508.43177340272814035416,-38.8845484786523,-42.9004028443251,-273.059633167516
738508.43177349318284541368,-38.9307077242347,-42.8911709952086,-273.013473921934
738508.43177358352113515139,-38.9491714224677,-42.937330240791,-272.995010223701
738508.43177367397584021091,-38.9307077242347,-42.9280983916745,-273.02270577105
738508.43177376443054527044,-38.9122440260018,-42.9465620899075,-273.031937620167
738508.43177385476883500814,-38.9307077242347,-42.937330240791,-273.02270577105
738508.43177394522354006767,-38.8753166295358,-42.955793939024,-273.041169469283
738508.43177403567824512720,-38.8568529313028,-42.974257637257,-273.059633167516
738508.43177412613295018673,-38.8660847804193,-42.99272133549,-273.031937620167
738508.43177421647123992443,-38.8014618366039,-42.974257637257,-273.096560563982
738508.43177430692594498396,-38.8014618366039,-42.9834894863735,-273.078096865749
738508.43177439738065004349,-38.7829981383709,-42.9650257881405,-273.087328714866
738508.43177448771893978119,-38.8383892330699,-42.9834894863735,-273.013473921934
738508.43177457817364484072,-38.8291573839534,-43.0019531846065,-273.013473921934
738508.43177466862834990025,-38.9676351207007,-43.1219672231208,-272.874996185186
738508.43177475896663963795,-38.8106936857204,-43.1588946195868,-273.013473921934
738508.43177484942134469748,-38.727607043672,-42.9465620899075,-273.068865016633
738508.43177493987604975700,-38.7368388927885,-42.9834894863735,-273.02270577105
738508.43177503033075481653,-38.7553025910215,-42.9834894863735,-273.0504013184
738508.43177512066904455423,-38.8014618366039,-43.0388805810724,-272.921155430769
738508.43177521112374961376,-38.7368388927885,-42.974257637257,-272.976546525468
738508.43177530157845467329,-38.746070741905,-42.9188665425581,-272.948850978118
738508.43177539191674441099,-38.7737662892544,-42.9834894863735,-272.958082827235
738508.43177548237144947052,-38.7553025910215,-42.974257637257,-272.976546525468
738508.43177557282615453005,-38.7553025910215,-42.9280983916745,-273.004242072817
738508.43177566328085958958,-38.8476210821863,-42.9834894863735,-272.939619129002
738508.43177575361914932728,-38.8199255348369,-42.9650257881405,-272.995010223701
738508.43177584407385438681,-38.8199255348369,-42.8727072969756,-273.02270577105
738508.43177593452855944633,-38.8014618366039,-42.9004028443251,-273.068865016633
738508.43177602486684918404,-38.8937803277688,-42.9280983916745,-273.013473921934
738508.43177611532155424356,-38.8291573839534,-42.9280983916745,-273.087328714866
738508.43177620577625930309,-38.8476210821863,-42.8819391460921,-273.0504013184
738508.43177629611454904079,-38.9122440260018,-42.8173162022767,-272.930387279885
738508.43177638656925410032,-39.0230262153996,-42.7896206549272,-272.801141392254
738508.43177647702395915985,-38.8014618366039,-42.9004028443251,-272.985778374584
738508.43177656747866421938,-38.690679647206,-43.0942716757714,-273.17964720603
738508.43177665781695395708,-38.8106936857204,-43.0758079775384,-273.105792413099
738508.43177674827165901661,-38.8845484786523,-42.9188665425581,-273.087328714866
738508.43177683872636407614,-38.8753166295358,-42.8542435987426,-273.087328714866
738508.43177692906465381384,-38.9491714224677,-42.8450117496261,-273.0504013184
738508.43177701951935887337,-38.9860988189337,-42.8911709952086,-272.985778374584
738508.43177710997406393290,-38.8937803277688,-42.8173162022767,-273.087328714866
738508.43177720031235367060,-38.9214758751183,-42.8080843531602,-273.068865016633
738508.43177729076705873013,-38.9307077242347,-42.8542435987426,-273.059633167516
738508.43177738122176378965,-38.9491714224677,-42.8357799005097,-273.041169469283
738508.43177747167646884918,-38.9214758751183,-42.8450117496261,-273.059633167516
738508.43177756201475858688,-38.9214758751183,-42.7711569566942,-273.068865016633
738508.43177765246946364641,-38.9676351207007,-42.8819391460921,-273.02270577105
738508.43177774292416870594,-38.9214758751183,-42.7711569566942,-273.078096865749
738508.43177783326245844364,-38.9030121768853,-42.8173162022767,-273.078096865749
738508.43177792371716350317,-38.9953306680502,-42.8634754478591,-273.004242072817
738508.43177801417186856270,-38.9307077242347,-42.8542435987426,-273.059633167516
738508.43177810451015830040,-38.9584032715842,-42.8265480513932,-273.041169469283
738508.43177819496486335993,-39.0876491592151,-43.0019531846065,-272.902691732536
738508.43177828541956841946,-39.0414899136326,-42.9096346934416,-272.967314676351
738508.43177837587427347898,-38.9860988189337,-42.8727072969756,-273.004242072817
738508.43177846621256321669,-38.9860988189337,-42.8265480513932,-273.02270577105
738508.43177855666726827621,-38.9491714224677,-42.8080843531602,-273.0504013184
738508.43177864712197333574,-38.9953306680502,-42.8450117496261,-273.02270577105
738508.43177873746026307344,-38.9399395733512,-42.7988525040437,-273.0504013184
738508.43177882791496813297,-38.9399395733512,-42.7988525040437,-273.068865016633
738508.43177891836967319250,-38.9307077242347,-42.7711569566942,-273.078096865749
738508.43177900870796293020,-38.9768669698172,-42.8727072969756,-273.013473921934
738508.43177909916266798973,-38.9953306680502,-42.8450117496261,-273.004242072817
738508.43177918961737304926,-38.9768669698172,-42.8819391460921,-273.02270577105
738508.43177928007207810879,-39.0322580645161,-42.8911709952086,-272.976546525468
738508.43177937041036784649,-38.9953306680502,-42.9004028443251,-273.004242072817
738508.43177946086507290602,-39.0137943662832,-42.8911709952086,-273.013473921934
738508.43177955131977796555,-39.0045625171667,-42.9280983916745,-273.004242072817
738508.43177964165806770325,-38.9676351207007,-42.8634754478591,-273.059633167516
738508.43177973211277276278,-38.9584032715842,-42.8727072969756,-273.0504013184
738508.43177982256747782230,-38.9399395733512,-42.8450117496261,-273.087328714866
738508.43177991302218288183,-38.9214758751183,-42.8357799005097,-273.096560563982
738508.43178000336047261953,-38.9860988189337,-42.9096346934416,-273.041169469283
738508.43178009381517767906,-38.8845484786523,-42.8173162022767,-273.124256111332
738508.43178018426988273859,-38.8753166295358,-42.8173162022767,-273.142719809564
738508.43178027460817247629,-38.8845484786523,-42.8357799005097,-273.124256111332
738508.43178036506287753582,-38.9214758751183,-42.8911709952086,-273.096560563982
738508.43178045551758259535,-38.8937803277688,-42.8450117496261,-273.115024262215
738508.43178054585587233305,-38.8660847804193,-42.8450117496261,-273.151951658681
738508.43178063631057739258,-38.8660847804193,-42.8080843531602,-273.151951658681
738508.43178072676528245211,-38.9307077242347,-42.9096346934416,-273.068865016633
738508.43178081721998751163,-38.8660847804193,-42.8173162022767,-273.151951658681
738508.43178090755827724934,-38.8383892330699,-42.8080843531602,-273.161183507797
738508.43178099801298230886,-38.9214758751183,-42.8727072969756,-273.087328714866
738508.43178108846768736839,-38.9030121768853,-42.8634754478591,-273.096560563982
738508.43178117880597710609,-38.8845484786523,-42.8542435987426,-273.133487960448
738508.43178126926068216562,-38.8383892330699,-42.8173162022767,-273.161183507797
738508.43178135971538722515,-38.8383892330699,-42.8357799005097,-273.170415356914
738508.43178145005367696285,-38.8660847804193,-42.8450117496261,-273.133487960448
738508.43178154050838202238,-38.8383892330699,-42.8450117496261,-273.151951658681
738508.43178163096308708191,-38.8383892330699,-42.8173162022767,-273.151951658681
738508.43178172141779214144,-38.8845484786523,-42.9004028443251,-273.105792413099
738508.43178181175608187914,-38.8383892330699,-42.8173162022767,-273.151951658681
738508.43178190221078693867,-38.8106936857204,-42.8265480513932,-273.17964720603
738508.43178199266549199820,-38.9399395733512,-42.9096346934416,-273.0504013184
738508.43178208300378173590,-38.8660847804193,-42.8819391460921,-273.115024262215
738508.43178217345848679543,-38.9030121768853,-42.8727072969756,-273.087328714866
738508.43178226391319185495,-38.9122440260018,-42.9465620899075,-273.068865016633
738508.43178235425148159266,-38.8753166295358,-42.8542435987426,-273.115024262215
738508.43178244470618665218,-38.9399395733512,-42.9650257881405,-273.041169469283
738508.43178253516089171171,-38.9491714224677,-42.9188665425581,-273.041169469283
738508.43178262561559677124,-38.9307077242347,-42.9188665425581,-273.0504013184
738508.43178271595388650894,-38.9214758751183,-42.937330240791,-273.068865016633
738508.43178280640859156847,-38.9214758751183,-42.9096346934416,-273.068865016633
738508.43178289686329662800,-38.9122440260018,-42.9280983916745,-273.068865016633
738508.43178298720158636570,-38.9122440260018,-42.9096346934416,-273.078096865749
738508.43178307765629142523,-38.8937803277688,-42.9280983916745,-273.087328714866
738508.43178316811099648476,-38.9307077242347,-42.9004028443251,-273.059633167516
738508.43178325844928622246,-38.9214758751183,-42.9280983916745,-273.059633167516
738508.43178334890399128199,-38.9307077242347,-42.8450117496261,-273.013473921934
738508.43178343935869634151,-38.9584032715842,-42.8080843531602,-272.921155430769
738508.43178352981340140104,-38.9860988189337,-42.7988525040437,-272.874996185186
738508.43178362015169113874,-38.8383892330699,-43.0573442793054,-273.041169469283
738508.43178371060639619827,-38.7553025910215,-43.1404309213538,-273.20734275338
738508.43178380106110125780,-38.7553025910215,-42.9465620899075,-273.20734275338
738508.43178389139939099550,-38.8383892330699,-42.8911709952086,-273.161183507797
738508.43178398185409605503,-38.9214758751183,-42.9465620899075,-273.059633167516
738508.43178407230880111456,-38.8753166295358,-42.8357799005097,-273.115024262215
738508.43178416276350617409,-38.9030121768853,-42.9004028443251,-273.068865016633
738508.43178425310179591179,-38.9676351207007,-42.9004028443251,-273.041169469283
738508.43178434355650097132,-38.9399395733512,-42.9096346934416,-273.041169469283
738508.43178443401120603085,-38.9399395733512,-42.9004028443251,-273.059633167516
738508.43178452434949576855,-38.9399395733512,-42.8819391460921,-273.0504013184
738508.43178461480420082808,-38.9676351207007,-42.937330240791,-273.004242072817
738508.43178470525890588760,-38.9122440260018,-42.8357799005097,-273.078096865749
738508.43178479559719562531,-38.8660847804193,-42.8634754478591,-273.096560563982
738508.43178488605190068483,-38.9030121768853,-42.8450117496261,-273.068865016633
738508.43178497650660574436,-38.8660847804193,-42.8634754478591,-273.087328714866
738508.43178506696131080389,-38.8660847804193,-42.7896206549272,-273.105792413099
738508.43178515729960054159,-38.8660847804193,-42.8357799005097,-273.087328714866
738508.43178524775430560112,-39.0137943662832,-42.9650257881405,-272.948850978118
738508.43178533820901066065,-38.9307077242347,-42.9188665425581,-273.013473921934
738508.43178542854730039835,-38.8753166295358,-42.8357799005097,-273.078096865749
738508.43178551900200545788,-38.9491714224677,-42.9188665425581,-272.985778374584
738508.43178560945671051741,-38.8660847804193,-42.8173162022767,-273.068865016633
738508.43178569979500025511,-38.8753166295358,-42.8265480513932,-273.041169469283
738508.43178579024970531464,-38.8845484786523,-42.8357799005097,-273.041169469283
738508.43178588070441037416,-38.8383892330699,-42.7896206549272,-273.078096865749
738508.43178597115911543369,-38.8383892330699,-42.8080843531602,-273.087328714866
738508.43178606149740517139,-38.8753166295358,-42.8450117496261,-273.031937620167
738508.43178615195211023092,-38.8568529313028,-42.8634754478591,-273.041169469283
738508.43178624240681529045,-38.8568529313028,-42.8357799005097,-273.041169469283
738508.43178633274510502815,-38.8291573839534,-42.8357799005097,-273.068865016633
738508.43178642319981008768,-38.9214758751183,-42.9004028443251,-272.985778374584
738508.43178651365451514721,-38.8568529313028,-42.8727072969756,-273.031937620167
738508.43178660399280488491,-38.8476210821863,-42.8265480513932,-273.059633167516
738508.43178669444750994444,-38.8753166295358,-42.8727072969756,-273.02270577105
738508.43178678490221500397,-38.8937803277688,-42.8634754478591,-273.004242072817
738508.43178687535692006350,-38.8383892330699,-42.8357799005097,-273.041169469283
738508.43178696569520980120,-38.8199255348369,-42.8450117496261,-273.078096865749
738508.43178705614991486073,-38.9030121768853,-42.9188665425581,-272.976546525468
738508.43178714660461992025,-38.8568529313028,-42.8173162022767,-273.031937620167
738508.43178723694290965796,-38.8660847804193,-42.8173162022767,-273.013473921934
738508.43178732739761471748,-38.8845484786523,-42.8450117496261,-272.995010223701
738508.43178741785231977701,-38.8845484786523,-42.8173162022767,-272.976546525468
738508.43178750819060951471,-38.9122440260018,-42.8450117496261,-272.958082827235
738508.43178759864531457424,-38.9491714224677,-42.8634754478591,-272.921155430769
738508.43178768910001963377,-38.9399395733512,-42.8819391460921,-272.930387279885
738508.43178777955472469330,-38.9214758751183,-42.8357799005097,-272.948850978118
738508.43178786989301443100,-38.8937803277688,-42.8542435987426,-272.967314676351
738508.43178796034771949053,-38.9030121768853,-42.8080843531602,-272.976546525468
738508.43178805080242455006,-38.8476210821863,-42.7988525040437,-273.02270577105
738508.43178814114071428776,-38.9584032715842,-42.8819391460921,-272.902691732536
738508.43178823159541934729,-38.9030121768853,-42.8542435987426,-272.958082827235
738508.43178832205012440681,-38.8937803277688,-42.8634754478591,-272.967314676351
738508.43178841250482946634,-38.8568529313028,-42.8173162022767,-272.995010223701
738508.43178850284311920404,-38.8568529313028,-42.8357799005097,-272.995010223701
738508.43178859329782426357,-38.8476210821863,-42.8080843531602,-273.004242072817
738508.43178868375252932310,-38.9307077242347,-42.9096346934416,-272.902691732536
738508.43178877409081906080,-39.0137943662832,-42.9465620899075,-272.828836939604
738508.43178886454552412033,-39.0137943662832,-42.9834894863735,-272.828836939604
738508.43178895500022917986,-38.9860988189337,-42.9188665425581,-272.847300637837
738508.43178904533851891756,-38.9307077242347,-42.9004028443251,-272.893459883419
738508.43178913579322397709,-38.8845484786523,-42.8265480513932,-272.939619129002
738508.43178922624792903662,-38.8568529313028,-42.8265480513932,-272.967314676351
738508.43178931670263409615,-38.8660847804193,-42.8173162022767,-272.958082827235
738508.43178940704092383385,-38.8383892330699,-42.8542435987426,-272.985778374584
738508.43178949749562889338,-38.8660847804193,-42.8911709952086,-272.985778374584
738508.43178958795033395290,-38.8476210821863,-42.9096346934416,-273.004242072817
738508.43178967828862369061,-38.8476210821863,-42.8819391460921,-273.013473921934
738508.43178976874332875013,-38.8476210821863,-42.8911709952086,-273.013473921934
738508.43178985919803380966,-38.8937803277688,-42.9004028443251,-272.985778374584
738508.43178994953632354736,-38.8476210821863,-42.9004028443251,-273.013473921934
738508.43179003999102860689,-38.8660847804193,-42.8727072969756,-273.02270577105
738508.43179013044573366642,-38.8845484786523,-42.8911709952086,-272.995010223701
738508.43179022090043872595,-38.8937803277688,-42.9465620899075,-272.985778374584
738508.43179031123872846365,-38.8476210821863,-42.8634754478591,-273.041169469283
738508.43179040169343352318,-38.8568529313028,-42.8819391460921,-273.031937620167
738508.43179049214813858271,-38.9399395733512,-42.9096346934416,-272.930387279885
738508.43179058248642832041,-38.9030121768853,-42.7896206549272,-272.893459883419
738508.43179067294113337994,-38.9584032715842,-42.7434614093448,-272.810373241371
738508.43179076339583843946,-38.8383892330699,-42.937330240791,-272.893459883419
738508.43179085373412817717,-38.6814477980895,-43.1219672231208,-273.170415356914
738508.43179094418883323669,-38.7368388927885,-43.0573442793054,-273.142719809564
738508.43179103464353829622,-38.8476210821863,-42.99272133549,-273.068865016633
738508.43179112509824335575,-38.8476210821863,-42.9280983916745,-273.068865016633
738508.43179121543653309345,-38.9122440260018,-42.9465620899075,-273.004242072817
738508.43179130589123815298,-38.9030121768853,-42.937330240791,-273.004242072817
738508.43179139634594321251,-38.9214758751183,-42.9188665425581,-273.004242072817
738508.43179148668423295021,-38.8753166295358,-42.8819391460921,-273.031937620167
738508.43179157713893800974,-38.9122440260018,-42.8911709952086,-273.013473921934
738508.43179166759364306927,-38.9030121768853,-42.8819391460921,-273.013473921934
738508.43179175793193280697,-38.9491714224677,-42.955793939024,-272.976546525468
738508.43179184838663786650,-38.9122440260018,-42.8819391460921,-273.004242072817
738508.43179193884134292603,-38.9122440260018,-42.8727072969756,-272.995010223701
738508.43179202929604798555,-38.8937803277688,-42.8450117496261,-273.041169469283
738508.43179211963433772326,-38.8937803277688,-42.8727072969756,-273.02270577105
738508.43179221008904278278,-38.9768669698172,-42.9004028443251,-272.958082827235
738508.43179230054374784231,-38.9953306680502,-42.9465620899075,-272.921155430769
738508.43179239088203758001,-39.0507217627491,-42.99272133549,-272.884228034303
738508.43179248133674263954,-38.9214758751183,-42.8727072969756,-272.995010223701
738508.43179257179144769907,-38.9491714224677,-42.8727072969756,-272.995010223701
738508.43179266224615275860,-38.9307077242347,-42.8634754478591,-272.985778374584
738508.43179275258444249630,-38.8937803277688,-42.8173162022767,-273.041169469283
738508.43179284303914755583,-38.9214758751183,-42.8265480513932,-273.013473921934
738508.43179293349385261536,-38.8753166295358,-42.7803888058107,-273.059633167516
738508.43179302383214235306,-38.8845484786523,-42.7803888058107,-273.041169469283
738508.43179311428684741259,-38.9214758751183,-42.8265480513932,-273.013473921934
738508.43179320474155247211,-38.8937803277688,-42.7896206549272,-273.041169469283
738508.43179329507984220982,-38.8753166295358,-42.7896206549272,-273.0504013184
738508.43179338553454726934,-38.8660847804193,-42.7619251075777,-273.068865016633
738508.43179347598925232887,-38.9307077242347,-42.8542435987426,-273.004242072817
738508.43179356644395738840,-38.9030121768853,-42.7896206549272,-273.041169469283
738508.43179365678224712610,-38.8845484786523,-42.7988525040437,-273.059633167516
738508.43179374723695218563,-38.9030121768853,-42.7988525040437,-273.0504013184
738508.43179383769165724516,-38.8845484786523,-42.8080843531602,-273.013473921934
738508.43179392802994698286,-38.8845484786523,-42.7803888058107,-273.078096865749
738508.43179401848465204239,-38.8660847804193,-42.7619251075777,-273.087328714866
738508.43179410893935710192,-38.9399395733512,-42.8357799005097,-273.02270577105
738508.43179419927764683962,-38.8845484786523,-42.7803888058107,-273.068865016633
738508.43179428973235189915,-38.9584032715842,-42.8634754478591,-273.004242072817
738508.43179438018705695868,-39.0137943662832,-42.8911709952086,-272.948850978118
738508.43179447064176201820,-39.0045625171667,-42.9096346934416,-272.958082827235
738508.43179456098005175591,-39.0137943662832,-42.9004028443251,-272.948850978118
738508.43179465143475681543,-38.9953306680502,-42.9096346934416,-272.967314676351
738508.43179474188946187496,-39.0137943662832,-42.9004028443251,-272.958082827235
738508.43179483222775161266,-38.9399395733512,-42.8634754478591,-273.02270577105
738508.43179492268245667219,-38.9676351207007,-42.8542435987426,-272.995010223701
738508.43179501313716173172,-38.9491714224677,-42.8819391460921,-273.004242072817
738508.43179510347545146942,-38.9307077242347,-42.8265480513932,-273.031937620167
738508.43179519393015652895,-38.9122440260018,-42.8357799005097,-273.0504013184
738508.43179528438486158848,-38.9399395733512,-42.8357799005097,-273.02270577105
738508.43179537483956664801,-38.9584032715842,-42.8727072969756,-272.995010223701
738508.43179546517785638571,-38.9953306680502,-42.8819391460921,-272.976546525468
738508.43179555563256144524,-38.9676351207007,-42.8911709952086,-272.995010223701
738508.43179564608726650476,-38.9307077242347,-42.8265480513932,-273.041169469283
738508.43179573642555624247,-38.9399395733512,-42.8634754478591,-272.985778374584
738508.43179582688026130199,-38.9491714224677,-42.8727072969756,-273.004242072817
738508.43179591733496636152,-39.0322580645161,-42.937330240791,-272.930387279885
738508.43179600767325609922,-38.9030121768853,-42.8265480513932,-273.059633167516
738508.43179609812796115875,-38.9030121768853,-42.8173162022767,-273.059633167516
738508.43179618858266621828,-38.8660847804193,-42.8080843531602,-273.078096865749
738508.43179627903737127781,-38.9214758751183,-42.8450117496261,-273.02270577105
738508.43179636937566101551,-38.9122440260018,-42.8357799005097,-273.02270577105
738508.43179645983036607504,-38.9399395733512,-42.8542435987426,-273.004242072817
738508.43179655028507113457,-38.9399395733512,-42.8727072969756,-272.995010223701
738508.43179664062336087227,-38.9399395733512,-42.8634754478591,-272.995010223701
738508.43179673107806593180,-38.9399395733512,-42.8727072969756,-272.995010223701
738508.43179682153277099133,-38.9584032715842,-42.8819391460921,-272.985778374584
738508.43179691198747605085,-38.9122440260018,-42.8357799005097,-273.02270577105
738508.43179700232576578856,-38.9307077242347,-42.8727072969756,-273.004242072817
738508.43179709278047084808,-38.8753166295358,-42.8080843531602,-273.059633167516
738508.43179718323517590761,-38.8660847804193,-42.7896206549272,-273.068865016633
738508.43179727357346564531,-38.9214758751183,-42.8542435987426,-273.013473921934
738508.43179736402817070484,-38.8937803277688,-42.8265480513932,-273.041169469283
738508.43179745448287576437,-38.8568529313028,-42.7711569566942,-273.087328714866
738508.43179754482116550207,-38.8753166295358,-42.7896206549272,-273.078096865749
738508.43179763527587056160,-38.9214758751183,-42.8173162022767,-273.031937620167
738508.43179772573057562113,-38.8845484786523,-42.7342295602283,-273.031937620167
738508.43179781618528068066,-38.9676351207007,-42.6696066164128,-272.893459883419
738508.43179790652357041836,-39.0137943662832,-42.6880703146458,-272.801141392254
738508.43179799697827547789,-38.8568529313028,-42.8173162022767,-272.967314676351
738508.43179808743298053741,-38.7183751945555,-43.0019531846065,-273.188879055147
738508.43179817777127027512,-38.8014618366039,-42.8911709952086,-273.133487960448
738508.43179826822597533464,-38.8753166295358,-42.8450117496261,-273.087328714866
738508.43179835868068039417,-38.8568529313028,-42.7619251075777,-273.096560563982
738508.43179844901897013187,-38.8845484786523,-42.7526932584613,-273.059633167516
738508.43179853947367519140,-38.9860988189337,-42.8450117496261,-272.967314676351
738508.43179862992838025093,-38.9307077242347,-42.7803888058107,-273.02270577105
738508.43179872038308531046,-38.9030121768853,-42.7526932584613,-273.059633167516
738508.43179881072137504816,-38.9214758751183,-42.7803888058107,-273.031937620167
738508.43179890117608010769,-38.9307077242347,-42.7803888058107,-273.031937620167
738508.43179899163078516722,-38.8937803277688,-42.7526932584613,-273.068865016633
738508.43179908196907490492,-38.9860988189337,-42.8634754478591,-272.976546525468
738508.43179917242377996445,-38.9860988189337,-42.8634754478591,-272.976546525468
738508.43179926287848502398,-39.0414899136326,-42.9096346934416,-272.921155430769
738508.43179935321677476168,-39.161503952147,-43.0296487319559,-272.810373241371
738508.43179944367147982121,-39.0230262153996,-42.8911709952086,-272.939619129002
738508.43179953412618488073,-38.9584032715842,-42.8173162022767,-273.013473921934
738508.43179962458088994026,-38.9768669698172,-42.8357799005097,-272.985778374584
738508.43179971491917967796,-38.9860988189337,-42.8450117496261,-272.985778374584
738508.43179980537388473749,-38.9953306680502,-42.8450117496261,-272.967314676351
738508.43179989582858979702,-39.0045625171667,-42.8542435987426,-272.958082827235
738508.43179998616687953472,-38.9676351207007,-42.8173162022767,-272.985778374584
738508.43180007662158459425,-38.9860988189337,-42.8265480513932,-272.967314676351
738508.43180016707628965378,-38.9676351207007,-42.8080843531602,-272.995010223701
738508.43180025741457939148,-38.9584032715842,-42.8080843531602,-272.995010223701
738508.43180034786928445101,-38.9584032715842,-42.7988525040437,-272.995010223701
738508.43180043832398951054,-38.9860988189337,-42.8357799005097,-272.958082827235
738508.43180052877869457006,-38.9676351207007,-42.8265480513932,-272.976546525468
738508.43180061911698430777,-38.9584032715842,-42.8357799005097,-272.995010223701
738508.43180070957168936729,-38.9307077242347,-42.8265480513932,-273.02270577105
738508.43180080002639442682,-38.9214758751183,-42.8357799005097,-273.031937620167
738508.43180089036468416452,-38.9307077242347,-42.8450117496261,-273.031937620167
738508.43180098081938922405,-38.9214758751183,-42.8450117496261,-273.031937620167
738508.43180107127409428358,-38.9491714224677,-42.8727072969756,-273.013473921934
738508.43180116172879934311,-38.8937803277688,-42.8357799005097,-273.068865016633
738508.43180125206708908081,-38.8660847804193,-42.8080843531602,-273.087328714866
738508.43180134252179414034,-38.8937803277688,-42.8450117496261,-273.02270577105
738508.43180143297649919987,-38.8568529313028,-42.7988525040437,-273.096560563982
738508.43180152331478893757,-38.8476210821863,-42.8173162022767,-273.105792413099
738508.43180161376949399710,-38.8937803277688,-42.8542435987426,-273.059633167516
738508.43180170422419905663,-38.8753166295358,-42.8357799005097,-273.078096865749
738508.43180179456248879433,-38.8568529313028,-42.8173162022767,-273.087328714866
738508.43180188501719385386,-38.8568529313028,-42.8080843531602,-273.087328714866
738508.43180197547189891338,-38.9030121768853,-42.8634754478591,-273.041169469283
738508.43180206592660397291,-38.8383892330699,-42.7988525040437,-273.105792413099
738508.43180215626489371061,-38.8660847804193,-42.8173162022767,-273.078096865749
738508.43180224671959877014,-38.9307077242347,-42.8727072969756,-273.004242072817
738508.43180233717430382967,-38.8568529313028,-42.8080843531602,-273.078096865749
738508.43180242751259356737,-38.8753166295358,-42.8080843531602,-273.059633167516
738508.43180251796729862690,-38.9491714224677,-42.8911709952086,-272.985778374584
738508.43180260842200368643,-38.8937803277688,-42.8265480513932,-273.059633167516
738508.43180269876029342413,-38.8660847804193,-42.8080843531602,-273.087328714866
738508.43180278921499848366,-38.8937803277688,-42.8265480513932,-273.059633167516
738508.43180287966970354319,-39.0137943662832,-42.9650257881405,-272.930387279885
738508.43180297012440860271,-38.9214758751183,-42.8634754478591,-273.031937620167
738508.43180306046269834042,-38.8753166295358,-42.8173162022767,-273.078096865749
738508.43180315091740339994,-38.9122440260018,-42.8727072969756,-273.041169469283
738508.43180324137210845947,-38.8660847804193,-42.8265480513932,-273.059633167516
738508.43180333171039819717,-38.8660847804193,-42.8173162022767,-273.087328714866
738508.43180342216510325670,-38.8753166295358,-42.8173162022767,-273.078096865749
738508.43180351261980831623,-38.8845484786523,-42.8080843531602,-273.078096865749
738508.43180360295809805393,-38.8660847804193,-42.7988525040437,-273.096560563982
738508.43180369341280311346,-38.8568529313028,-42.8080843531602,-273.115024262215
738508.43180378386750817299,-38.9399395733512,-42.8727072969756,-273.041169469283
738508.43180387432221323252,-38.8845484786523,-42.8357799005097,-273.087328714866
738508.43180396466050297022,-38.8568529313028,-42.7988525040437,-273.133487960448
738508.43180405511520802975,-38.9399395733512,-42.8911709952086,-273.0504013184
738508.43180414556991308928,-38.8660847804193,-42.8173162022767,-273.124256111332
738508.43180423590820282698,-38.8568529313028,-42.8357799005097,-273.124256111332
738508.43180432636290788651,-38.8845484786523,-42.8634754478591,-273.096560563982
738508.43180441681761294603,-38.8753166295358,-42.8634754478591,-273.105792413099
738508.43180450715590268373,-38.8476210821863,-42.8357799005097,-273.142719809564
738508.43180459761060774326,-38.8291573839534,-42.8173162022767,-273.170415356914
738508.43180468806531280279,-38.9676351207007,-42.9650257881405,-273.02270577105
738508.43180477852001786232,-38.8660847804193,-42.8357799005097,-273.105792413099
738508.43180486885830760002,-38.8937803277688,-42.7711569566942,-273.031937620167
738508.43180495931301265955,-38.9676351207007,-42.6973021637623,-272.902691732536
738508.43180504976771771908,-38.9399395733512,-42.7711569566942,-272.893459883419
738508.43180514010600745678,-38.8106936857204,-43.011185033723,-272.967314676351
738508.43180523056071251631,-38.7645344401379,-43.0850398266549,-273.161183507797
738508.43180532101541757584,-38.8476210821863,-42.974257637257,-273.105792413099
738508.43180541147012263536,-38.8383892330699,-42.8265480513932,-273.133487960448
738508.43180550180841237307,-38.9491714224677,-42.8542435987426,-273.02270577105
738508.43180559226311743259,-38.9399395733512,-42.8357799005097,-273.02270577105
738508.43180568271782249212,-38.8845484786523,-42.7988525040437,-273.078096865749
738508.43180577305611222982,-38.8476210821863,-42.7619251075777,-273.115024262215
738508.43180586351081728935,-38.9676351207007,-42.8819391460921,-273.004242072817
738508.43180595396552234888,-38.9122440260018,-42.8173162022767,-273.0504013184
738508.43180604430381208658,-38.8753166295358,-42.7434614093448,-273.096560563982
738508.43180613475851714611,-38.8753166295358,-42.7342295602283,-273.096560563982
738508.43180622521322220564,-38.9307077242347,-42.7988525040437,-273.041169469283
738508.43180631566792726517,-38.8937803277688,-42.7526932584613,-273.068865016633
738508.43180640600621700287,-39.0230262153996,-42.9004028443251,-272.939619129002
738508.43180649646092206240,-39.0691854609821,-42.937330240791,-272.902691732536
738508.43180658691562712193,-38.9491714224677,-42.8173162022767,-273.013473921934
738508.43180667725391685963,-38.8845484786523,-42.7249977111118,-273.087328714866
738508.43180676770862191916,-38.9307077242347,-42.7711569566942,-273.031937620167
738508.43180685816332697868,-38.9307077242347,-42.7434614093448,-273.031937620167
738508.43180694850161671638,-38.8845484786523,-42.6973021637623,-273.068865016633
738508.43180703895632177591,-38.9122440260018,-42.7065340128788,-273.041169469283
738508.43180712941102683544,-38.9214758751183,-42.7065340128788,-273.031937620167
738508.43180721986573189497,-38.9768669698172,-42.7526932584613,-272.985778374584
738508.43180731020402163267,-38.9953306680502,-42.7711569566942,-272.958082827235
738508.43180740065872669220,-39.0137943662832,-42.7896206549272,-272.939619129002
738508.43180749111343175173,-39.0507217627491,-42.8173162022767,-272.902691732536
738508.43180758145172148943,-39.0137943662832,-42.7896206549272,-272.939619129002
738508.43180767190642654896,-39.0137943662832,-42.7896206549272,-272.939619129002
738508.43180776236113160849,-39.0322580645161,-42.8173162022767,-272.930387279885
738508.43180785269942134619,-38.9860988189337,-42.7711569566942,-272.985778374584
738508.43180794315412640572,-38.9584032715842,-42.7619251075777,-273.013473921934
738508.43180803360883146524,-38.9860988189337,-42.7896206549272,-272.995010223701
738508.43180812406353652477,-38.9676351207007,-42.7988525040437,-273.004242072817
738508.43180821440182626247,-38.9860988189337,-42.8080843531602,-272.995010223701
738508.43180830485653132200,-38.9768669698172,-42.8173162022767,-273.004242072817
738508.43180839531123638153,-38.9768669698172,-42.8080843531602,-273.013473921934
738508.43180848564952611923,-38.9676351207007,-42.8080843531602,-273.02270577105
738508.43180857610423117876,-38.9676351207007,-42.8080843531602,-273.013473921934
738508.43180866655893623829,-38.9768669698172,-42.8173162022767,-273.004242072817
738508.43180875689722597599,-38.9768669698172,-42.8173162022767,-273.02270577105
738508.43180884735193103552,-38.9768669698172,-42.8173162022767,-273.02270577105
738508.43180893780663609505,-38.9491714224677,-42.7896206549272,-273.041169469283
738508.43180902826134115458,-38.9768669698172,-42.8080843531602,-273.02270577105
738508.43180911859963089228,-38.9860988189337,-42.8265480513932,-273.02270577105
738508.43180920905433595181,-38.9953306680502,-42.8357799005097,-273.004242072817
738508.43180929950904101133,-38.8937803277688,-42.7526932584613,-273.105792413099
738508.43180938984733074903,-38.9953306680502,-42.8542435987426,-273.013473921934
738508.43180948030203580856,-38.9584032715842,-42.8357799005097,-273.041169469283
738508.43180957075674086809,-38.9122440260018,-42.7896206549272,-273.096560563982
738508.43180966121144592762,-38.9584032715842,-42.8542435987426,-273.0504013184
738508.43180975154973566532,-38.9307077242347,-42.8173162022767,-273.078096865749
738508.43180984200444072485,-38.8845484786523,-42.7988525040437,-273.124256111332
738508.43180993245914578438,-39.0137943662832,-42.9096346934416,-272.995010223701
738508.43181002279743552208,-39.0507217627491,-42.9280983916745,-272.958082827235
738508.43181011325214058161,-38.9307077242347,-42.7803888058107,-273.078096865749
738508.43181020370684564114,-38.9214758751183,-42.7711569566942,-273.078096865749
738508.43181029404513537884,-38.9122440260018,-42.7526932584613,-273.087328714866
738508.43181038449984043837,-38.9399395733512,-42.7711569566942,-273.068865016633
738508.43181047495454549789,-38.9307077242347,-42.7526932584613,-273.068865016633
738508.43181056540925055742,-38.9399395733512,-42.7526932584613,-273.059633167516
738508.43181065574754029512,-38.9307077242347,-42.7434614093448,-273.068865016633
738508.43181074620224535465,-38.9676351207007,-42.7803888058107,-273.041169469283
738508.43181083665695041418,-38.9307077242347,-42.7434614093448,-273.068865016633
738508.43181092699524015188,-38.9307077242347,-42.7342295602283,-273.078096865749
738508.43181101744994521141,-38.9860988189337,-42.7988525040437,-273.013473921934
738508.43181110790465027094,-39.0322580645161,-42.8265480513932,-272.976546525468
738508.43181119824294000864,-39.0137943662832,-42.8357799005097,-272.995010223701
738508.43181128869764506817,-39.0045625171667,-42.8265480513932,-273.013473921934
738508.43181137915235012770,-38.9953306680502,-42.8265480513932,-273.013473921934
738508.43181146960705518723,-38.9676351207007,-42.7988525040437,-273.0504013184
738508.43181155994534492493,-38.9122440260018,-42.7526932584613,-273.096560563982
738508.43181165040004998446,-38.9584032715842,-42.7803888058107,-273.059633167516
738508.43181174085475504398,-39.0045625171667,-42.8173162022767,-273.013473921934
738508.43181183119304478168,-39.0137943662832,-42.8357799005097,-273.004242072817
738508.43181192164774984121,-38.9953306680502,-42.8173162022767,-273.013473921934
738508.43181201210245490074,-38.9953306680502,-42.7896206549272,-272.967314676351
738508.43181210244074463844,-39.0691854609821,-42.7249977111118,-272.847300637837
738508.43181219289544969797,-39.0322580645161,-42.7249977111118,-272.847300637837
738508.43181228335015475750,-38.8937803277688,-42.9188665425581,-273.013473921934
738508.43181237380485981703,-38.7922299874874,-43.0388805810724,-273.188879055147
738508.43181246414314955473,-38.9122440260018,-42.937330240791,-273.087328714866
738508.43181255459785461426,-38.9399395733512,-42.8911709952086,-273.078096865749
738508.43181264505255967379,-38.9768669698172,-42.8357799005097,-273.059633167516
738508.43181273539084941149,-38.9491714224677,-42.8080843531602,-273.0504013184
738508.43181282584555447102,-38.9768669698172,-42.8265480513932,-273.031937620167
738508.43181291630025953054,-38.9584032715842,-42.7803888058107,-273.041169469283
738508.43181300663854926825,-38.9399395733512,-42.7711569566942,-273.0504013184
738508.43181309709325432777,-39.0137943662832,-42.8080843531602,-272.985778374584
738508.43181318754795938730,-38.9953306680502,-42.7988525040437,-273.004242072817
738508.43181327800266444683,-38.9860988189337,-42.7803888058107,-273.004242072817
738508.43181336834095418453,-38.9768669698172,-42.7711569566942,-273.013473921934
738508.43181345879565924406,-39.0784173100986,-42.8634754478591,-272.911923581652
738508.43181354925036430359,-39.0691854609821,-42.8634754478591,-272.930387279885
738508.43181363958865404129,-38.9399395733512,-42.7157658619953,-273.059633167516
738508.43181373004335910082,-38.9399395733512,-42.7434614093448,-273.059633167516
738508.43181382049806416035,-38.9768669698172,-42.7619251075777,-273.02270577105
738508.43181391095276921988,-39.0507217627491,-42.8450117496261,-272.958082827235
738508.43181400129105895758,-39.0599536118656,-42.8542435987426,-272.948850978118
738508.43181409174576401711,-38.9399395733512,-42.7526932584613,-273.059633167516
738508.43181418220046907663,-38.9399395733512,-42.7342295602283,-273.059633167516
738508.43181427253875881433,-38.9307077242347,-42.7342295602283,-273.059633167516
738508.43181436299346387386,-38.9768669698172,-42.7711569566942,-273.02270577105
738508.43181445344816893339,-38.9491714224677,-42.7526932584613,-273.041169469283
738508.43181454378645867109,-39.0045625171667,-42.7988525040437,-272.985778374584
738508.43181463424116373062,-39.0230262153996,-42.7988525040437,-272.967314676351
738508.43181472469586879015,-39.0137943662832,-42.8173162022767,-272.976546525468
738508.43181481515057384968,-39.0137943662832,-42.8080843531602,-272.985778374584
738508.43181490548886358738,-38.9768669698172,-42.8080843531602,-273.013473921934
738508.43181499594356864691,-38.9953306680502,-42.8080843531602,-273.004242072817
738508.43181508639827370644,-38.9122440260018,-42.7342295602283,-273.096560563982
738508.43181517673656344414,-38.9307077242347,-42.7526932584613,-273.078096865749
738508.43181526719126850367,-38.9399395733512,-42.7896206549272,-273.059633167516
738508.43181535764597356319,-38.9214758751183,-42.7711569566942,-273.087328714866
738508.43181544798426330090,-38.9030121768853,-42.7526932584613,-273.096560563982
738508.43181553843896836042,-38.9214758751183,-42.7803888058107,-273.078096865749
738508.43181562889367341995,-38.9399395733512,-42.7988525040437,-273.068865016633
738508.43181571934837847948,-38.8937803277688,-42.7526932584613,-273.115024262215
738508.43181580968666821718,-38.9030121768853,-42.7619251075777,-273.105792413099
738508.43181590014137327671,-38.9860988189337,-42.8265480513932,-273.02270577105
738508.43181599059607833624,-38.9399395733512,-42.7896206549272,-273.068865016633
738508.43181608093436807394,-38.9030121768853,-42.7526932584613,-273.115024262215
738508.43181617138907313347,-38.9768669698172,-42.8265480513932,-273.031937620167
738508.43181626184377819300,-38.9030121768853,-42.7711569566942,-273.105792413099
738508.43181635218206793070,-38.9307077242347,-42.7988525040437,-273.078096865749
738508.43181644263677299023,-38.9491714224677,-42.8357799005097,-273.059633167516
738508.43181653309147804976,-38.9676351207007,-42.8450117496261,-273.0504013184
738508.43181662354618310928,-38.9768669698172,-42.8727072969756,-273.02270577105
738508.43181671388447284698,-38.9399395733512,-42.8173162022767,-273.078096865749
738508.43181680433917790651,-38.9584032715842,-42.8450117496261,-273.0504013184
738508.43181689479388296604,-38.9768669698172,-42.8542435987426,-273.031937620167
738508.43181698513217270374,-39.0137943662832,-42.8911709952086,-272.995010223701
738508.43181707558687776327,-39.0507217627491,-42.8911709952086,-272.958082827235
738508.43181716604158282280,-39.0137943662832,-42.8634754478591,-272.995010223701
738508.43181725637987256050,-38.9307077242347,-42.7803888058107,-273.078096865749
738508.43181734683457762003,-38.8845484786523,-42.7434614093448,-273.124256111332
738508.43181743728928267956,-38.9214758751183,-42.7803888058107,-273.087328714866
738508.43181752774398773909,-38.9953306680502,-42.8542435987426,-273.004242072817
738508.43181761808227747679,-38.9030121768853,-42.7711569566942,-273.096560563982
738508.43181770853698253632,-38.9214758751183,-42.7619251075777,-273.078096865749
738508.43181779899168759584,-38.9768669698172,-42.8265480513932,-273.02270577105
738508.43181788932997733355,-38.9768669698172,-42.8357799005097,-273.013473921934
738508.43181797978468239307,-38.9676351207007,-42.8450117496261,-273.031937620167
738508.43181807023938745260,-38.9491714224677,-42.8265480513932,-273.059633167516
738508.43181816069409251213,-38.9399395733512,-42.8265480513932,-273.068865016633
738508.43181825103238224983,-38.9491714224677,-42.8173162022767,-273.068865016633
738508.43181834148708730936,-38.9860988189337,-42.8634754478591,-273.02270577105
738508.43181843194179236889,-38.9307077242347,-42.7988525040437,-273.087328714866
738508.43181852228008210659,-38.9307077242347,-42.8080843531602,-273.087328714866
738508.43181861273478716612,-38.9491714224677,-42.8265480513932,-273.068865016633
738508.43181870318949222565,-38.9214758751183,-42.8080843531602,-273.087328714866
738508.43181879352778196335,-38.9214758751183,-42.8080843531602,-273.096560563982
738508.43181888398248702288,-38.9491714224677,-42.8080843531602,-273.078096865749
738508.43181897443719208241,-39.0230262153996,-42.8819391460921,-273.004242072817
738508.43181906489189714193,-38.9953306680502,-42.8450117496261,-273.013473921934
738508.43181915523018687963,-39.0137943662832,-42.7896206549272,-272.939619129002
738508.43181924568489193916,-39.0691854609821,-42.7249977111118,-272.83806878872
738508.43181933613959699869,-39.0322580645161,-42.8265480513932,-272.847300637837
738508.43181942647788673639,-38.8106936857204,-43.011185033723,-273.133487960448
738508.43181951693259179592,-38.7922299874874,-42.99272133549,-273.216574602496
738508.43181960738729685545,-38.9122440260018,-42.9096346934416,-273.105792413099
738508.43181969772558659315,-38.9122440260018,-42.8450117496261,-273.124256111332
738508.43181978818029165268,-38.9491714224677,-42.8080843531602,-273.068865016633
738508.43181987863499671221,-38.9584032715842,-42.8173162022767,-273.059633167516
738508.43181996908970177174,-38.9584032715842,-42.8080843531602,-273.059633167516
738508.43182005942799150944,-38.9491714224677,-42.7988525040437,-273.068865016633
738508.43182014988269656897,-38.9584032715842,-42.7988525040437,-273.068865016633
738508.43182024033740162849,-38.9953306680502,-42.8357799005097,-273.013473921934
738508.43182033067569136620,-38.9953306680502,-42.8357799005097,-273.02270577105
738508.43182042113039642572,-38.9676351207007,-42.7896206549272,-273.0504013184
738508.43182051158510148525,-39.0045625171667,-42.8450117496261,-273.004242072817
738508.43182060192339122295,-39.1153447065645,-42.937330240791,-272.893459883419
738508.43182069237809628248,-38.9584032715842,-42.7896206549272,-273.0504013184
738508.43182078283280134201,-38.9676351207007,-42.7803888058107,-273.041169469283
738508.43182087328750640154,-39.0045625171667,-42.8173162022767,-273.004242072817
738508.43182096362579613924,-38.9676351207007,-42.7711569566942,-273.0504013184
738508.43182105408050119877,-38.9584032715842,-42.7711569566942,-273.0504013184
738508.43182114453520625830,-38.9768669698172,-42.7711569566942,-273.031937620167
738508.43182123487349599600,-38.9860988189337,-42.7803888058107,-273.02270577105
738508.43182132532820105553,-38.9768669698172,-42.7526932584613,-273.031937620167
738508.43182141578290611506,-38.9676351207007,-42.7711569566942,-273.031937620167
738508.43182150612119585276,-39.0322580645161,-42.8080843531602,-272.976546525468
738508.43182159657590091228,-38.9768669698172,-42.7526932584613,-273.031937620167
738508.43182168703060597181,-38.9768669698172,-42.7526932584613,-273.02270577105
738508.43182177748531103134,-38.9768669698172,-42.7711569566942,-273.02270577105
738508.43182186782360076904,-38.9860988189337,-42.7711569566942,-273.013473921934
738508.43182195827830582857,-38.9768669698172,-42.7896206549272,-273.013473921934
738508.43182204873301088810,-38.9584032715842,-42.7803888058107,-273.041169469283
738508.43182213907130062580,-38.9860988189337,-42.7988525040437,-273.02270577105
738508.43182222952600568533,-38.9768669698172,-42.8173162022767,-273.031937620167
738508.43182231998071074486,-38.9860988189337,-42.8265480513932,-273.031937620167
738508.43182241043541580439,-38.9584032715842,-42.8265480513932,-273.0504013184
738508.43182250077370554209,-38.9768669698172,-42.8265480513932,-273.041169469283
738508.43182259122841060162,-38.9122440260018,-42.7896206549272,-273.105792413099
738508.43182268168311566114,-38.9307077242347,-42.7896206549272,-273.087328714866
738508.43182277202140539885,-38.9768669698172,-42.8265480513932,-273.041169469283
738508.43182286247611045837,-38.9307077242347,-42.7711569566942,-273.078096865749
738508.43182295293081551790,-38.9676351207007,-42.8080843531602,-273.041169469283
738508.43182304326910525560,-38.9860988189337,-42.8265480513932,-273.031937620167
738508.43182313372381031513,-39.0045625171667,-42.8357799005097,-273.02270577105
738508.43182322417851537466,-38.9953306680502,-42.8265480513932,-273.031937620167
738508.43182331463322043419,-38.9953306680502,-42.8265480513932,-273.031937620167
738508.43182340497151017189,-38.9307077242347,-42.7803888058107,-273.087328714866
738508.43182349542621523142,-38.9584032715842,-42.7988525040437,-273.059633167516
738508.43182358588092029095,-38.9307077242347,-42.7803888058107,-273.087328714866
738508.43182367621921002865,-38.9307077242347,-42.7803888058107,-273.087328714866
738508.43182376667391508818,-38.9860988189337,-42.8450117496261,-273.031937620167
738508.43182385712862014771,-38.9122440260018,-42.7711569566942,-273.105792413099
738508.43182394746690988541,-38.9214758751183,-42.7711569566942,-273.096560563982
738508.43182403792161494493,-38.9676351207007,-42.8080843531602,-273.0504013184
738508.43182412837632000446,-39.0784173100986,-42.937330240791,-272.939619129002
738508.43182421883102506399,-38.9214758751183,-42.7711569566942,-273.105792413099
738508.43182430916931480169,-38.9307077242347,-42.7803888058107,-273.087328714866
738508.43182439962401986122,-38.9953306680502,-42.8357799005097,-273.031937620167
738508.43182449007872492075,-38.9307077242347,-42.7803888058107,-273.096560563982
738508.43182458041701465845,-38.9307077242347,-42.7988525040437,-273.087328714866
738508.43182467087171971798,-38.9399395733512,-42.8080843531602,-273.078096865749
738508.43182476132642477751,-38.9307077242347,-42.8265480513932,-273.078096865749
738508.43182485166471451521,-38.9307077242347,-42.8173162022767,-273.078096865749
738508.43182494211941957474,-38.9122440260018,-42.8080843531602,-273.096560563982
738508.43182503257412463427,-38.9860988189337,-42.8634754478591,-273.02270577105
738508.43182512302882969379,-38.9122440260018,-42.8080843531602,-273.096560563982
738508.43182521336711943150,-38.9214758751183,-42.8080843531602,-273.087328714866
738508.43182530382182449102,-38.9584032715842,-42.8634754478591,-273.0504013184
738508.43182539427652955055,-38.9214758751183,-42.7988525040437,-273.096560563982
738508.43182548461481928825,-38.9122440260018,-42.8080843531602,-273.096560563982
738508.43182557506952434778,-38.9214758751183,-42.8173162022767,-273.096560563982
738508.43182566552422940731,-38.9122440260018,-42.8265480513932,-273.105792413099
738508.43182575586251914501,-38.9122440260018,-42.8080843531602,-273.105792413099
738508.43182584631722420454,-38.9214758751183,-42.8173162022767,-273.105792413099
738508.43182593677192926407,-38.9584032715842,-42.8542435987426,-273.059633167516
738508.43182602722663432360,-39.0045625171667,-42.9004028443251,-273.031937620167
738508.43182611756492406130,-38.9122440260018,-42.7896206549272,-273.087328714866
738508.43182620801962912083,-38.9491714224677,-42.7342295602283,-272.995010223701
738508.43182629847433418036,-38.9860988189337,-42.6880703146458,-272.902691732536
738508.43182638881262391806,-38.9214758751183,-42.7619251075777,-272.948850978118
738508.43182647926732897758,-38.7368388927885,-43.011185033723,-273.198110904263
738508.43182656972203403711,-38.7737662892544,-42.974257637257,-273.216574602496
738508.43182666017673909664,-38.9030121768853,-42.9096346934416,-273.105792413099
738508.43182675051502883434,-38.9030121768853,-42.7988525040437,-273.115024262215
738508.43182684096973389387,-38.9122440260018,-42.7526932584613,-273.078096865749
738508.43182693142443895340,-38.9768669698172,-42.7803888058107,-273.02270577105
738508.43182702176272869110,-38.9307077242347,-42.7619251075777,-273.068865016633
738508.43182711221743375063,-38.9399395733512,-42.7619251075777,-273.0504013184
738508.43182720267213881016,-38.9584032715842,-42.7711569566942,-273.041169469283
738508.43182729301042854786,-38.9491714224677,-42.7711569566942,-273.0504013184
738508.43182738346513360739,-38.9860988189337,-42.8080843531602,-273.02270577105
738508.43182747391983866692,-38.9953306680502,-42.8080843531602,-273.004242072817
738508.43182756437454372644,-39.161503952147,-42.99272133549,-272.83806878872
738508.43182765471283346415,-39.0414899136326,-42.8819391460921,-272.893459883419
738508.43182774516753852367,-38.9953306680502,-42.8265480513932,-273.004242072817
738508.43182783562224358320,-38.9676351207007,-42.8265480513932,-273.02270577105
738508.43182792596053332090,-38.9399395733512,-42.7711569566942,-273.059633167516
738508.43182801641523838043,-38.9307077242347,-42.7803888058107,-273.068865016633
738508.43182810686994343996,-38.9307077242347,-42.7803888058107,-273.068865016633
738508.43182819720823317766,-38.9584032715842,-42.8080843531602,-273.031937620167
738508.43182828766293823719,-38.9307077242347,-42.7619251075777,-273.059633167516
738508.43182837811764329672,-38.9307077242347,-42.7803888058107,-273.068865016633
738508.43182846857234835625,-38.9860988189337,-42.8357799005097,-273.004242072817
738508.43182855891063809395,-38.9214758751183,-42.7803888058107,-273.068865016633
738508.43182864936534315348,-38.9399395733512,-42.7803888058107,-273.0504013184
738508.43182873982004821301,-38.9491714224677,-42.8080843531602,-273.031937620167
738508.43182883015833795071,-38.9214758751183,-42.7803888058107,-273.068865016633
738508.43182892061304301023,-38.9122440260018,-42.7896206549272,-273.068865016633
738508.43182901106774806976,-38.9214758751183,-42.7988525040437,-273.059633167516
738508.43182910140603780746,-38.9214758751183,-42.8080843531602,-273.068865016633
738508.43182919186074286699,-38.9030121768853,-42.8080843531602,-273.078096865749
738508.43182928231544792652,-38.9399395733512,-42.8357799005097,-273.0504013184
738508.43182937277015298605,-38.9491714224677,-42.8634754478591,-273.031937620167
738508.43182946310844272375,-38.9307077242347,-42.8450117496261,-273.0504013184
738508.43182955356314778328,-38.9307077242347,-42.8450117496261,-273.059633167516
738508.43182964401785284281,-38.9491714224677,-42.8634754478591,-273.041169469283
738508.43182973435614258051,-38.8937803277688,-42.8357799005097,-273.096560563982
738508.43182982481084764004,-38.9122440260018,-42.8265480513932,-273.068865016633
738508.43182991526555269957,-38.8937803277688,-42.8265480513932,-273.087328714866
738508.43183000560384243727,-38.8845484786523,-42.8080843531602,-273.096560563982
738508.43183009605854749680,-38.8383892330699,-42.7803888058107,-273.142719809564
738508.43183018651325255632,-38.9122440260018,-42.8450117496261,-273.068865016633
738508.43183027696795761585,-38.8753166295358,-42.8173162022767,-273.105792413099
738508.43183036730624735355,-38.9399395733512,-42.8819391460921,-273.041169469283
738508.43183045776095241308,-38.9214758751183,-42.8727072969756,-273.059633167516
738508.43183054821565747261,-38.9122440260018,-42.8634754478591,-273.059633167516
738508.43183063855394721031,-38.8937803277688,-42.8450117496261,-273.078096865749
738508.43183072900865226984,-38.8937803277688,-42.8542435987426,-273.078096865749
738508.43183081946335732937,-38.9122440260018,-42.8542435987426,-273.059633167516
738508.43183090991806238890,-38.9030121768853,-42.8542435987426,-273.078096865749
738508.43183100025635212660,-38.9122440260018,-42.8542435987426,-273.068865016633
738508.43183109071105718613,-39.0322580645161,-43.0019531846065,-272.939619129002
738508.43183118116576224566,-38.9214758751183,-42.8634754478591,-273.0504013184
738508.43183127150405198336,-38.8568529313028,-42.8080843531602,-273.115024262215
738508.43183136195875704288,-38.8476210821863,-42.7988525040437,-273.115024262215
738508.43183145241346210241,-38.9214758751183,-42.8819391460921,-273.041169469283
738508.43183154275175184011,-38.8568529313028,-42.7988525040437,-273.105792413099
738508.43183163320645689964,-38.8383892330699,-42.7896206549272,-273.124256111332
738508.43183172366116195917,-38.8753166295358,-42.8357799005097,-273.078096865749
738508.43183181411586701870,-38.8568529313028,-42.7988525040437,-273.105792413099
738508.43183190445415675640,-38.8383892330699,-42.7896206549272,-273.115024262215
738508.43183199490886181593,-38.8845484786523,-42.8080843531602,-273.068865016633
738508.43183208536356687546,-38.9030121768853,-42.8357799005097,-273.059633167516
738508.43183217570185661316,-38.8845484786523,-42.8080843531602,-273.078096865749
738508.43183226615656167269,-38.8845484786523,-42.8357799005097,-273.078096865749
738508.43183235661126673222,-38.9399395733512,-42.8911709952086,-273.031937620167
738508.43183244694955646992,-38.8753166295358,-42.8357799005097,-273.096560563982
738508.43183253740426152945,-38.8845484786523,-42.8450117496261,-273.078096865749
738508.43183262785896658897,-38.9399395733512,-42.9004028443251,-273.02270577105
738508.43183271831367164850,-38.8753166295358,-42.8357799005097,-273.096560563982
738508.43183280865196138620,-38.8568529313028,-42.8450117496261,-273.105792413099
738508.43183289910666644573,-38.9122440260018,-42.8634754478591,-273.059633167516
738508.43183298956137150526,-38.8845484786523,-42.8542435987426,-273.078096865749
738508.43183307989966124296,-38.9122440260018,-42.8173162022767,-273.013473921934
738508.43183317035436630249,-38.9491714224677,-42.7249977111118,-272.921155430769
738508.43183326080907136202,-38.9953306680502,-42.7157658619953,-272.828836939604
738508.43183335114736109972,-38.9214758751183,-42.7526932584613,-272.884228034303
738508.43183344160206615925,-38.746070741905,-43.0019531846065,-273.105792413099
738508.43183353205677121878,-38.746070741905,-43.0481124301889,-273.17964720603
738508.43183362251147627831,-38.8199255348369,-42.937330240791,-273.133487960448
738508.43183371284976601601,-38.8568529313028,-42.8819391460921,-273.096560563982
738508.43183380330447107553,-38.8845484786523,-42.8634754478591,-273.059633167516
738508.43183389375917613506,-38.9491714224677,-42.9004028443251,-273.004242072817
738508.43183398409746587276,-38.8753166295358,-42.8450117496261,-273.068865016633
738508.43183407455217093229,-38.8845484786523,-42.8265480513932,-273.0504013184
738508.43183416500687599182,-38.8845484786523,-42.8357799005097,-273.0504013184
738508.43183425534516572952,-38.9122440260018,-42.8450117496261,-273.02270577105
738508.43183434579987078905,-38.8937803277688,-42.8265480513932,-273.031937620167
738508.43183443625457584858,-38.9030121768853,-42.8173162022767,-273.02270577105
738508.43183452670928090811,-38.9584032715842,-42.8727072969756,-272.976546525468
738508.43183461704757064581,-39.0414899136326,-42.9465620899075,-272.884228034303
738508.43183470750227570534,-38.9676351207007,-42.8819391460921,-272.958082827235
738508.43183479795698076487,-38.9584032715842,-42.8634754478591,-272.967314676351
738508.43183488829527050257,-38.9122440260018,-42.8173162022767,-273.02270577105
738508.43183497874997556210,-38.9030121768853,-42.8173162022767,-273.02270577105
738508.43183506920468062162,-38.9676351207007,-42.8727072969756,-272.958082827235
738508.43183515965938568115,-38.9491714224677,-42.8357799005097,-272.958082827235
738508.43183524999767541885,-38.9768669698172,-42.8542435987426,-272.948850978118
738508.43183534045238047838,-38.9122440260018,-42.7988525040437,-273.004242072817
738508.43183543090708553791,-38.9030121768853,-42.7803888058107,-273.02270577105
738508.43183552124537527561,-38.8937803277688,-42.7988525040437,-273.02270577105
738508.43183561170008033514,-38.8937803277688,-42.7803888058107,-273.013473921934
738508.43183570215478539467,-38.8937803277688,-42.7711569566942,-273.013473921934
738508.43183579249307513237,-38.9214758751183,-42.7988525040437,-272.985778374584
738508.43183588294778019190,-38.9214758751183,-42.8173162022767,-272.985778374584
738508.43183597340248525143,-38.8937803277688,-42.7988525040437,-273.013473921934
738508.43183606385719031096,-38.8845484786523,-42.7988525040437,-273.013473921934
738508.43183615419548004866,-38.9491714224677,-42.8727072969756,-272.948850978118
738508.43183624465018510818,-38.9030121768853,-42.8265480513932,-273.013473921934
738508.43183633510489016771,-38.8845484786523,-42.8357799005097,-273.031937620167
738508.43183642544317990541,-38.9214758751183,-42.8542435987426,-272.985778374584
738508.43183651589788496494,-38.9214758751183,-42.8634754478591,-272.995010223701
738508.43183660635259002447,-38.9399395733512,-42.8911709952086,-272.976546525468
738508.43183669669087976217,-38.9307077242347,-42.9004028443251,-272.985778374584
738508.43183678714558482170,-38.9307077242347,-42.8911709952086,-272.976546525468
738508.43183687760028988123,-38.9584032715842,-42.9280983916745,-272.948850978118
738508.43183696805499494076,-38.8845484786523,-42.8265480513932,-273.041169469283
738508.43183705839328467846,-38.8753166295358,-42.8542435987426,-273.031937620167
738508.43183714884798973799,-38.8845484786523,-42.8634754478591,-273.02270577105
738508.43183723930269479752,-38.9122440260018,-42.8819391460921,-272.995010223701
738508.43183732964098453522,-38.9030121768853,-42.8911709952086,-273.004242072817
738508.43183742009568959475,-38.8937803277688,-42.8819391460921,-273.013473921934
738508.43183751055039465427,-38.9030121768853,-42.9096346934416,-273.004242072817
738508.43183760088868439198,-38.9030121768853,-42.8819391460921,-272.995010223701
738508.43183769134338945150,-38.9030121768853,-42.8819391460921,-273.004242072817
738508.43183778179809451103,-38.8937803277688,-42.8727072969756,-273.013473921934
738508.43183787225279957056,-38.8937803277688,-42.8819391460921,-273.013473921934
738508.43183796259108930826,-38.8568529313028,-42.8450117496261,-273.0504013184
738508.43183805304579436779,-38.9122440260018,-42.9004028443251,-272.995010223701
738508.43183814350049942732,-39.0137943662832,-42.99272133549,-272.884228034303
738508.43183823383878916502,-38.9860988189337,-42.99272133549,-272.911923581652
738508.43183832429349422455,-38.8660847804193,-42.8542435987426,-273.031937620167
738508.43183841474819928408,-38.8014618366039,-42.8173162022767,-273.087328714866
738508.43183850508648902178,-38.8291573839534,-42.8265480513932,-273.068865016633
738508.43183859554119408131,-38.8845484786523,-42.9004028443251,-273.013473921934
738508.43183868599589914083,-38.8476210821863,-42.8450117496261,-273.0504013184
738508.43183877645060420036,-38.8014618366039,-42.8265480513932,-273.087328714866
738508.43183886678889393806,-38.8845484786523,-42.8819391460921,-273.004242072817
738508.43183895724359899759,-38.8383892330699,-42.8450117496261,-273.0504013184
738508.43183904769830405712,-38.8106936857204,-42.8173162022767,-273.087328714866
738508.43183913803659379482,-38.8199255348369,-42.8265480513932,-273.078096865749
738508.43183922849129885435,-38.8937803277688,-42.9096346934416,-273.004242072817
738508.43183931894600391388,-38.8383892330699,-42.8265480513932,-273.059633167516
738508.43183940940070897341,-38.8291573839534,-42.8357799005097,-273.068865016633
738508.43183949973899871111,-38.9030121768853,-42.8911709952086,-272.995010223701
738508.43183959019370377064,-38.8937803277688,-42.8911709952086,-273.004242072817
738508.43183968064840883017,-38.9214758751183,-42.9004028443251,-272.976546525468
738508.43183977098669856787,-38.9214758751183,-42.9096346934416,-272.976546525468
738508.43183986144140362740,-38.9491714224677,-42.9188665425581,-272.967314676351
738508.43183995189610868692,-38.9214758751183,-42.8911709952086,-272.967314676351
738508.43184004223439842463,-38.8660847804193,-42.7342295602283,-272.967314676351
738508.43184013268910348415,-38.9491714224677,-42.6880703146458,-272.828836939604
738508.43184022314380854368,-38.9122440260018,-42.7988525040437,-272.828836939604
738508.43184031359851360321,-38.6999114963225,-43.0388805810724,-273.105792413099
738508.43184040393680334091,-38.727607043672,-43.011185033723,-273.142719809564
738508.43184049439150840044,-38.8106936857204,-42.9096346934416,-273.087328714866
738508.43184058484621345997,-38.8568529313028,-42.8727072969756,-273.0504013184
738508.43184067518450319767,-38.8753166295358,-42.8357799005097,-273.013473921934
738508.43184076563920825720,-38.8660847804193,-42.8357799005097,-273.02270577105
738508.43184085609391331673,-38.8753166295358,-42.8265480513932,-273.013473921934
738508.43184094643220305443,-38.9307077242347,-42.8911709952086,-272.967314676351
738508.43184103688690811396,-38.8845484786523,-42.8265480513932,-273.013473921934
738508.43184112734161317348,-38.9122440260018,-42.8727072969756,-272.976546525468
738508.43184121779631823301,-38.8937803277688,-42.8265480513932,-272.995010223701
738508.43184130813460797071,-38.8937803277688,-42.8450117496261,-272.995010223701
738508.43184139858931303024,-38.9491714224677,-42.8911709952086,-272.939619129002
738508.43184148904401808977,-38.9030121768853,-42.8542435987426,-272.995010223701
738508.43184157938230782747,-38.9030121768853,-42.8542435987426,-272.985778374584
738508.43184166983701288700,-39.0045625171667,-42.974257637257,-272.874996185186
738508.43184176029171794653,-38.9676351207007,-42.937330240791,-272.911923581652
738508.43184185063000768423,-38.8845484786523,-42.8450117496261,-272.995010223701
738508.43184194108471274376,-38.8845484786523,-42.8450117496261,-272.985778374584
738508.43184203153941780329,-38.9122440260018,-42.8542435987426,-272.958082827235
738508.43184212199412286282,-38.8845484786523,-42.8357799005097,-272.985778374584
738508.43184221233241260052,-38.8937803277688,-42.8173162022767,-272.967314676351
738508.43184230278711766005,-38.9491714224677,-42.8727072969756,-272.902691732536
738508.43184239324182271957,-38.9030121768853,-42.8265480513932,-272.958082827235
738508.43184248358011245728,-38.9491714224677,-42.8634754478591,-272.902691732536
738508.43184257403481751680,-38.9214758751183,-42.8265480513932,-272.939619129002
738508.43184266448952257633,-38.9491714224677,-42.8819391460921,-272.902691732536
738508.43184275482781231403,-38.9307077242347,-42.8450117496261,-272.930387279885
738508.43184284528251737356,-38.9122440260018,-42.8357799005097,-272.939619129002
738508.43184293573722243309,-38.9030121768853,-42.8265480513932,-272.948850978118
738508.43184302619192749262,-38.9030121768853,-42.8542435987426,-272.948850978118
738508.43184311653021723032,-38.9122440260018,-42.8727072969756,-272.948850978118
738508.43184320698492228985,-38.8568529313028,-42.8357799005097,-272.995010223701
738508.43184329743962734938,-38.9122440260018,-42.8911709952086,-272.948850978118
738508.43184338777791708708,-38.9399395733512,-42.9096346934416,-272.921155430769
738508.43184347823262214661,-38.9307077242347,-42.9280983916745,-272.930387279885
738508.43184356868732720613,-38.9214758751183,-42.9096346934416,-272.939619129002
738508.43184365914203226566,-38.9399395733512,-42.9280983916745,-272.911923581652
738508.43184374948032200336,-38.9491714224677,-42.9280983916745,-272.911923581652
738508.43184383993502706289,-38.9122440260018,-42.9096346934416,-272.939619129002
738508.43184393038973212242,-38.8753166295358,-42.8634754478591,-272.976546525468
738508.43184402072802186012,-38.8660847804193,-42.8634754478591,-272.985778374584
738508.43184411118272691965,-38.8660847804193,-42.8542435987426,-272.985778374584
738508.43184420163743197918,-38.8291573839534,-42.8450117496261,-273.02270577105
738508.43184429197572171688,-38.8383892330699,-42.8357799005097,-273.004242072817
738508.43184438243042677641,-38.8845484786523,-42.8911709952086,-272.967314676351
738508.43184447288513183594,-38.8291573839534,-42.8265480513932,-273.013473921934
738508.43184456333983689547,-38.8199255348369,-42.8173162022767,-273.004242072817
738508.43184465367812663317,-38.8383892330699,-42.8357799005097,-272.995010223701
738508.43184474413283169270,-38.8660847804193,-42.8727072969756,-272.967314676351
738508.43184483458753675222,-38.8106936857204,-42.8173162022767,-273.02270577105
738508.43184492492582648993,-38.7922299874874,-42.8080843531602,-273.031937620167
738508.43184501538053154945,-38.7829981383709,-42.7988525040437,-273.031937620167
738508.43184510583523660898,-38.9122440260018,-42.9004028443251,-272.911923581652
738508.43184519617352634668,-38.9030121768853,-42.937330240791,-272.902691732536
738508.43184528662823140621,-38.9214758751183,-42.9280983916745,-272.884228034303
738508.43184537708293646574,-38.8291573839534,-42.8542435987426,-272.967314676351
738508.43184546753764152527,-38.8199255348369,-42.8265480513932,-272.967314676351
738508.43184555787593126297,-38.7829981383709,-42.7988525040437,-272.976546525468
738508.43184564833063632250,-38.8106936857204,-42.8080843531602,-272.948850978118
738508.43184573878534138203,-38.9030121768853,-42.9096346934416,-272.847300637837
738508.43184582912363111973,-38.8660847804193,-42.8634754478591,-272.874996185186
738508.43184591957833617926,-38.8660847804193,-42.8727072969756,-272.874996185186
738508.43184601003304123878,-38.8845484786523,-42.8819391460921,-272.847300637837
738508.43184610037133097649,-38.8753166295358,-42.8911709952086,-272.86576433607
738508.43184619082603603601,-38.8753166295358,-42.8450117496261,-272.86576433607
738508.43184628128074109554,-38.8476210821863,-42.8357799005097,-272.884228034303
738508.43184637173544615507,-38.8753166295358,-42.8450117496261,-272.856532486953
738508.43184646207373589277,-38.8660847804193,-42.8357799005097,-272.847300637837
738508.43184655252844095230,-38.8753166295358,-42.8450117496261,-272.847300637837
738508.43184664298314601183,-38.8383892330699,-42.7711569566942,-272.902691732536
738508.43184673332143574953,-38.8753166295358,-42.8450117496261,-272.856532486953
738508.43184682377614080906,-38.9584032715842,-42.8634754478591,-272.736518448439
738508.43184691423084586859,-38.9953306680502,-42.7988525040437,-272.625736259041
738508.43184700456913560629,-39.0230262153996,-42.7249977111118,-272.551881466109
738508.43184709502384066582,-38.9122440260018,-42.9096346934416,-272.653431806391
738508.43184718547854572535,-38.727607043672,-43.0758079775384,-272.939619129002
738508.43184727593325078487,-38.8383892330699,-42.9834894863735,-272.856532486953
738508.43184736627154052258,-38.8937803277688,-42.8911709952086,-272.828836939604
738508.43184745672624558210,-38.8753166295358,-42.8265480513932,-272.83806878872
738508.43184754718095064163,-38.8753166295358,-42.7896206549272,-272.828836939604
738508.43184763751924037933,-38.8660847804193,-42.7803888058107,-272.83806878872
738508.43184772797394543886,-38.8383892330699,-42.7434614093448,-272.86576433607
738508.43184781842865049839,-38.9030121768853,-42.8080843531602,-272.791909543138
738508.43184790888335555792,-38.8383892330699,-42.7342295602283,-272.86576433607
738508.43184799922164529562,-38.8383892330699,-42.7157658619953,-272.86576433607
738508.43184808967635035515,-38.8568529313028,-42.7434614093448,-272.83806878872
738508.43184818013105541468,-38.9030121768853,-42.7711569566942,-272.791909543138
738508.43184827046934515238,-38.8660847804193,-42.7342295602283,-272.83806878872
738508.43184836092405021191,-38.8476210821863,-42.7065340128788,-272.847300637837
738508.43184845137875527143,-38.8845484786523,-42.7526932584613,-272.810373241371
738508.43184854171704500914,-38.9214758751183,-42.7711569566942,-272.782677694021
738508.43184863217175006866,-38.8568529313028,-42.7157658619953,-272.847300637837
738508.43184872262645512819,-38.9399395733512,-42.7896206549272,-272.754982146672
738508.43184881308116018772,-39.0230262153996,-42.8634754478591,-272.671895504624
738508.43184890341944992542,-38.8845484786523,-42.7157658619953,-272.810373241371
738508.43184899387415498495,-38.8568529313028,-42.6788384655293,-272.828836939604
738508.43184908432886004448,-38.8753166295358,-42.6973021637623,-272.801141392254
738508.43184917466714978218,-38.9122440260018,-42.7249977111118,-272.764213995788
738508.43184926512185484171,-38.8753166295358,-42.6880703146458,-272.801141392254
738508.43184935557655990124,-38.8753166295358,-42.6880703146458,-272.801141392254
738508.43184944591484963894,-38.8845484786523,-42.6973021637623,-272.791909543138
738508.43184953636955469847,-38.8660847804193,-42.6788384655293,-272.810373241371
738508.43184962682425975800,-38.8845484786523,-42.7249977111118,-272.782677694021
738508.43184971727896481752,-38.9214758751183,-42.7619251075777,-272.754982146672
738508.43184980761725455523,-38.9307077242347,-42.7896206549272,-272.745750297555
738508.43184989807195961475,-38.9491714224677,-42.8080843531602,-272.736518448439
738508.43184998852666467428,-38.9307077242347,-42.8080843531602,-272.754982146672
738508.43185007886495441198,-38.9399395733512,-42.8080843531602,-272.754982146672
738508.43185016931965947151,-38.9307077242347,-42.8173162022767,-272.764213995788
738508.43185025977436453104,-38.9030121768853,-42.7803888058107,-272.791909543138
738508.43185035011265426874,-38.9491714224677,-42.8265480513932,-272.745750297555
738508.43185044056735932827,-38.9399395733512,-42.8265480513932,-272.745750297555
738508.43185053102206438780,-38.8937803277688,-42.7619251075777,-272.791909543138
738508.43185062147676944733,-38.9399395733512,-42.8080843531602,-272.754982146672
738508.43185071181505918503,-38.9491714224677,-42.8080843531602,-272.745750297555
738508.43185080226976424456,-38.9214758751183,-42.8080843531602,-272.764213995788
738508.43185089272446930408,-38.9307077242347,-42.7988525040437,-272.764213995788
738508.43185098306275904179,-38.9122440260018,-42.7988525040437,-272.782677694021
738508.43185107351746410131,-38.9030121768853,-42.7803888058107,-272.791909543138
738508.43185116397216916084,-38.8753166295358,-42.7711569566942,-272.819605090487
738508.43185125431045889854,-38.8568529313028,-42.7342295602283,-272.83806878872
738508.43185134476516395807,-38.9399395733512,-42.8265480513932,-272.745750297555
738508.43185143521986901760,-38.9399395733512,-42.8080843531602,-272.754982146672
738508.43185152567457407713,-38.8660847804193,-42.7526932584613,-272.819605090487
738508.43185161601286381483,-38.8845484786523,-42.7619251075777,-272.801141392254
738508.43185170646756887436,-38.9122440260018,-42.7896206549272,-272.773445844905
738508.43185179692227393389,-38.9584032715842,-42.8173162022767,-272.727286599322
738508.43185188726056367159,-38.9122440260018,-42.7711569566942,-272.782677694021
738508.43185197771526873112,-38.9214758751183,-42.7803888058107,-272.764213995788
738508.43185206816997379065,-38.9030121768853,-42.7803888058107,-272.773445844905
738508.43185215862467885017,-38.8845484786523,-42.7619251075777,-272.801141392254
738508.43185224896296858788,-38.9030121768853,-42.7619251075777,-272.773445844905
738508.43185233941767364740,-39.0322580645161,-42.9096346934416,-272.644199957274
738508.43185242987237870693,-38.9491714224677,-42.7988525040437,-272.745750297555
738508.43185252021066844463,-38.9399395733512,-42.8080843531602,-272.736518448439
738508.43185261066537350416,-38.9491714224677,-42.7896206549272,-272.745750297555
738508.43185270112007856369,-38.9584032715842,-42.8173162022767,-272.736518448439
738508.43185279145836830139,-38.9399395733512,-42.7896206549272,-272.745750297555
738508.43185288191307336092,-38.8937803277688,-42.7434614093448,-272.801141392254
738508.43185297236777842045,-38.9491714224677,-42.7803888058107,-272.754982146672
738508.43185306282248347998,-38.8845484786523,-42.7157658619953,-272.810373241371
738508.43185315316077321768,-38.8660847804193,-42.6880703146458,-272.828836939604
738508.43185324361547827721,-38.9399395733512,-42.7619251075777,-272.754982146672
738508.43185333407018333673,-38.8753166295358,-42.6880703146458,-272.819605090487
738508.43185342440847307444,-38.9122440260018,-42.7065340128788,-272.782677694021
738508.43185351486317813396,-38.9584032715842,-42.7619251075777,-272.745750297555
738508.43185360531788319349,-38.9122440260018,-42.6973021637623,-272.754982146672
738508.43185369565617293119,-38.9214758751183,-42.577288125248,-272.690359202857
738508.43185378611087799072,-38.9953306680502,-42.5126651814325,-272.561113315226
738508.43185387656558305025,-38.9122440260018,-42.6696066164128,-272.607272560808
738508.43185396702028810978,-38.7183751945555,-42.9004028443251,-272.782677694021
738508.43185405735857784748,-38.7645344401379,-42.9096346934416,-272.893459883419
738508.43185414781328290701,-38.9030121768853,-42.8080843531602,-272.782677694021
738508.43185423826798796654,-38.9584032715842,-42.7896206549272,-272.745750297555
738508.43185432860627770424,-38.9584032715842,-42.7249977111118,-272.727286599322
738508.43185441906098276377,-38.9399395733512,-42.7157658619953,-272.754982146672
738508.43185450951568782330,-38.9860988189337,-42.7526932584613,-272.708822901089
738508.43185459985397756100,-38.9860988189337,-42.7526932584613,-272.708822901089
738508.43185469030868262053,-38.9953306680502,-42.7526932584613,-272.708822901089
738508.43185478076338768005,-38.9676351207007,-42.7249977111118,-272.727286599322
738508.43185487121809273958,-38.9584032715842,-42.7065340128788,-272.727286599322
738508.43185496155638247728,-38.9953306680502,-42.7434614093448,-272.699591051973
738508.43185505201108753681,-38.9860988189337,-42.7342295602283,-272.708822901089
738508.43185514246579259634,-38.9399395733512,-42.6696066164128,-272.754982146672
738508.43185523280408233404,-38.9307077242347,-42.6603747672964,-272.764213995788
738508.43185532325878739357,-39.0045625171667,-42.7249977111118,-272.690359202857
738508.43185541371349245310,-38.9399395733512,-42.6696066164128,-272.754982146672
738508.43185550405178219080,-38.9768669698172,-42.6880703146458,-272.718054750206
738508.43185559450648725033,-38.9953306680502,-42.7342295602283,-272.690359202857
738508.43185568496119230986,-38.9860988189337,-42.6973021637623,-272.699591051973
738508.43185577541589736938,-39.17996765038,-42.8819391460921,-272.505722220527
738508.43185586575418710709,-39.0691854609821,-42.7434614093448,-272.551881466109
738508.43185595620889216661,-39.0137943662832,-42.6973021637623,-272.662663655507
738508.43185604666359722614,-38.9584032715842,-42.6326792199469,-272.718054750206
738508.43185613700188696384,-38.9491714224677,-42.6419110690634,-272.718054750206
738508.43185622745659202337,-39.0599536118656,-42.7342295602283,-272.616504409925
738508.43185631791129708290,-39.0507217627491,-42.7065340128788,-272.616504409925
738508.43185640836600214243,-39.0414899136326,-42.7065340128788,-272.625736259041
