time_dn,ecg_projection_ll_ra_mV,ecg_projection_la_ra_mV,ecg_projection_vx_rl_mV
738508.48798871599137783051,-0.00923184911648915,293.655888546403,-302.509231849116
738508.48798880644608289003,-0.00923184911648915,294.699087496567,-302.509231849116
738508.48798889690078794956,-0.00923184911648915,293.674352244636,-302.509231849116
738508.48798898735549300909,-0.00923184911648915,294.745246742149,-302.509231849116
738508.48798907781019806862,-0.00923184911648915,293.831293679617,-302.509231849116
738508.48798916814848780632,-0.00923184911648915,294.745246742149,-302.509231849116
738508.48798925860319286585,-0.00923184911648915,293.914380321665,-302.509231849116
738508.48798934905789792538,-0.00923184911648915,294.800637836848,-302.509231849116
738508.48798943951260298491,-0.00923184911648915,294.034394360179,-302.509231849116
738508.48798952996730804443,-0.00923184911648915,294.68985564745,-302.509231849116
738508.48798962030559778214,-0.00923184911648915,294.172872096927,-302.509231849116
738508.48798971076030284166,-0.00923184911648915,294.662160100101,-302.509231849116
738508.48798980121500790119,-0.00923184911648915,294.237495040742,-302.509231849116
738508.48798989166971296072,-0.00923184911648915,294.588305307169,-302.509231849116
738508.48798998212441802025,-0.00923184911648915,294.597537156285,-302.509231849116
738508.48799007257912307978,-0.00923184911648915,294.523682363353,-302.509231849116
738508.48799016291741281748,-0.00923184911648915,295.049897762993,-302.509231849116
738508.48799025337211787701,-0.00923184911648915,294.117481002228,-302.509231849116
738508.48799034382682293653,-0.00923184911648915,295.077593310343,-302.509231849116
738508.48799043428152799606,-0.00923184911648915,294.16364024781,-302.509231849116
738508.48799052473623305559,-0.00923184911648915,295.022202215644,-302.509231849116
738508.48799061519093811512,-0.00923184911648915,294.329813531907,-302.509231849116
738508.48799070552922785282,-0.00923184911648915,294.957579271828,-302.509231849116
738508.48799079598393291235,-0.00923184911648915,294.431363872188,-302.509231849116
738508.48799088643863797188,-0.00923184911648915,294.87449262978,-302.509231849116
738508.48799097689334303141,-0.00923184911648915,294.422132023072,-302.509231849116
738508.48799106734804809093,-0.00923184911648915,294.726783043916,-302.509231849116
738508.48799115780275315046,-0.00923184911648915,294.542146061586,-302.509231849116
738508.48799124814104288816,-0.00923184911648915,294.495986816004,-302.509231849116
738508.48799133859574794769,-0.00923184911648915,294.625232703635,-302.509231849116
738508.48799142905045300722,-0.00923184911648915,294.339045381024,-302.509231849116
738508.48799151950515806675,-0.00923184911648915,294.662160100101,-302.509231849116
738508.48799160995986312628,-0.00923184911648915,294.154408398694,-302.509231849116
738508.48799170029815286398,-0.00923184911648915,294.680623798334,-302.509231849116
738508.48799179075285792351,-0.00923184911648915,293.951307718131,-302.509231849116
738508.48799188120756298304,-0.00923184911648915,294.634464552751,-302.509231849116
738508.48799197166226804256,-0.00923184911648915,293.988235114597,-302.509231849116
738508.48799206211697310209,-0.00923184911648915,294.459059419538,-302.509231849116
738508.48799215257167816162,-0.00923184911648915,293.997466963713,-302.509231849116
738508.48799224290996789932,-0.00923184911648915,294.182103946043,-302.509231849116
738508.48799233336467295885,-0.00923184911648915,293.895916623432,-302.509231849116
738508.48799242381937801838,-0.00923184911648915,293.711279641102,-302.509231849116
738508.48799251427408307791,-0.00923184911648915,293.63742484817,-302.509231849116
738508.48799260472878813744,-0.00923184911648915,293.258919034394,-302.509231849116
738508.48799269518349319696,-0.00923184911648915,293.831293679617,-302.509231849116
738508.48799278552178293467,-0.00923184911648915,293.13890499588,-302.509231849116
738508.48799287597648799419,-0.00923184911648915,293.471251564074,-302.509231849116
738508.48799296643119305372,-0.00923184911648915,292.705008087405,-302.509231849116
738508.48799305688589811325,-0.00923184911648915,293.212759788812,-302.509231849116
738508.48799314734060317278,-0.00923184911648915,292.326502273629,-302.509231849116
738508.48799323779530823231,-0.00923184911648915,293.166600543229,-302.509231849116
738508.48799332813359797001,-0.00923184911648915,292.160328989532,-302.509231849116
738508.48799341858830302954,-0.00923184911648915,293.258919034394,-302.509231849116
738508.48799350904300808907,-0.00923184911648915,292.289574877163,-302.509231849116
738508.48799359949771314859,-0.00923184911648915,293.314310129093,-302.509231849116
738508.48799368995241820812,-0.00923184911648915,292.234183782464,-302.509231849116
738508.48799378029070794582,-0.00923184911648915,292.566530350658,-302.509231849116
738508.48799387074541300535,-0.00923184911648915,292.751167332987,-302.509231849116
738508.48799396120011806488,-0.00923184911648915,292.178792687765,-302.509231849116
738508.48799405165482312441,-0.00923184911648915,292.529602954192,-302.509231849116
738508.48799414210952818394,-0.00923184911648915,291.791055024873,-302.509231849116
738508.48799423256423324347,-0.00923184911648915,292.400357066561,-302.509231849116
738508.48799432290252298117,-0.00923184911648915,291.449476607562,-302.509231849116
738508.48799441335722804070,-0.00923184911648915,292.169560838649,-302.509231849116
738508.48799450381193310022,-0.00923184911648915,291.107898190252,-302.509231849116
738508.48799459426663815975,-0.00923184911648915,291.855677968688,-302.509231849116
738508.48799468472134321928,-0.00923184911648915,290.701696829127,-302.509231849116
738508.48799477517604827881,-0.00923184911648915,291.569490646077,-302.509231849116
738508.48799486551433801651,-0.00923184911648915,290.341654713584,-302.509231849116
738508.48799495596904307604,-0.00923184911648915,291.292535172582,-302.509231849116
738508.48799504642374813557,-0.00923184911648915,290.249336222419,-302.509231849116
738508.48799513687845319510,-0.00923184911648915,290.969420453505,-302.509231849116
738508.48799522733315825462,-0.00923184911648915,290.083162938322,-302.509231849116
738508.48799531778786331415,-0.00923184911648915,290.794015320292,-302.509231849116
738508.48799540812615305185,-0.00923184911648915,290.046235541856,-302.509231849116
738508.48799549858085811138,-0.00923184911648915,290.618610187078,-302.509231849116
738508.48799558903556317091,-0.00923184911648915,290.092394787439,-302.509231849116
738508.48799567949026823044,-0.00923184911648915,289.769280068361,-302.509231849116
738508.48799576994497328997,-0.00923184911648915,290.618610187078,-302.509231849116
738508.48799586028326302767,-0.00923184911648915,289.621570482498,-302.509231849116
738508.48799595073796808720,-0.00923184911648915,290.332422864467,-302.509231849116
738508.48799604119267314672,-0.00923184911648915,289.196905423139,-302.509231849116
738508.48799613164737820625,-0.00923184911648915,290.110858485672,-302.509231849116
738508.48799622210208326578,-0.00923184911648915,289.039963988159,-302.509231849116
738508.48799631255678832531,-0.00923184911648915,289.843134861293,-302.509231849116
738508.48799640289507806301,-0.00923184911648915,288.855327005829,-302.509231849116
738508.48799649334978312254,-0.00923184911648915,289.5107882931,-302.509231849116
738508.48799658380448818207,-0.00923184911648915,288.716849269082,-302.509231849116
738508.48799667425919324160,-0.00923184911648915,289.270760216071,-302.509231849116
738508.48799676471389830112,-0.00923184911648915,288.836863307596,-302.509231849116
738508.48799685516860336065,-0.00923184911648915,289.086123233741,-302.509231849116
738508.48799694550689309835,-0.00923184911648915,288.744544816431,-302.509231849116
738508.48799703596159815788,-0.00923184911648915,288.938413647877,-302.509231849116
738508.48799712641630321741,-0.00923184911648915,288.818399609363,-302.509231849116
738508.48799721687100827694,-0.00923184911648915,288.64299447615,-302.509231849116
738508.48799730732571333647,-0.00923184911648915,288.809167760247,-302.509231849116
738508.48799739778041839600,-0.00923184911648915,288.430661946471,-302.509231849116
738508.48799748811870813370,-0.00923184911648915,289.095355082858,-302.509231849116
738508.48799757857341319323,-0.00923184911648915,288.227561265908,-302.509231849116
738508.48799766902811825275,-0.00923184911648915,289.049195837275,-302.509231849116
738508.48799775948282331228,-0.00923184911648915,288.319879757073,-302.509231849116
738508.48799784993752837181,-0.00923184911648915,288.98457289346,-302.509231849116
738508.48799794027581810951,-0.00923184911648915,288.486053041169,-302.509231849116
738508.48799803073052316904,-0.00923184911648915,288.892254402295,-302.509231849116
738508.48799812118522822857,-0.00923184911648915,288.550675984985,-302.509231849116
738508.48799821163993328810,-0.00923184911648915,288.772240363781,-302.509231849116
738508.48799830209463834763,-0.00923184911648915,288.735312967315,-302.509231849116
738508.48799839254934340715,-0.00923184911648915,288.661458174383,-302.509231849116
738508.48799848288763314486,-0.00923184911648915,288.892254402295,-302.509231849116
738508.48799857334233820438,-0.00923184911648915,288.569139683218,-302.509231849116
738508.48799866379704326391,-0.00923184911648915,289.030732139042,-302.509231849116
738508.48799875425174832344,-0.00923184911648915,288.495284890286,-302.509231849116
738508.48799884470645338297,-0.00923184911648915,289.086123233741,-302.509231849116
738508.48799893516115844250,-0.00923184911648915,288.329111606189,-302.509231849116
738508.48799902549944818020,-0.00923184911648915,289.16920987579,-302.509231849116
738508.48799911595415323973,-0.00923184911648915,288.27372051149,-302.509231849116
738508.48799920640885829926,-0.00923184911648915,289.187673574023,-302.509231849116
738508.48799929686356335878,-0.00923184911648915,288.661458174383,-302.509231849116
738508.48799938731826841831,-0.00923184911648915,288.883022553178,-302.509231849116
738508.48799947777297347784,-0.00923184911648915,288.79993591113,-302.509231849116
738508.48799956811126321554,-0.00923184911648915,288.726081118198,-302.509231849116
738508.48799965856596827507,-0.00923184911648915,288.883022553178,-302.509231849116
738508.48799974902067333460,-0.00923184911648915,288.578371532334,-302.509231849116
738508.48799983947537839413,-0.00923184911648915,288.929181798761,-302.509231849116
738508.48799992993008345366,-0.00923184911648915,288.439893795587,-302.509231849116
738508.48800002026837319136,-0.00923184911648915,289.039963988159,-302.509231849116
738508.48800011072307825089,-0.00923184911648915,288.264488662374,-302.509231849116
738508.48800020117778331041,-0.00923184911648915,289.076891384625,-302.509231849116
738508.48800029163248836994,-0.00923184911648915,288.227561265908,-302.509231849116
738508.48800038208719342947,-0.00923184911648915,289.003036591693,-302.509231849116
738508.48800047254189848900,-0.00923184911648915,288.070619830927,-302.509231849116
738508.48800056288018822670,-0.00923184911648915,289.14151432844,-302.509231849116
738508.48800065333489328623,-0.00923184911648915,288.144474623859,-302.509231849116
738508.48800074378959834576,-0.00923184911648915,289.067659535508,-302.509231849116
738508.48800083424430340528,-0.00923184911648915,288.08908352916,-302.509231849116
738508.48800092469900846481,-0.00923184911648915,289.067659535508,-302.509231849116
738508.48800101515371352434,-0.00923184911648915,288.199865718558,-302.509231849116
738508.48800110549200326204,-0.00923184911648915,289.067659535508,-302.509231849116
738508.48800119594670832157,-0.00923184911648915,288.938413647877,-302.509231849116
738508.48800128640141338110,-0.00923184911648915,288.246024964141,-302.509231849116
738508.48800137685611844063,-0.00923184911648915,288.993804742576,-302.509231849116
738508.48800146731082350016,-0.00923184911648915,288.135242774743,-302.509231849116
738508.48800155776552855968,-0.00923184911648915,289.039963988159,-302.509231849116
738508.48800164810381829739,-0.00923184911648915,288.107547227393,-302.509231849116
738508.48800173855852335691,-0.00923184911648915,289.095355082858,-302.509231849116
738508.48800182901322841644,-0.00923184911648915,288.11677907651,-302.509231849116
738508.48800191946793347597,-0.00923184911648915,289.14151432844,-302.509231849116
738508.48800200992263853550,-0.00923184911648915,288.153706472976,-302.509231849116
738508.48800210026092827320,-0.00923184911648915,289.150746177557,-302.509231849116
738508.48800219071563333273,-0.00923184911648915,288.227561265908,-302.509231849116
738508.48800228117033839226,-0.00923184911648915,289.076891384625,-302.509231849116
738508.48800237162504345179,-0.00923184911648915,288.30141605884,-302.509231849116
738508.48800246207974851131,-0.00923184911648915,289.012268440809,-302.509231849116
738508.48800255253445357084,-0.00923184911648915,288.439893795587,-302.509231849116
738508.48800264287274330854,-0.00923184911648915,288.929181798761,-302.509231849116
738508.48800273332744836807,-0.00923184911648915,288.45835749382,-302.509231849116
738508.48800282378215342760,-0.00923184911648915,288.772240363781,-302.509231849116
738508.48800291423685848713,-0.00923184911648915,288.6152989288,-302.509231849116
738508.48800300469156354666,-0.00923184911648915,288.126010925626,-302.509231849116
738508.48800309514626860619,-0.00923184911648915,289.104586931974,-302.509231849116
738508.48800318548455834389,-0.00923184911648915,288.190633869442,-302.509231849116
738508.48800327593926340342,-0.00923184911648915,289.159978026673,-302.509231849116
738508.48800336639396846294,-0.00923184911648915,288.236793115024,-302.509231849116
738508.48800345684867352247,-0.00923184911648915,289.058427686392,-302.509231849116
738508.48800354730337858200,-0.00923184911648915,288.27372051149,-302.509231849116
738508.48800363775808364153,-0.00923184911648915,289.003036591693,-302.509231849116
738508.48800372809637337923,-0.00923184911648915,288.27372051149,-302.509231849116
738508.48800381855107843876,-0.00923184911648915,288.846095156713,-302.509231849116
738508.48800390900578349829,-0.00923184911648915,288.292184209723,-302.509231849116
738508.48800399946048855782,-0.00923184911648915,288.569139683218,-302.509231849116
738508.48800408991519361734,-0.00923184911648915,288.439893795587,-302.509231849116
738508.48800418025348335505,-0.00923184911648915,288.532212286752,-302.509231849116
738508.48800427070818841457,-0.00923184911648915,288.587603381451,-302.509231849116
738508.48800436116289347410,-0.00923184911648915,288.347575304422,-302.509231849116
738508.48800445161759853363,-0.00923184911648915,288.698385570849,-302.509231849116
738508.48800454207230359316,-0.00923184911648915,288.30141605884,-302.509231849116
738508.48800463252700865269,-0.00923184911648915,288.763008514664,-302.509231849116
738508.48800472286529839039,-0.00923184911648915,288.209097567675,-302.509231849116
738508.48800481332000344992,-0.00923184911648915,288.966109195227,-302.509231849116
738508.48800490377470850945,-0.00923184911648915,288.30141605884,-302.509231849116
738508.48800499422941356897,-0.00923184911648915,288.79993591113,-302.509231849116
738508.48800508468411862850,-0.00923184911648915,288.30141605884,-302.509231849116
738508.48800517513882368803,-0.00923184911648915,288.587603381451,-302.509231849116
738508.48800526547711342573,-0.00923184911648915,288.347575304422,-302.509231849116
738508.48800535593181848526,-0.00923184911648915,288.393734550005,-302.509231849116
738508.48800544638652354479,-0.00923184911648915,288.375270851772,-302.509231849116
738508.48800553684122860432,-0.00923184911648915,288.162938322092,-302.509231849116
738508.48800562729593366385,-0.00923184911648915,288.292184209723,-302.509231849116
738508.48800571775063872337,-0.00923184911648915,287.821359904782,-302.509231849116
738508.48800580808892846107,-0.00923184911648915,288.227561265908,-302.509231849116
738508.48800589854363352060,-0.00923184911648915,287.424390392773,-302.509231849116
738508.48800598899833858013,-0.00923184911648915,288.061387981811,-302.509231849116
738508.48800607945304363966,-0.00923184911648915,287.128971221046,-302.509231849116
738508.48800616990774869919,-0.00923184911648915,287.802896206549,-302.509231849116
738508.48800626024603843689,-0.00923184911648915,286.732001709037,-302.509231849116
738508.48800635070074349642,-0.00923184911648915,287.636722922452,-302.509231849116
738508.48800644115544855595,-0.00923184911648915,286.56582842494,-302.509231849116
738508.48800653161015361547,-0.00923184911648915,287.40592669454,-302.509231849116
738508.48800662206485867500,-0.00923184911648915,286.418118839076,-302.509231849116
738508.48800671251956373453,-0.00923184911648915,286.815088351085,-302.509231849116
738508.48800680285785347223,-0.00923184911648915,286.870479445784,-302.509231849116
738508.48800689331255853176,-0.00923184911648915,286.418118839076,-302.509231849116
738508.48800698376726359129,-0.00923184911648915,286.842783898434,-302.509231849116
738508.48800707422196865082,-0.00923184911648915,286.178090762047,-302.509231849116
738508.48800716467667371035,-0.00923184911648915,286.787392803735,-302.509231849116
738508.48800725513137876987,-0.00923184911648915,286.002685628834,-302.509231849116
738508.48800734546966850758,-0.00923184911648915,286.824320200201,-302.509231849116
738508.48800743592437356710,-0.00923184911648915,285.864207892087,-302.509231849116
738508.48800752637907862663,-0.00923184911648915,286.768929105502,-302.509231849116
738508.48800761683378368616,-0.00923184911648915,285.799584948271,-302.509231849116
738508.48800770728848874569,-0.00923184911648915,286.833552049318,-302.509231849116
738508.48800779774319380522,-0.00923184911648915,285.836512344737,-302.509231849116
738508.48800788808148354292,-0.00923184911648915,286.778160954619,-302.509231849116
738508.48800797853618860245,-0.00923184911648915,285.808816797388,-302.509231849116
738508.48800806899089366198,-0.00923184911648915,286.759697256386,-302.509231849116
738508.48800815944559872150,-0.00923184911648915,285.845744193854,-302.509231849116
738508.48800824990030378103,-0.00923184911648915,286.667378765221,-302.509231849116
738508.48800834023859351873,-0.00923184911648915,286.030381176183,-302.509231849116
738508.48800843069329857826,-0.00923184911648915,286.639683217872,-302.509231849116
738508.48800852114800363779,-0.00923184911648915,286.72276985992,-302.509231849116
738508.48800861160270869732,-0.00923184911648915,285.873439741203,-302.509231849116
738508.48800870205741375685,-0.00923184911648915,286.842783898434,-302.509231849116
738508.48800879251211881638,-0.00923184911648915,285.882671590319,-302.509231849116
738508.48800888285040855408,-0.00923184911648915,286.925870540483,-302.509231849116
738508.48800897330511361361,-0.00923184911648915,285.938062685018,-302.509231849116
738508.48800906375981867313,-0.00923184911648915,286.935102389599,-302.509231849116
738508.48800915421452373266,-0.00923184911648915,285.956526383251,-302.509231849116
738508.48800924466922879219,-0.00923184911648915,286.842783898434,-302.509231849116
738508.48800933512393385172,-0.00923184911648915,286.002685628834,-302.509231849116
738508.48800942546222358942,-0.00923184911648915,286.842783898434,-302.509231849116
738508.48800951591692864895,-0.00923184911648915,286.141163365581,-302.509231849116
738508.48800960637163370848,-0.00923184911648915,286.824320200201,-302.509231849116
738508.48800969682633876801,-0.00923184911648915,286.307336649678,-302.509231849116
738508.48800978728104382753,-0.00923184911648915,286.787392803735,-302.509231849116
738508.48800987773574888706,-0.00923184911648915,286.473509933775,-302.509231849116
738508.48800996807403862476,-0.00923184911648915,286.732001709037,-302.509231849116
738508.48801005852874368429,-0.00923184911648915,286.685842463454,-302.509231849116
738508.48801014898344874382,-0.00923184911648915,286.602755821406,-302.509231849116
738508.48801023943815380335,-0.00923184911648915,286.805856501968,-302.509231849116
738508.48801032989285886288,-0.00923184911648915,286.464278084658,-302.509231849116
738508.48801042023114860058,-0.00923184911648915,287.128971221046,-302.509231849116
738508.48801051068585366011,-0.00923184911648915,286.279641102329,-302.509231849116
738508.48801060114055871964,-0.00923184911648915,287.110507522813,-302.509231849116
738508.48801069159526377916,-0.00923184911648915,286.371959593493,-302.509231849116
738508.48801078204996883869,-0.00923184911648915,287.055116428114,-302.509231849116
738508.48801087250467389822,-0.00923184911648915,286.53813287759,-302.509231849116
738508.48801096284296363592,-0.00923184911648915,286.972029786065,-302.509231849116
738508.48801105329766869545,-0.00923184911648915,286.611987670522,-302.509231849116
738508.48801114375237375498,-0.00923184911648915,287.082811975463,-302.509231849116
738508.48801123420707881451,-0.00923184911648915,287.267448957793,-302.509231849116
738508.48801132466178387403,-0.00923184911648915,287.368999298074,-302.509231849116
738508.48801141511648893356,-0.00923184911648915,287.738273262734,-302.509231849116
738508.48801150545477867126,-0.00923184911648915,287.645954771569,-302.509231849116
738508.48801159590948373079,-0.00923184911648915,288.153706472976,-302.509231849116
738508.48801168636418879032,-0.00923184911648915,287.784432508316,-302.509231849116
738508.48801177681889384985,-0.00923184911648915,288.513748588519,-302.509231849116
738508.48801186727359890938,-0.00923184911648915,287.941373943297,-302.509231849116
738508.48801195772830396891,-0.00923184911648915,288.763008514664,-302.509231849116
738508.48801204806659370661,-0.00923184911648915,288.079851680044,-302.509231849116
738508.48801213852129876614,-0.00923184911648915,289.076891384625,-302.509231849116
738508.48801222897600382566,-0.00923184911648915,288.550675984985,-302.509231849116
738508.48801231943070888519,-0.00923184911648915,288.818399609363,-302.509231849116
738508.48801240988541394472,-0.00923184911648915,288.818399609363,-302.509231849116
738508.48801250022370368242,-0.00923184911648915,288.855327005829,-302.509231849116
738508.48801259067840874195,-0.00923184911648915,288.98457289346,-302.509231849116
738508.48801268113311380148,-0.00923184911648915,288.864558854946,-302.509231849116
738508.48801277158781886101,-0.00923184911648915,289.261528366955,-302.509231849116
738508.48801286204252392054,-0.00923184911648915,288.772240363781,-302.509231849116
738508.48801295249722898006,-0.00923184911648915,289.390774254585,-302.509231849116
738508.48801304283551871777,-0.00923184911648915,288.772240363781,-302.509231849116
738508.48801313329022377729,-0.00923184911648915,289.5107882931,-302.509231849116
738508.48801322374492883682,-0.00923184911648915,288.735312967315,-302.509231849116
738508.48801331419963389635,-0.00923184911648915,289.658497878964,-302.509231849116
738508.48801340465433895588,-0.00923184911648915,288.744544816431,-302.509231849116
738508.48801349510904401541,-0.00923184911648915,289.686193426313,-302.509231849116
738508.48801358544733375311,-0.00923184911648915,288.781472212897,-302.509231849116
738508.48801367590203881264,-0.00923184911648915,289.833903012177,-302.509231849116
738508.48801376635674387217,-0.00923184911648915,288.82763145848,-302.509231849116
738508.48801385681144893169,-0.00923184911648915,289.833903012177,-302.509231849116
738508.48801394726615399122,-0.00923184911648915,288.901486251411,-302.509231849116
738508.48801403772085905075,-0.00923184911648915,289.049195837275,-302.509231849116
738508.48801412805914878845,-0.00923184911648915,289.603106784265,-302.509231849116
738508.48801421851385384798,-0.00923184911648915,288.98457289346,-302.509231849116
738508.48801430896855890751,-0.00923184911648915,289.750816370128,-302.509231849116
738508.48801439942326396704,-0.00923184911648915,288.966109195227,-302.509231849116
738508.48801448987796902657,-0.00923184911648915,289.833903012177,-302.509231849116
738508.48801458021625876427,-0.00923184911648915,288.910718100528,-302.509231849116
738508.48801467067096382380,-0.00923184911648915,290.03700369274,-302.509231849116
738508.48801476112566888332,-0.00923184911648915,289.076891384625,-302.509231849116
738508.48801485158037394285,-0.00923184911648915,290.120090334788,-302.509231849116
738508.48801494203507900238,-0.00923184911648915,289.196905423139,-302.509231849116
738508.48801503248978406191,-0.00923184911648915,290.120090334788,-302.509231849116
738508.48801512282807379961,-0.00923184911648915,289.279992065188,-302.509231849116
738508.48801521328277885914,-0.00923184911648915,290.166249580371,-302.509231849116
738508.48801530373748391867,-0.00923184911648915,289.344615009003,-302.509231849116
738508.48801539419218897820,-0.00923184911648915,290.129322183905,-302.509231849116
738508.48801548464689403772,-0.00923184911648915,289.492324594867,-302.509231849116
738508.48801557510159909725,-0.00923184911648915,290.064699240089,-302.509231849116
738508.48801566543988883495,-0.00923184911648915,289.640034180731,-302.509231849116
738508.48801575589459389448,-0.00923184911648915,289.963148899808,-302.509231849116
738508.48801584634929895401,-0.00923184911648915,289.833903012177,-302.509231849116
738508.48801593680400401354,-0.00923184911648915,289.409237952818,-302.509231849116
738508.48801602725870907307,-0.00923184911648915,290.406277657399,-302.509231849116
738508.48801611771341413260,-0.00923184911648915,289.436933500168,-302.509231849116
738508.48801620805170387030,-0.00923184911648915,290.470900601215,-302.509231849116
738508.48801629850640892982,-0.00923184911648915,289.612338633381,-302.509231849116
738508.48801638896111398935,-0.00923184911648915,290.498596148564,-302.509231849116
738508.48801647941581904888,-0.00923184911648915,289.723120822779,-302.509231849116
738508.48801656987052410841,-0.00923184911648915,290.517059846797,-302.509231849116
738508.48801666020881384611,-0.00923184911648915,289.898525955992,-302.509231849116
738508.48801675066351890564,-0.00923184911648915,290.452436902982,-302.509231849116
738508.48801684111822396517,-0.00923184911648915,290.055467390973,-302.509231849116
738508.48801693157292902470,-0.00923184911648915,290.332422864467,-302.509231849116
738508.48801702202763408422,-0.00923184911648915,290.129322183905,-302.509231849116
738508.48801711248233914375,-0.00923184911648915,290.258568071535,-302.509231849116
738508.48801720282062888145,-0.00923184911648915,290.295495468001,-302.509231849116
738508.48801729327533394098,-0.00923184911648915,290.166249580371,-302.509231849116
738508.48801738373003900051,-0.00923184911648915,290.53552354503,-302.509231849116
738508.48801747418474406004,-0.00923184911648915,290.120090334788,-302.509231849116
738508.48801756463944911957,-0.00923184911648915,290.609378337962,-302.509231849116
738508.48801765509415417910,-0.00923184911648915,290.046235541856,-302.509231849116
738508.48801774543244391680,-0.00923184911648915,290.757087923826,-302.509231849116
738508.48801783588714897633,-0.00923184911648915,290.138554033021,-302.509231849116
738508.48801792634185403585,-0.00923184911648915,290.710928678243,-302.509231849116
738508.48801801679655909538,-0.00923184911648915,290.240104373302,-302.509231849116
738508.48801810725126415491,-0.00923184911648915,290.618610187078,-302.509231849116
738508.48801819770596921444,-0.00923184911648915,290.37858211005,-302.509231849116
738508.48801828804425895214,-0.00923184911648915,290.53552354503,-302.509231849116
738508.48801837849896401167,-0.00923184911648915,290.526291695914,-302.509231849116
738508.48801846895366907120,-0.00923184911648915,290.452436902982,-302.509231849116
738508.48801855940837413073,-0.00923184911648915,290.701696829127,-302.509231849116
738508.48801864986307919025,-0.00923184911648915,290.313959166234,-302.509231849116
738508.48801874020136892796,-0.00923184911648915,290.87710196234,-302.509231849116
738508.48801883065607398748,-0.00923184911648915,290.313959166234,-302.509231849116
738508.48801892111077904701,-0.00923184911648915,290.932493057039,-302.509231849116
738508.48801901156548410654,-0.00923184911648915,290.221640675069,-302.509231849116
738508.48801910202018916607,-0.00923184911648915,291.043275246437,-302.509231849116
738508.48801919247489422560,-0.00923184911648915,290.157017731254,-302.509231849116
738508.48801928281318396330,-0.00923184911648915,291.06173894467,-302.509231849116
738508.48801937326788902283,-0.00923184911648915,290.110858485672,-302.509231849116
738508.48801946372259408236,-0.00923184911648915,291.070970793786,-302.509231849116
738508.48801955417729914188,-0.00923184911648915,290.590914639729,-302.509231849116
738508.48801964463200420141,-0.00923184911648915,290.544755394147,-302.509231849116
738508.48801973508670926094,-0.00923184911648915,290.812479018525,-302.509231849116
738508.48801982542499899864,-0.00923184911648915,290.581682790612,-302.509231849116
738508.48801991587970405817,-0.00923184911648915,291.052507095553,-302.509231849116
738508.48802000633440911770,-0.00923184911648915,290.609378337962,-302.509231849116
738508.48802009678911417723,-0.00923184911648915,291.246375927,-302.509231849116
738508.48802018724381923676,-0.00923184911648915,290.627842036195,-302.509231849116
738508.48802027769852429628,-0.00923184911648915,291.532563249611,-302.509231849116
738508.48802036803681403399,-0.00923184911648915,290.701696829127,-302.509231849116
738508.48802045849151909351,-0.00923184911648915,291.77259132664,-302.509231849116
738508.48802054894622415304,-0.00923184911648915,290.987884151738,-302.509231849116
738508.48802063940092921257,-0.00923184911648915,292.012619403668,-302.509231849116
738508.48802072985563427210,-0.00923184911648915,291.089434492019,-302.509231849116
738508.48802082019392400980,-0.00923184911648915,292.123401593066,-302.509231849116
738508.48802091064862906933,-0.00923184911648915,291.255607776116,-302.509231849116
738508.48802100110333412886,-0.00923184911648915,292.169560838649,-302.509231849116
738508.48802109155803918839,-0.00923184911648915,291.449476607562,-302.509231849116
738508.48802118201274424791,-0.00923184911648915,292.280343028047,-302.509231849116
738508.48802127246744930744,-0.00923184911648915,291.541795098727,-302.509231849116
738508.48802136280573904514,-0.00923184911648915,292.243415631581,-302.509231849116
738508.48802145326044410467,-0.00923184911648915,292.335734122745,-302.509231849116
738508.48802154371514916420,-0.00923184911648915,291.486404004028,-302.509231849116
738508.48802163416985422373,-0.00923184911648915,292.261879329813,-302.509231849116
738508.48802172462455928326,-0.00923184911648915,291.532563249611,-302.509231849116
738508.48802181507926434278,-0.00923184911648915,292.511139255959,-302.509231849116
738508.48802190541755408049,-0.00923184911648915,291.477172154912,-302.509231849116
738508.48802199587225914001,-0.00923184911648915,292.548066652425,-302.509231849116
738508.48802208632696419954,-0.00923184911648915,291.652577288125,-302.509231849116
738508.48802217678166925907,-0.00923184911648915,292.61268959624,-302.509231849116
738508.48802226723637431860,-0.00923184911648915,291.689504684591,-302.509231849116
738508.48802235769107937813,-0.00923184911648915,292.520371105075,-302.509231849116
738508.48802244802936911583,-0.00923184911648915,291.827982421339,-302.509231849116
738508.48802253848407417536,-0.00923184911648915,292.492675557726,-302.509231849116
738508.48802262893877923489,-0.00923184911648915,291.975692007202,-302.509231849116
738508.48802271939348429441,-0.00923184911648915,292.42805261391,-302.509231849116
738508.48802280984818935394,-0.00923184911648915,292.141865291299,-302.509231849116
738508.48802290018647909164,-0.00923184911648915,292.42805261391,-302.509231849116
738508.48802299064118415117,-0.00923184911648915,292.363429670095,-302.509231849116
738508.48802308109588921070,-0.00923184911648915,292.381893368328,-302.509231849116
738508.48802317155059427023,-0.00923184911648915,292.538834803308,-302.509231849116
738508.48802326200529932976,-0.00923184911648915,292.003387554552,-302.509231849116
738508.48802335246000438929,-0.00923184911648915,292.917340617084,-302.509231849116
738508.48802344279829412699,-0.00923184911648915,292.0864741966,-302.509231849116
738508.48802353325299918652,-0.00923184911648915,292.908108767968,-302.509231849116
738508.48802362370770424604,-0.00923184911648915,292.261879329813,-302.509231849116
738508.48802371416240930557,-0.00923184911648915,292.908108767968,-302.509231849116
738508.48802380461711436510,-0.00923184911648915,292.381893368328,-302.509231849116
738508.48802389507181942463,-0.00923184911648915,292.889645069735,-302.509231849116
738508.48802398541010916233,-0.00923184911648915,292.538834803308,-302.509231849116
738508.48802407586481422186,-0.00923184911648915,292.723471785638,-302.509231849116
738508.48802416631951928139,-0.00923184911648915,292.649616992706,-302.509231849116
738508.48802425677422434092,-0.00923184911648915,292.714239936521,-302.509231849116
738508.48802434722892940044,-0.00923184911648915,292.825022125919,-302.509231849116
738508.48802443768363445997,-0.00923184911648915,292.538834803308,-302.509231849116
738508.48802452802192419767,-0.00923184911648915,292.945036164434,-302.509231849116
738508.48802461847662925720,-0.00923184911648915,292.464980010376,-302.509231849116
738508.48802470893133431673,-0.00923184911648915,292.9819635609,-302.509231849116
738508.48802479938603937626,-0.00923184911648915,292.409588915677,-302.509231849116
738508.48802488984074443579,-0.00923184911648915,293.120441297647,-302.509231849116
738508.48802498017903417349,-0.00923184911648915,292.344965971862,-302.509231849116
738508.48802507063373923302,-0.00923184911648915,293.000427259133,-302.509231849116
738508.48802516108844429255,-0.00923184911648915,292.520371105075,-302.509231849116
738508.48802525154314935207,-0.00923184911648915,292.917340617084,-302.509231849116
738508.48802534199785441160,-0.00923184911648915,292.76963103122,-302.509231849116
738508.48802543245255947113,-0.00923184911648915,292.751167332987,-302.509231849116
738508.48802552279084920883,-0.00923184911648915,292.908108767968,-302.509231849116
738508.48802561324555426836,-0.00923184911648915,292.658848841823,-302.509231849116
738508.48802570370025932789,-0.00923184911648915,292.861949522385,-302.509231849116
738508.48802579415496438742,-0.00923184911648915,292.483443708609,-302.509231849116
738508.48802588460966944695,-0.00923184911648915,292.9819635609,-302.509231849116
738508.48802597506437450647,-0.00923184911648915,292.243415631581,-302.509231849116
738508.48802606540266424417,-0.00923184911648915,292.95426801355,-302.509231849116
738508.48802615585736930370,-0.00923184911648915,292.151097140416,-302.509231849116
738508.48802624631207436323,-0.00923184911648915,293.009659108249,-302.509231849116
738508.48802633676677942276,-0.00923184911648915,292.132633442183,-302.509231849116
738508.48802642722148448229,-0.00923184911648915,293.120441297647,-302.509231849116
738508.48802651767618954182,-0.00923184911648915,292.169560838649,-302.509231849116
738508.48802660801447927952,-0.00923184911648915,293.092745750298,-302.509231849116
738508.48802669846918433905,-0.00923184911648915,292.160328989532,-302.509231849116
738508.48802678892388939857,-0.00923184911648915,293.055818353832,-302.509231849116
738508.48802687937859445810,-0.00923184911648915,292.11416974395,-302.509231849116
738508.48802696983329951763,-0.00923184911648915,292.326502273629,-302.509231849116
738508.48802706017158925533,-0.00923184911648915,292.825022125919,-302.509231849116
738508.48802715062629431486,-0.00923184911648915,292.234183782464,-302.509231849116
738508.48802724108099937439,-0.00923184911648915,292.834253975036,-302.509231849116
738508.48802733153570443392,-0.00923184911648915,292.141865291299,-302.509231849116
738508.48802742199040949345,-0.00923184911648915,292.880413220618,-302.509231849116
738508.48802751244511455297,-0.00923184911648915,291.994155705435,-302.509231849116
738508.48802760278340429068,-0.00923184911648915,292.935804315317,-302.509231849116
738508.48802769323810935020,-0.00923184911648915,291.994155705435,-302.509231849116
738508.48802778369281440973,-0.00923184911648915,293.000427259133,-302.509231849116
738508.48802787414751946926,-0.00923184911648915,291.994155705435,-302.509231849116
738508.48802796460222452879,-0.00923184911648915,292.935804315317,-302.509231849116
738508.48802805505692958832,-0.00923184911648915,292.021851252785,-302.509231849116
738508.48802814539521932602,-0.00923184911648915,292.880413220618,-302.509231849116
738508.48802823584992438555,-0.00923184911648915,292.0864741966,-302.509231849116
738508.48802832630462944508,-0.00923184911648915,292.852717673269,-302.509231849116
738508.48802841675933450460,-0.00923184911648915,292.206488235115,-302.509231849116
738508.48802850721403956413,-0.00923184911648915,292.723471785638,-302.509231849116
738508.48802859766874462366,-0.00923184911648915,292.095706045717,-302.509231849116
738508.48802868800703436136,-0.00923184911648915,292.529602954192,-302.509231849116
738508.48802877846173942089,-0.00923184911648915,292.825022125919,-302.509231849116
738508.48802886891644448042,-0.00923184911648915,291.781823175756,-302.509231849116
738508.48802895937114953995,-0.00923184911648915,292.695776238288,-302.509231849116
738508.48802904982585459948,-0.00923184911648915,291.698736533708,-302.509231849116
738508.48802914016414433718,-0.00923184911648915,292.566530350658,-302.509231849116
738508.48802923061884939671,-0.00923184911648915,291.58795434431,-302.509231849116
738508.48802932107355445623,-0.00923184911648915,292.45574816126,-302.509231849116
738508.48802941152825951576,-0.00923184911648915,291.569490646077,-302.509231849116
738508.48802950198296457529,-0.00923184911648915,292.27111117893,-302.509231849116
738508.48802959243766963482,-0.00923184911648915,291.606418042543,-302.509231849116
738508.48802968277595937252,-0.00923184911648915,292.160328989532,-302.509231849116
738508.48802977323066443205,-0.00923184911648915,291.634113589892,-302.509231849116
738508.48802986368536949158,-0.00923184911648915,292.021851252785,-302.509231849116
738508.48802995414007455111,-0.00923184911648915,291.735663930174,-302.509231849116
738508.48803004459477961063,-0.00923184911648915,291.809518723106,-302.509231849116
738508.48803013504948467016,-0.00923184911648915,291.800286873989,-302.509231849116
738508.48803022538777440786,-0.00923184911648915,291.680272835475,-302.509231849116
738508.48803031584247946739,-0.00923184911648915,291.864909817804,-302.509231849116
738508.48803040629718452692,-0.00923184911648915,291.504867702261,-302.509231849116
738508.48803049675188958645,-0.00923184911648915,291.911069063387,-302.509231849116
738508.48803058720659464598,-0.00923184911648915,291.274071474349,-302.509231849116
738508.48803067766129970551,-0.00923184911648915,291.994155705435,-302.509231849116
738508.48803076799958944321,-0.00923184911648915,291.310998870815,-302.509231849116
738508.48803085845429450274,-0.00923184911648915,291.846446119572,-302.509231849116
738508.48803094890899956226,-0.00923184911648915,291.255607776116,-302.509231849116
738508.48803103936370462179,-0.00923184911648915,291.652577288125,-302.509231849116
738508.48803112981840968132,-0.00923184911648915,291.347926267281,-302.509231849116
738508.48803122015669941902,-0.00923184911648915,291.458708456679,-302.509231849116
738508.48803131061140447855,-0.00923184911648915,291.384853663747,-302.509231849116
738508.48803140106610953808,-0.00923184911648915,291.227912228767,-302.509231849116
738508.48803149152081459761,-0.00923184911648915,291.338694418165,-302.509231849116
738508.48803158197551965714,-0.00923184911648915,290.914029358806,-302.509231849116
738508.48803167243022471666,-0.00923184911648915,291.329462569048,-302.509231849116
738508.48803176276851445436,-0.00923184911648915,290.72016052736,-302.509231849116
738508.48803185322321951389,-0.00923184911648915,291.255607776116,-302.509231849116
738508.48803194367792457342,-0.00923184911648915,290.526291695914,-302.509231849116
738508.48803203413262963295,-0.00923184911648915,291.292535172582,-302.509231849116
738508.48803212458733469248,-0.00923184911648915,290.203176976836,-302.509231849116
738508.48803221504203975201,-0.00923184911648915,291.163289284951,-302.509231849116
738508.48803230538032948971,-0.00923184911648915,290.267799920652,-302.509231849116
738508.48803239583503454924,-0.00923184911648915,291.144825586718,-302.509231849116
738508.48803248628973960876,-0.00923184911648915,290.674001281777,-302.509231849116
738508.48803257674444466829,-0.00923184911648915,290.600146488845,-302.509231849116
738508.48803266719914972782,-0.00923184911648915,290.747856074709,-302.509231849116
738508.48803275765385478735,-0.00923184911648915,290.424741355632,-302.509231849116
738508.48803284799214452505,-0.00923184911648915,290.766319772942,-302.509231849116
738508.48803293844684958458,-0.00923184911648915,290.313959166234,-302.509231849116
738508.48803302890155464411,-0.00923184911648915,290.914029358806,-302.509231849116
738508.48803311935625970364,-0.00923184911648915,290.129322183905,-302.509231849116
738508.48803320981096476316,-0.00923184911648915,290.914029358806,-302.509231849116
738508.48803330014925450087,-0.00923184911648915,290.046235541856,-302.509231849116
738508.48803339060395956039,-0.00923184911648915,290.895565660573,-302.509231849116
738508.48803348105866461992,-0.00923184911648915,289.953917050691,-302.509231849116
738508.48803357151336967945,-0.00923184911648915,290.886333811457,-302.509231849116
738508.48803366196807473898,-0.00923184911648915,289.889294106876,-302.509231849116
738508.48803375242277979851,-0.00923184911648915,290.830942716758,-302.509231849116
738508.48803384276106953621,-0.00923184911648915,289.898525955992,-302.509231849116
738508.48803393321577459574,-0.00923184911648915,290.821710867641,-302.509231849116
738508.48803402367047965527,-0.00923184911648915,289.935453352458,-302.509231849116
738508.48803411412518471479,-0.00923184911648915,290.784783471175,-302.509231849116
738508.48803420457988977432,-0.00923184911648915,290.064699240089,-302.509231849116
738508.48803429503459483385,-0.00923184911648915,290.000076296274,-302.509231849116
738508.48803438537288457155,-0.00923184911648915,290.701696829127,-302.509231849116
738508.48803447582758963108,-0.00923184911648915,289.861598559526,-302.509231849116
738508.48803456628229469061,-0.00923184911648915,290.69246498001,-302.509231849116
738508.48803465673699975014,-0.00923184911648915,289.713888973663,-302.509231849116
738508.48803474719170480967,-0.00923184911648915,290.683233130894,-302.509231849116
738508.48803483764640986919,-0.00923184911648915,289.658497878964,-302.509231849116
738508.48803492798469960690,-0.00923184911648915,290.627842036195,-302.509231849116
738508.48803501843940466642,-0.00923184911648915,289.612338633381,-302.509231849116
738508.48803510889410972595,-0.00923184911648915,290.581682790612,-302.509231849116
738508.48803519934881478548,-0.00923184911648915,289.686193426313,-302.509231849116
738508.48803528980351984501,-0.00923184911648915,290.424741355632,-302.509231849116
738508.48803538014180958271,-0.00923184911648915,289.658497878964,-302.509231849116
738508.48803547059651464224,-0.00923184911648915,290.341654713584,-302.509231849116
738508.48803556105121970177,-0.00923184911648915,289.704657124546,-302.509231849116
738508.48803565150592476130,-0.00923184911648915,290.064699240089,-302.509231849116
738508.48803574196062982082,-0.00923184911648915,289.723120822779,-302.509231849116
738508.48803583241533488035,-0.00923184911648915,290.00930814539,-302.509231849116
738508.48803592275362461805,-0.00923184911648915,289.843134861293,-302.509231849116
738508.48803601320832967758,-0.00923184911648915,289.82467116306,-302.509231849116
738508.48803610366303473711,-0.00923184911648915,289.880062257759,-302.509231849116
738508.48803619411773979664,-0.00923184911648915,289.298455763421,-302.509231849116
738508.48803628457244485617,-0.00923184911648915,290.240104373302,-302.509231849116
738508.48803637502714991570,-0.00923184911648915,289.363078707236,-302.509231849116
738508.48803646536543965340,-0.00923184911648915,290.157017731254,-302.509231849116
738508.48803655582014471292,-0.00923184911648915,289.381542405469,-302.509231849116
738508.48803664627484977245,-0.00923184911648915,290.018539994507,-302.509231849116
738508.48803673672955483198,-0.00923184911648915,289.409237952818,-302.509231849116
738508.48803682718425989151,-0.00923184911648915,289.898525955992,-302.509231849116
738508.48803691763896495104,-0.00923184911648915,289.492324594867,-302.509231849116
738508.48803700797725468874,-0.00923184911648915,289.760048219245,-302.509231849116
738508.48803709843195974827,-0.00923184911648915,289.593874935148,-302.509231849116
738508.48803718888666480780,-0.00923184911648915,289.649266029847,-302.509231849116
738508.48803727934136986732,-0.00923184911648915,289.741584521012,-302.509231849116
738508.48803736979607492685,-0.00923184911648915,289.390774254585,-302.509231849116
738508.48803746013436466455,-0.00923184911648915,289.750816370128,-302.509231849116
738508.48803755058906972408,-0.00923184911648915,289.372310556352,-302.509231849116
738508.48803764104377478361,-0.00923184911648915,289.907757805109,-302.509231849116
738508.48803773149847984314,-0.00923184911648915,289.159978026673,-302.509231849116
738508.48803782195318490267,-0.00923184911648915,289.944685201575,-302.509231849116
738508.48803791240788996220,-0.00923184911648915,289.150746177557,-302.509231849116
738508.48803800274617969990,-0.00923184911648915,289.861598559526,-302.509231849116
738508.48803809320088475943,-0.00923184911648915,289.418469801935,-302.509231849116
738508.48803818365558981895,-0.00923184911648915,289.732352671896,-302.509231849116
738508.48803827411029487848,-0.00923184911648915,289.538483840449,-302.509231849116
738508.48803836456499993801,-0.00923184911648915,289.520020142216,-302.509231849116
738508.48803845501970499754,-0.00923184911648915,289.630802331614,-302.509231849116
738508.48803854535799473524,-0.00923184911648915,289.409237952818,-302.509231849116
738508.48803863581269979477,-0.00923184911648915,289.69542527543,-302.509231849116
738508.48803872626740485430,-0.00923184911648915,289.215369121372,-302.509231849116
738508.48803881672210991383,-0.00923184911648915,289.769280068361,-302.509231849116
738508.48803890717681497335,-0.00923184911648915,289.14151432844,-302.509231849116
738508.48803899763152003288,-0.00923184911648915,289.760048219245,-302.509231849116
738508.48803908796980977058,-0.00923184911648915,289.021500289926,-302.509231849116
738508.48803917842451483011,-0.00923184911648915,289.778511917478,-302.509231849116
738508.48803926887921988964,-0.00923184911648915,288.873790704062,-302.509231849116
738508.48803935933392494917,-0.00923184911648915,289.870830408643,-302.509231849116
738508.48803944978863000870,-0.00923184911648915,288.873790704062,-302.509231849116
738508.48803954012691974640,-0.00923184911648915,289.870830408643,-302.509231849116
738508.48803963058162480593,-0.00923184911648915,288.864558854946,-302.509231849116
738508.48803972103632986546,-0.00923184911648915,289.843134861293,-302.509231849116
738508.48803981149103492498,-0.00923184911648915,289.473860896634,-302.509231849116
738508.48803990194573998451,-0.00923184911648915,289.132282479324,-302.509231849116
738508.48803999240044504404,-0.00923184911648915,289.640034180731,-302.509231849116
738508.48804008273873478174,-0.00923184911648915,289.021500289926,-302.509231849116
738508.48804017319343984127,-0.00923184911648915,289.658497878964,-302.509231849116
738508.48804026364814490080,-0.00923184911648915,288.919949949644,-302.509231849116
738508.48804035410284996033,-0.00923184911648915,289.741584521012,-302.509231849116
738508.48804044455755501986,-0.00923184911648915,288.744544816431,-302.509231849116
738508.48804053501226007938,-0.00923184911648915,289.732352671896,-302.509231849116
738508.48804062535054981709,-0.00923184911648915,288.744544816431,-302.509231849116
738508.48804071580525487661,-0.00923184911648915,289.741584521012,-302.509231849116
738508.48804080625995993614,-0.00923184911648915,288.790704062014,-302.509231849116
738508.48804089671466499567,-0.00923184911648915,289.796975615711,-302.509231849116
738508.48804098716937005520,-0.00923184911648915,288.910718100528,-302.509231849116
738508.48804107762407511473,-0.00923184911648915,289.82467116306,-302.509231849116
738508.48804116796236485243,-0.00923184911648915,289.003036591693,-302.509231849116
738508.48804125841706991196,-0.00923184911648915,289.806207464827,-302.509231849116
738508.48804134887177497149,-0.00923184911648915,289.150746177557,-302.509231849116
738508.48804143932648003101,-0.00923184911648915,289.741584521012,-302.509231849116
738508.48804152978118509054,-0.00923184911648915,289.206137272256,-302.509231849116
738508.48804162011947482824,-0.00923184911648915,289.630802331614,-302.509231849116
738508.48804171057417988777,-0.00923184911648915,289.870830408643,-302.509231849116
738508.48804180102888494730,-0.00923184911648915,288.910718100528,-302.509231849116
738508.48804189148359000683,-0.00923184911648915,289.815439313944,-302.509231849116
738508.48804198193829506636,-0.00923184911648915,288.892254402295,-302.509231849116
738508.48804207239300012589,-0.00923184911648915,289.880062257759,-302.509231849116
738508.48804216273128986359,-0.00923184911648915,288.836863307596,-302.509231849116
738508.48804225318599492311,-0.00923184911648915,289.815439313944,-302.509231849116
738508.48804234364069998264,-0.00923184911648915,288.98457289346,-302.509231849116
738508.48804243409540504217,-0.00923184911648915,289.769280068361,-302.509231849116
738508.48804252455011010170,-0.00923184911648915,289.012268440809,-302.509231849116
738508.48804261500481516123,-0.00923184911648915,289.66772972808,-302.509231849116
738508.48804270534310489893,-0.00923184911648915,289.021500289926,-302.509231849116
738508.48804279579780995846,-0.00923184911648915,289.381542405469,-302.509231849116
738508.48804288625251501799,-0.00923184911648915,289.16920987579,-302.509231849116
738508.48804297670722007751,-0.00923184911648915,289.32615131077,-302.509231849116
738508.48804306716192513704,-0.00923184911648915,289.206137272256,-302.509231849116
738508.48804315761663019657,-0.00923184911648915,289.150746177557,-302.509231849116
738508.48804324795491993427,-0.00923184911648915,289.335383159886,-302.509231849116
738508.48804333840962499380,-0.00923184911648915,288.98457289346,-302.509231849116
738508.48804342886433005333,-0.00923184911648915,289.353846858119,-302.509231849116
738508.48804351931903511286,-0.00923184911648915,288.716849269082,-302.509231849116
738508.48804360977374017239,-0.00923184911648915,289.529251991333,-302.509231849116
738508.48804370011202991009,-0.00923184911648915,288.809167760247,-302.509231849116
738508.48804379056673496962,-0.00923184911648915,289.390774254585,-302.509231849116
738508.48804388102144002914,-0.00923184911648915,288.873790704062,-302.509231849116
738508.48804397147614508867,-0.00923184911648915,289.261528366955,-302.509231849116
738508.48804406193085014820,-0.00923184911648915,288.938413647877,-302.509231849116
738508.48804415238555520773,-0.00923184911648915,289.113818781091,-302.509231849116
738508.48804424272384494543,-0.00923184911648915,289.030732139042,-302.509231849116
738508.48804433317855000496,-0.00923184911648915,288.95687734611,-302.509231849116
738508.48804442363325506449,-0.00923184911648915,289.14151432844,-302.509231849116
738508.48804451408796012402,-0.00923184911648915,288.790704062014,-302.509231849116
738508.48804460454266518354,-0.00923184911648915,289.178441724906,-302.509231849116
738508.48804469499737024307,-0.00923184911648915,288.661458174383,-302.509231849116
738508.48804478533565998077,-0.00923184911648915,289.298455763421,-302.509231849116
738508.48804487579036504030,-0.00923184911648915,288.587603381451,-302.509231849116
738508.48804496624507009983,-0.00923184911648915,289.344615009003,-302.509231849116
738508.48804505669977515936,-0.00923184911648915,288.486053041169,-302.509231849116
738508.48804514715448021889,-0.00923184911648915,289.400006103702,-302.509231849116
738508.48804523760918527842,-0.00923184911648915,288.430661946471,-302.509231849116
738508.48804532794747501612,-0.00923184911648915,289.067659535508,-302.509231849116
738508.48804541840218007565,-0.00923184911648915,288.966109195227,-302.509231849116
738508.48804550885688513517,-0.00923184911648915,288.910718100528,-302.509231849116
738508.48804559931159019470,-0.00923184911648915,289.012268440809,-302.509231849116
738508.48804568976629525423,-0.00923184911648915,288.790704062014,-302.509231849116
738508.48804578010458499193,-0.00923184911648915,289.104586931974,-302.509231849116
738508.48804587055929005146,-0.00923184911648915,288.541444135868,-302.509231849116
738508.48804596101399511099,-0.00923184911648915,289.187673574023,-302.509231849116
738508.48804605146870017052,-0.00923184911648915,288.495284890286,-302.509231849116
738508.48804614192340523005,-0.00923184911648915,289.252296517838,-302.509231849116
738508.48804623237811028957,-0.00923184911648915,288.366039002655,-302.509231849116
738508.48804632271640002728,-0.00923184911648915,289.307687612537,-302.509231849116
738508.48804641317110508680,-0.00923184911648915,288.412198248238,-302.509231849116
738508.48804650362581014633,-0.00923184911648915,289.381542405469,-302.509231849116
738508.48804659408051520586,-0.00923184911648915,288.402966399121,-302.509231849116
738508.48804668453522026539,-0.00923184911648915,289.372310556352,-302.509231849116
738508.48804677498992532492,-0.00923184911648915,288.421430097354,-302.509231849116
738508.48804686532821506262,-0.00923184911648915,289.363078707236,-302.509231849116
738508.48804695578292012215,-0.00923184911648915,288.486053041169,-302.509231849116
738508.48804704623762518167,-0.00923184911648915,289.252296517838,-302.509231849116
738508.48804713669233024120,-0.00923184911648915,288.587603381451,-302.509231849116
738508.48804722714703530073,-0.00923184911648915,288.522980437635,-302.509231849116
738508.48804731760174036026,-0.00923184911648915,289.270760216071,-302.509231849116
738508.48804740794003009796,-0.00923184911648915,288.393734550005,-302.509231849116
738508.48804749839473515749,-0.00923184911648915,289.252296517838,-302.509231849116
738508.48804758884944021702,-0.00923184911648915,288.329111606189,-302.509231849116
738508.48804767930414527655,-0.00923184911648915,289.298455763421,-302.509231849116
738508.48804776975885033607,-0.00923184911648915,288.329111606189,-302.509231849116
738508.48804786009714007378,-0.00923184911648915,289.316919461653,-302.509231849116
738508.48804795055184513330,-0.00923184911648915,288.366039002655,-302.509231849116
738508.48804804100655019283,-0.00923184911648915,289.335383159886,-302.509231849116
738508.48804813146125525236,-0.00923184911648915,288.430661946471,-302.509231849116
738508.48804822191596031189,-0.00923184911648915,289.363078707236,-302.509231849116
738508.48804831237066537142,-0.00923184911648915,288.578371532334,-302.509231849116
738508.48804840270895510912,-0.00923184911648915,289.279992065188,-302.509231849116
738508.48804849316366016865,-0.00923184911648915,288.707617419965,-302.509231849116
738508.48804858361836522818,-0.00923184911648915,289.206137272256,-302.509231849116
738508.48804867407307028770,-0.00923184911648915,288.883022553178,-302.509231849116
738508.48804876452777534723,-0.00923184911648915,289.178441724906,-302.509231849116
738508.48804885498248040676,-0.00923184911648915,289.132282479324,-302.509231849116
738508.48804894532077014446,-0.00923184911648915,289.16920987579,-302.509231849116
738508.48804903577547520399,-0.00923184911648915,289.630802331614,-302.509231849116
738508.48804912623018026352,-0.00923184911648915,288.670690023499,-302.509231849116
738508.48804921668488532305,-0.00923184911648915,289.713888973663,-302.509231849116
738508.48804930713959038258,-0.00923184911648915,288.873790704062,-302.509231849116
738508.48804939759429544210,-0.00923184911648915,289.732352671896,-302.509231849116
738508.48804948793258517981,-0.00923184911648915,289.039963988159,-302.509231849116
738508.48804957838729023933,-0.00923184911648915,289.750816370128,-302.509231849116
738508.48804966884199529886,-0.00923184911648915,289.123050630207,-302.509231849116
738508.48804975929670035839,-0.00923184911648915,289.584643086032,-302.509231849116
738508.48804984975140541792,-0.00923184911648915,289.16920987579,-302.509231849116
738508.48804994008969515562,-0.00923184911648915,289.538483840449,-302.509231849116
738508.48805003054440021515,-0.00923184911648915,289.363078707236,-302.509231849116
738508.48805012099910527468,-0.00923184911648915,289.464629047517,-302.509231849116
738508.48805021145381033421,-0.00923184911648915,289.566179387799,-302.509231849116
738508.48805030190851539373,-0.00923184911648915,289.436933500168,-302.509231849116
738508.48805039236322045326,-0.00923184911648915,289.723120822779,-302.509231849116
738508.48805048270151019096,-0.00923184911648915,289.353846858119,-302.509231849116
738508.48805057315621525049,-0.00923184911648915,289.926221503342,-302.509231849116
738508.48805066361092031002,-0.00923184911648915,289.279992065188,-302.509231849116
738508.48805075406562536955,-0.00923184911648915,290.073931089206,-302.509231849116
738508.48805084452033042908,-0.00923184911648915,289.48309274575,-302.509231849116
738508.48805093497503548861,-0.00923184911648915,290.03700369274,-302.509231849116
738508.48805102531332522631,-0.00923184911648915,289.575411236915,-302.509231849116
738508.48805111576803028584,-0.00923184911648915,289.981612598041,-302.509231849116
738508.48805120622273534536,-0.00923184911648915,289.806207464827,-302.509231849116
738508.48805129667744040489,-0.00923184911648915,289.898525955992,-302.509231849116
738508.48805138713214546442,-0.00923184911648915,289.944685201575,-302.509231849116
738508.48805147758685052395,-0.00923184911648915,289.815439313944,-302.509231849116
738508.48805156792514026165,-0.00923184911648915,290.147785882137,-302.509231849116
738508.48805165837984532118,-0.00923184911648915,289.732352671896,-302.509231849116
738508.48805174883455038071,-0.00923184911648915,290.323191015351,-302.509231849116
738508.48805183928925544024,-0.00923184911648915,289.760048219245,-302.509231849116
738508.48805192974396049976,-0.00923184911648915,290.415509506516,-302.509231849116
738508.48805202008225023746,-0.00923184911648915,289.750816370128,-302.509231849116
738508.48805211053695529699,-0.00923184911648915,290.655537583544,-302.509231849116
738508.48805220099166035652,-0.00923184911648915,289.750816370128,-302.509231849116
738508.48805229144636541605,-0.00923184911648915,290.69246498001,-302.509231849116
738508.48805238190107047558,-0.00923184911648915,289.806207464827,-302.509231849116
738508.48805247235577553511,-0.00923184911648915,290.812479018525,-302.509231849116
738508.48805256269406527281,-0.00923184911648915,289.870830408643,-302.509231849116
738508.48805265314877033234,-0.00923184911648915,290.803247169408,-302.509231849116
738508.48805274360347539186,-0.00923184911648915,290.526291695914,-302.509231849116
738508.48805283405818045139,-0.00923184911648915,290.147785882137,-302.509231849116
738508.48805292451288551092,-0.00923184911648915,290.646305734428,-302.509231849116
738508.48805301496759057045,-0.00923184911648915,290.110858485672,-302.509231849116
738508.48805310530588030815,-0.00923184911648915,290.812479018525,-302.509231849116
738508.48805319576058536768,-0.00923184911648915,290.092394787439,-302.509231849116
738508.48805328621529042721,-0.00923184911648915,290.840174565874,-302.509231849116
738508.48805337666999548674,-0.00923184911648915,289.963148899808,-302.509231849116
738508.48805346712470054626,-0.00923184911648915,290.950956755272,-302.509231849116
738508.48805355757940560579,-0.00923184911648915,290.03700369274,-302.509231849116
738508.48805364791769534349,-0.00923184911648915,291.015579699087,-302.509231849116
738508.48805373837240040302,-0.00923184911648915,290.092394787439,-302.509231849116
738508.48805382882710546255,-0.00923184911648915,291.03404339732,-302.509231849116
738508.48805391928181052208,-0.00923184911648915,290.184713278603,-302.509231849116
738508.48805400973651558161,-0.00923184911648915,291.126361888485,-302.509231849116
738508.48805410007480531931,-0.00923184911648915,290.452436902982,-302.509231849116
738508.48805419052951037884,-0.00923184911648915,291.458708456679,-302.509231849116
738508.48805428098421543837,-0.00923184911648915,290.997116000855,-302.509231849116
738508.48805437143892049789,-0.00923184911648915,291.735663930174,-302.509231849116
738508.48805446189362555742,-0.00923184911648915,291.384853663747,-302.509231849116
738508.48805455234833061695,-0.00923184911648915,291.144825586718,-302.509231849116
738508.48805464268662035465,-0.00923184911648915,292.169560838649,-302.509231849116
738508.48805473314132541418,-0.00923184911648915,291.329462569048,-302.509231849116
738508.48805482359603047371,-0.00923184911648915,292.391125217444,-302.509231849116
738508.48805491405073553324,-0.00923184911648915,291.40331736198,-302.509231849116
738508.48805500450544059277,-0.00923184911648915,292.529602954192,-302.509231849116
738508.48805509496014565229,-0.00923184911648915,291.689504684591,-302.509231849116
738508.48805518529843539000,-0.00923184911648915,292.723471785638,-302.509231849116
738508.48805527575314044952,-0.00923184911648915,292.012619403668,-302.509231849116
738508.48805536620784550905,-0.00923184911648915,292.898876918851,-302.509231849116
738508.48805545666255056858,-0.00923184911648915,292.354197820978,-302.509231849116
738508.48805554711725562811,-0.00923184911648915,292.991195410016,-302.509231849116
738508.48805563757196068764,-0.00923184911648915,292.575762199774,-302.509231849116
738508.48805572791025042534,-0.00923184911648915,293.018890957366,-302.509231849116
738508.48805581836495548487,-0.00923184911648915,292.76963103122,-302.509231849116
738508.48805590881966054440,-0.00923184911648915,293.028122806482,-302.509231849116
738508.48805599927436560392,-0.00923184911648915,293.037354655599,-302.509231849116
738508.48805608972907066345,-0.00923184911648915,293.009659108249,-302.509231849116
738508.48805618006736040115,-0.00923184911648915,293.249687185278,-302.509231849116
738508.48805627052206546068,-0.00923184911648915,293.065050202948,-302.509231849116
738508.48805636097677052021,-0.00923184911648915,293.711279641102,-302.509231849116
738508.48805645143147557974,-0.00923184911648915,292.871181371502,-302.509231849116
738508.48805654188618063927,-0.00923184911648915,293.711279641102,-302.509231849116
738508.48805663234088569880,-0.00923184911648915,293.111209448531,-302.509231849116
738508.48805672267917543650,-0.00923184911648915,293.775902584918,-302.509231849116
738508.48805681313388049603,-0.00923184911648915,293.212759788812,-302.509231849116
738508.48805690358858555555,-0.00923184911648915,293.628192999054,-302.509231849116
738508.48805699404329061508,-0.00923184911648915,293.471251564074,-302.509231849116
738508.48805708449799567461,-0.00923184911648915,293.757438886685,-302.509231849116
738508.48805717495270073414,-0.00923184911648915,293.683584093753,-302.509231849116
738508.48805726529099047184,-0.00923184911648915,293.674352244636,-302.509231849116
738508.48805735574569553137,-0.00923184911648915,293.877452925199,-302.509231849116
738508.48805744620040059090,-0.00923184911648915,293.66512039552,-302.509231849116
738508.48805753665510565042,-0.00923184911648915,294.071321756645,-302.509231849116
738508.48805762710981070995,-0.00923184911648915,293.63742484817,-302.509231849116
738508.48805771756451576948,-0.00923184911648915,294.255958738975,-302.509231849116
738508.48805780790280550718,-0.00923184911648915,293.655888546403,-302.509231849116
738508.48805789835751056671,-0.00923184911648915,294.449827570421,-302.509231849116
738508.48805798881221562624,-0.00923184911648915,293.702047791986,-302.509231849116
738508.48805807926692068577,-0.00923184911648915,294.597537156285,-302.509231849116
738508.48805816972162574530,-0.00923184911648915,293.655888546403,-302.509231849116
738508.48805826005991548300,-0.00923184911648915,294.255958738975,-302.509231849116
738508.48805835051462054253,-0.00923184911648915,294.200567644276,-302.509231849116
738508.48805844096932560205,-0.00923184911648915,294.228263191626,-302.509231849116
738508.48805853142403066158,-0.00923184911648915,294.292886135441,-302.509231849116
738508.48805862187873572111,-0.00923184911648915,294.135944700461,-302.509231849116
738508.48805871233344078064,-0.00923184911648915,294.588305307169,-302.509231849116
738508.48805880267173051834,-0.00923184911648915,294.154408398694,-302.509231849116
738508.48805889312643557787,-0.00923184911648915,294.736014893033,-302.509231849116
738508.48805898358114063740,-0.00923184911648915,294.172872096927,-302.509231849116
738508.48805907403584569693,-0.00923184911648915,294.957579271828,-302.509231849116
738508.48805916449055075645,-0.00923184911648915,294.135944700461,-302.509231849116
738508.48805925494525581598,-0.00923184911648915,295.105288857692,-302.509231849116
738508.48805934528354555368,-0.00923184911648915,294.255958738975,-302.509231849116
738508.48805943573825061321,-0.00923184911648915,295.206839197974,-302.509231849116
738508.48805952619295567274,-0.00923184911648915,294.357509079257,-302.509231849116
738508.48805961664766073227,-0.00923184911648915,295.308389538255,-302.509231849116
738508.48805970710236579180,-0.00923184911648915,294.412900173956,-302.509231849116
738508.48805979755707085133,-0.00923184911648915,295.37301248207,-302.509231849116
738508.48805988789536058903,-0.00923184911648915,294.597537156285,-302.509231849116
738508.48805997835006564856,-0.00923184911648915,295.474562822352,-302.509231849116
738508.48806006880477070808,-0.00923184911648915,295.299157689138,-302.509231849116
738508.48806015925947576761,-0.00923184911648915,294.819101535081,-302.509231849116
738508.48806024971418082714,-0.00923184911648915,295.594576860866,-302.509231849116
738508.48806034005247056484,-0.00923184911648915,294.828333384197,-302.509231849116
738508.48806043050717562437,-0.00923184911648915,295.659199804682,-302.509231849116
738508.48806052096188068390,-0.00923184911648915,294.994506668294,-302.509231849116
738508.48806061141658574343,-0.00923184911648915,296.019241920225,-302.509231849116
738508.48806070187129080296,-0.00923184911648915,295.114520706809,-302.509231849116
738508.48806079232599586248,-0.00923184911648915,296.157719656972,-302.509231849116
738508.48806088266428560019,-0.00923184911648915,295.299157689138,-302.509231849116
738508.48806097311899065971,-0.00923184911648915,296.203878902554,-302.509231849116
738508.48806106357369571924,-0.00923184911648915,295.456099124119,-302.509231849116
738508.48806115402840077877,-0.00923184911648915,296.323892941069,-302.509231849116
738508.48806124448310583830,-0.00923184911648915,295.649967955565,-302.509231849116
738508.48806133493781089783,-0.00923184911648915,296.379284035768,-302.509231849116
738508.48806142527610063553,-0.00923184911648915,295.862300485244,-302.509231849116
738508.48806151573080569506,-0.00923184911648915,296.388515884884,-302.509231849116
738508.48806160618551075459,-0.00923184911648915,295.954618976409,-302.509231849116
738508.48806169664021581411,-0.00923184911648915,296.342356639302,-302.509231849116
738508.48806178709492087364,-0.00923184911648915,296.194647053438,-302.509231849116
738508.48806187754962593317,-0.00923184911648915,296.259269997253,-302.509231849116
738508.48806196788791567087,-0.00923184911648915,296.683935056612,-302.509231849116
738508.48806205834262073040,-0.00923184911648915,295.862300485244,-302.509231849116
738508.48806214879732578993,-0.00923184911648915,296.776253547777,-302.509231849116
738508.48806223925203084946,-0.00923184911648915,295.908459730827,-302.509231849116
738508.48806232970673590899,-0.00923184911648915,296.785485396893,-302.509231849116
738508.48806242004502564669,-0.00923184911648915,296.010010071108,-302.509231849116
738508.48806251049973070621,-0.00923184911648915,296.711630603961,-302.509231849116
738508.48806260095443576574,-0.00923184911648915,296.222342600787,-302.509231849116
738508.48806269140914082527,-0.00923184911648915,296.757789849544,-302.509231849116
738508.48806278186384588480,-0.00923184911648915,296.286965544603,-302.509231849116
738508.48806287231855094433,-0.00923184911648915,296.600848414563,-302.509231849116
738508.48806296265684068203,-0.00923184911648915,296.388515884884,-302.509231849116
738508.48806305311154574156,-0.00923184911648915,296.443906979583,-302.509231849116
738508.48806314356625080109,-0.00923184911648915,296.508529923399,-302.509231849116
738508.48806323402095586061,-0.00923184911648915,296.351588488418,-302.509231849116
738508.48806332447566092014,-0.00923184911648915,296.61008026368,-302.509231849116
738508.48806341493036597967,-0.00923184911648915,296.222342600787,-302.509231849116
738508.48806350526865571737,-0.00923184911648915,296.693166905728,-302.509231849116
738508.48806359572336077690,-0.00923184911648915,296.11156041139,-302.509231849116
738508.48806368617806583643,-0.00923184911648915,296.748558000427,-302.509231849116
738508.48806377663277089596,-0.00923184911648915,296.139255958739,-302.509231849116
738508.48806386708747595549,-0.00923184911648915,296.628543961913,-302.509231849116
738508.48806395754218101501,-0.00923184911648915,296.028473769341,-302.509231849116
738508.48806404788047075272,-0.00923184911648915,296.480834376049,-302.509231849116
738508.48806413833517581224,-0.00923184911648915,296.185415204321,-302.509231849116
738508.48806422878988087177,-0.00923184911648915,296.305429242836,-302.509231849116
738508.48806431924458593130,-0.00923184911648915,296.277733695486,-302.509231849116
738508.48806440969929099083,-0.00923184911648915,296.074633014924,-302.509231849116
738508.48806450003758072853,-0.00923184911648915,296.314661091952,-302.509231849116
738508.48806459049228578806,-0.00923184911648915,295.917691579943,-302.509231849116
738508.48806468094699084759,-0.00923184911648915,296.296197393719,-302.509231849116
738508.48806477140169590712,-0.00923184911648915,295.649967955565,-302.509231849116
738508.48806486185640096664,-0.00923184911648915,296.222342600787,-302.509231849116
738508.48806495231110602617,-0.00923184911648915,295.437635425886,-302.509231849116
738508.48806504264939576387,-0.00923184911648915,296.102328562273,-302.509231849116
738508.48806513310410082340,-0.00923184911648915,295.206839197974,-302.509231849116
738508.48806522355880588293,-0.00923184911648915,296.08386486404,-302.509231849116
738508.48806531401351094246,-0.00923184911648915,295.142216254158,-302.509231849116
738508.48806540446821600199,-0.00923184911648915,296.046937467574,-302.509231849116
738508.48806549492292106152,-0.00923184911648915,295.077593310343,-302.509231849116
738508.48806558526121079922,-0.00923184911648915,295.493026520585,-302.509231849116
738508.48806567571591585875,-0.00923184911648915,295.677663502915,-302.509231849116
738508.48806576617062091827,-0.00923184911648915,295.280693990905,-302.509231849116
738508.48806585662532597780,-0.00923184911648915,295.622272408216,-302.509231849116
738508.48806594708003103733,-0.00923184911648915,294.994506668294,-302.509231849116
738508.48806603753473609686,-0.00923184911648915,295.613040559099,-302.509231849116
738508.48806612787302583456,-0.00923184911648915,294.763710440382,-302.509231849116
738508.48806621832773089409,-0.00923184911648915,295.40070802942,-302.509231849116
738508.48806630878243595362,-0.00923184911648915,294.486754966887,-302.509231849116
738508.48806639923714101315,-0.00923184911648915,295.289925840022,-302.509231849116
738508.48806648969184607267,-0.00923184911648915,294.283654286325,-302.509231849116
738508.48806658003013581038,-0.00923184911648915,295.132984405042,-302.509231849116
738508.48806667048484086990,-0.00923184911648915,294.19133579516,-302.509231849116
738508.48806676093954592943,-0.00923184911648915,295.012970366527,-302.509231849116
738508.48806685139425098896,-0.00923184911648915,294.043626209296,-302.509231849116
738508.48806694184895604849,-0.00923184911648915,294.87449262978,-302.509231849116
738508.48806703230366110802,-0.00923184911648915,293.951307718131,-302.509231849116
738508.48806712264195084572,-0.00923184911648915,294.606769005402,-302.509231849116
738508.48806721309665590525,-0.00923184911648915,293.812829981384,-302.509231849116
738508.48806730355136096478,-0.00923184911648915,294.320581682791,-302.509231849116
738508.48806739400606602430,-0.00923184911648915,293.582033753471,-302.509231849116
738508.48806748446077108383,-0.00923184911648915,293.240455336161,-302.509231849116
738508.48806757491547614336,-0.00923184911648915,294.182103946043,-302.509231849116
738508.48806766525376588106,-0.00923184911648915,293.185064241462,-302.509231849116
738508.48806775570847094059,-0.00923184911648915,294.052858058412,-302.509231849116
738508.48806784616317600012,-0.00923184911648915,292.991195410016,-302.509231849116
738508.48806793661788105965,-0.00923184911648915,293.868221076083,-302.509231849116
738508.48806802707258611917,-0.00923184911648915,292.861949522385,-302.509231849116
738508.48806811752729117870,-0.00923184911648915,293.646656697287,-302.509231849116
738508.48806820786558091640,-0.00923184911648915,292.760399182104,-302.509231849116
738508.48806829832028597593,-0.00923184911648915,293.517410809656,-302.509231849116
738508.48806838877499103546,-0.00923184911648915,292.649616992706,-302.509231849116
738508.48806847922969609499,-0.00923184911648915,293.268150883511,-302.509231849116
738508.48806856968440115452,-0.00923184911648915,292.695776238288,-302.509231849116
738508.48806866002269089222,-0.00923184911648915,293.037354655599,-302.509231849116
738508.48806875047739595175,-0.00923184911648915,292.64038514359,-302.509231849116
738508.48806884093210101128,-0.00923184911648915,292.788094729453,-302.509231849116
738508.48806893138680607080,-0.00923184911648915,292.61268959624,-302.509231849116
738508.48806902184151113033,-0.00923184911648915,292.492675557726,-302.509231849116
738508.48806911229621618986,-0.00923184911648915,292.557298501541,-302.509231849116
738508.48806920263450592756,-0.00923184911648915,292.197256385998,-302.509231849116
738508.48806929308921098709,-0.00923184911648915,292.79732657857,-302.509231849116
738508.48806938354391604662,-0.00923184911648915,291.837214270455,-302.509231849116
738508.48806947399862110615,-0.00923184911648915,292.575762199774,-302.509231849116
738508.48806956445332616568,-0.00923184911648915,291.781823175756,-302.509231849116
738508.48806965490803122520,-0.00923184911648915,292.354197820978,-302.509231849116
738508.48806974524632096291,-0.00923184911648915,291.643345439009,-302.509231849116
738508.48806983570102602243,-0.00923184911648915,292.049546800134,-302.509231849116
738508.48806992615573108196,-0.00923184911648915,291.606418042543,-302.509231849116
738508.48807001661043614149,-0.00923184911648915,291.74489577929,-302.509231849116
738508.48807010706514120102,-0.00923184911648915,291.615649891659,-302.509231849116
738508.48807019751984626055,-0.00923184911648915,291.541795098727,-302.509231849116
738508.48807028785813599825,-0.00923184911648915,291.624881740776,-302.509231849116
738508.48807037831284105778,-0.00923184911648915,291.357158116398,-302.509231849116
738508.48807046876754611731,-0.00923184911648915,291.671040986358,-302.509231849116
738508.48807055922225117683,-0.00923184911648915,291.126361888485,-302.509231849116
738508.48807064967695623636,-0.00923184911648915,291.689504684591,-302.509231849116
738508.48807074001524597406,-0.00923184911648915,290.950956755272,-302.509231849116
738508.48807083046995103359,-0.00923184911648915,291.634113589892,-302.509231849116
738508.48807092092465609312,-0.00923184911648915,290.646305734428,-302.509231849116
738508.48807101137936115265,-0.00923184911648915,291.569490646077,-302.509231849116
738508.48807110183406621218,-0.00923184911648915,291.052507095553,-302.509231849116
738508.48807119228877127171,-0.00923184911648915,291.292535172582,-302.509231849116
738508.48807128262706100941,-0.00923184911648915,291.126361888485,-302.509231849116
738508.48807137308176606894,-0.00923184911648915,291.135593737602,-302.509231849116
738508.48807146353647112846,-0.00923184911648915,291.172521134068,-302.509231849116
738508.48807155399117618799,-0.00923184911648915,290.950956755272,-302.509231849116
738508.48807164444588124752,-0.00923184911648915,291.246375927,-302.509231849116
738508.48807173490058630705,-0.00923184911648915,290.757087923826,-302.509231849116
738508.48807182523887604475,-0.00923184911648915,291.310998870815,-302.509231849116
738508.48807191569358110428,-0.00923184911648915,290.627842036195,-302.509231849116
738508.48807200614828616381,-0.00923184911648915,291.283303323466,-302.509231849116
738508.48807209660299122334,-0.00923184911648915,290.517059846797,-302.509231849116
738508.48807218705769628286,-0.00923184911648915,291.357158116398,-302.509231849116
738508.48807227751240134239,-0.00923184911648915,290.433973204749,-302.509231849116
738508.48807236785069108009,-0.00923184911648915,291.412549211097,-302.509231849116
738508.48807245830539613962,-0.00923184911648915,290.406277657399,-302.509231849116
738508.48807254876010119915,-0.00923184911648915,291.384853663747,-302.509231849116
738508.48807263921480625868,-0.00923184911648915,290.360118411817,-302.509231849116
738508.48807272966951131821,-0.00923184911648915,291.384853663747,-302.509231849116
738508.48807282000780105591,-0.00923184911648915,290.461668752098,-302.509231849116
738508.48807291046250611544,-0.00923184911648915,291.283303323466,-302.509231849116
738508.48807300091721117496,-0.00923184911648915,291.070970793786,-302.509231849116
738508.48807309137191623449,-0.00923184911648915,290.461668752098,-302.509231849116
738508.48807318182662129402,-0.00923184911648915,291.163289284951,-302.509231849116
738508.48807327228132635355,-0.00923184911648915,290.341654713584,-302.509231849116
738508.48807336261961609125,-0.00923184911648915,291.246375927,-302.509231849116
738508.48807345307432115078,-0.00923184911648915,290.37858211005,-302.509231849116
738508.48807354352902621031,-0.00923184911648915,291.347926267281,-302.509231849116
738508.48807363398373126984,-0.00923184911648915,290.387813959166,-302.509231849116
738508.48807372443843632936,-0.00923184911648915,291.421781060213,-302.509231849116
738508.48807381489314138889,-0.00923184911648915,290.452436902982,-302.509231849116
738508.48807390523143112659,-0.00923184911648915,291.394085512864,-302.509231849116
738508.48807399568613618612,-0.00923184911648915,290.507827997681,-302.509231849116
738508.48807408614084124565,-0.00923184911648915,291.366389965514,-302.509231849116
738508.48807417659554630518,-0.00923184911648915,290.470900601215,-302.509231849116
738508.48807426705025136471,-0.00923184911648915,291.190984832301,-302.509231849116
738508.48807435750495642424,-0.00923184911648915,290.526291695914,-302.509231849116
738508.48807444784324616194,-0.00923184911648915,290.923261207923,-302.509231849116
738508.48807453829795122147,-0.00923184911648915,290.517059846797,-302.509231849116
738508.48807462875265628099,-0.00923184911648915,290.923261207923,-302.509231849116
738508.48807471920736134052,-0.00923184911648915,290.710928678243,-302.509231849116
738508.48807480966206640005,-0.00923184911648915,290.221640675069,-302.509231849116
738508.48807490000035613775,-0.00923184911648915,291.227912228767,-302.509231849116
738508.48807499045506119728,-0.00923184911648915,290.221640675069,-302.509231849116
738508.48807508090976625681,-0.00923184911648915,291.190984832301,-302.509231849116
738508.48807517136447131634,-0.00923184911648915,290.258568071535,-302.509231849116
738508.48807526181917637587,-0.00923184911648915,291.117130039369,-302.509231849116
738508.48807535227388143539,-0.00923184911648915,290.286263618885,-302.509231849116
738508.48807544261217117310,-0.00923184911648915,291.015579699087,-302.509231849116
738508.48807553306687623262,-0.00923184911648915,290.341654713584,-302.509231849116
738508.48807562352158129215,-0.00923184911648915,290.90479750969,-302.509231849116
738508.48807571397628635168,-0.00923184911648915,290.443205053865,-302.509231849116
738508.48807580443099141121,-0.00923184911648915,290.803247169408,-302.509231849116
738508.48807589488569647074,-0.00923184911648915,290.56321909238,-302.509231849116
738508.48807598522398620844,-0.00923184911648915,290.646305734428,-302.509231849116
738508.48807607567869126797,-0.00923184911648915,290.664769432661,-302.509231849116
738508.48807616613339632750,-0.00923184911648915,290.53552354503,-302.509231849116
738508.48807625658810138702,-0.00923184911648915,290.757087923826,-302.509231849116
738508.48807634704280644655,-0.00923184911648915,290.397045808283,-302.509231849116
738508.48807643749751150608,-0.00923184911648915,290.821710867641,-302.509231849116
738508.48807652783580124378,-0.00923184911648915,290.175481429487,-302.509231849116
738508.48807661829050630331,-0.00923184911648915,290.941724906156,-302.509231849116
738508.48807670874521136284,-0.00923184911648915,290.212408825953,-302.509231849116
738508.48807679919991642237,-0.00923184911648915,290.803247169408,-302.509231849116
738508.48807688965462148190,-0.00923184911648915,290.323191015351,-302.509231849116
738508.48807697999291121960,-0.00923184911648915,290.69246498001,-302.509231849116
738508.48807707044761627913,-0.00923184911648915,290.406277657399,-302.509231849116
738508.48807716090232133865,-0.00923184911648915,290.53552354503,-302.509231849116
738508.48807725135702639818,-0.00923184911648915,290.424741355632,-302.509231849116
738508.48807734181173145771,-0.00923184911648915,290.332422864467,-302.509231849116
738508.48807743226643651724,-0.00923184911648915,290.590914639729,-302.509231849116
738508.48807752260472625494,-0.00923184911648915,290.184713278603,-302.509231849116
738508.48807761305943131447,-0.00923184911648915,290.674001281777,-302.509231849116
738508.48807770351413637400,-0.00923184911648915,290.083162938322,-302.509231849116
738508.48807779396884143353,-0.00923184911648915,290.710928678243,-302.509231849116
738508.48807788442354649305,-0.00923184911648915,289.990844447157,-302.509231849116
738508.48807797487825155258,-0.00923184911648915,290.627842036195,-302.509231849116
738508.48807806521654129028,-0.00923184911648915,289.82467116306,-302.509231849116
738508.48807815567124634981,-0.00923184911648915,290.812479018525,-302.509231849116
738508.48807824612595140934,-0.00923184911648915,289.843134861293,-302.509231849116
738508.48807833658065646887,-0.00923184911648915,290.821710867641,-302.509231849116
738508.48807842703536152840,-0.00923184911648915,289.889294106876,-302.509231849116
738508.48807851749006658792,-0.00923184911648915,290.3508865627,-302.509231849116
738508.48807860782835632563,-0.00923184911648915,290.56321909238,-302.509231849116
738508.48807869828306138515,-0.00923184911648915,290.157017731254,-302.509231849116
738508.48807878873776644468,-0.00923184911648915,290.646305734428,-302.509231849116
738508.48807887919247150421,-0.00923184911648915,290.092394787439,-302.509231849116
738508.48807896964717656374,-0.00923184911648915,290.701696829127,-302.509231849116
738508.48807905998546630144,-0.00923184911648915,289.981612598041,-302.509231849116
738508.48807915044017136097,-0.00923184911648915,290.812479018525,-302.509231849116
738508.48807924089487642050,-0.00923184911648915,289.926221503342,-302.509231849116
738508.48807933134958148003,-0.00923184911648915,290.701696829127,-302.509231849116
738508.48807942180428653955,-0.00923184911648915,289.82467116306,-302.509231849116
738508.48807951225899159908,-0.00923184911648915,290.784783471175,-302.509231849116
738508.48807960259728133678,-0.00923184911648915,289.741584521012,-302.509231849116
738508.48807969305198639631,-0.00923184911648915,290.747856074709,-302.509231849116
738508.48807978350669145584,-0.00923184911648915,289.796975615711,-302.509231849116
738508.48807987396139651537,-0.00923184911648915,290.729392376476,-302.509231849116
738508.48807996441610157490,-0.00923184911648915,289.806207464827,-302.509231849116
738508.48808005487080663443,-0.00923184911648915,290.683233130894,-302.509231849116
738508.48808014520909637213,-0.00923184911648915,289.926221503342,-302.509231849116
738508.48808023566380143166,-0.00923184911648915,290.498596148564,-302.509231849116
738508.48808032611850649118,-0.00923184911648915,290.544755394147,-302.509231849116
738508.48808041657321155071,-0.00923184911648915,289.796975615711,-302.509231849116
738508.48808050702791661024,-0.00923184911648915,290.757087923826,-302.509231849116
738508.48808059748262166977,-0.00923184911648915,289.741584521012,-302.509231849116
738508.48808068782091140747,-0.00923184911648915,290.766319772942,-302.509231849116
738508.48808077827561646700,-0.00923184911648915,289.806207464827,-302.509231849116
738508.48808086873032152653,-0.00923184911648915,290.766319772942,-302.509231849116
738508.48808095918502658606,-0.00923184911648915,289.796975615711,-302.509231849116
738508.48808104963973164558,-0.00923184911648915,290.775551622059,-302.509231849116
738508.48808113997802138329,-0.00923184911648915,289.833903012177,-302.509231849116
738508.48808123043272644281,-0.00923184911648915,290.683233130894,-302.509231849116
738508.48808132088743150234,-0.00923184911648915,289.953917050691,-302.509231849116
738508.48808141134213656187,-0.00923184911648915,290.655537583544,-302.509231849116
738508.48808150179684162140,-0.00923184911648915,289.944685201575,-302.509231849116
738508.48808159225154668093,-0.00923184911648915,290.498596148564,-302.509231849116
738508.48808168258983641863,-0.00923184911648915,290.203176976836,-302.509231849116
738508.48808177304454147816,-0.00923184911648915,290.424741355632,-302.509231849116
738508.48808186349924653769,-0.00923184911648915,290.295495468001,-302.509231849116
738508.48808195395395159721,-0.00923184911648915,290.286263618885,-302.509231849116
738508.48808204440865665674,-0.00923184911648915,290.37858211005,-302.509231849116
738508.48808213486336171627,-0.00923184911648915,290.120090334788,-302.509231849116
738508.48808222520165145397,-0.00923184911648915,290.747856074709,-302.509231849116
738508.48808231565635651350,-0.00923184911648915,289.815439313944,-302.509231849116
738508.48808240611106157303,-0.00923184911648915,290.637073885311,-302.509231849116
738508.48808249656576663256,-0.00923184911648915,289.898525955992,-302.509231849116
738508.48808258702047169209,-0.00923184911648915,290.609378337962,-302.509231849116
738508.48808267747517675161,-0.00923184911648915,290.018539994507,-302.509231849116
738508.48808276781346648932,-0.00923184911648915,290.507827997681,-302.509231849116
738508.48808285826817154884,-0.00923184911648915,290.175481429487,-302.509231849116
738508.48808294872287660837,-0.00923184911648915,290.461668752098,-302.509231849116
738508.48808303917758166790,-0.00923184911648915,290.304727317118,-302.509231849116
738508.48808312963228672743,-0.00923184911648915,290.249336222419,-302.509231849116
738508.48808321997057646513,-0.00923184911648915,290.332422864467,-302.509231849116
738508.48808331042528152466,-0.00923184911648915,290.073931089206,-302.509231849116
738508.48808340087998658419,-0.00923184911648915,290.415509506516,-302.509231849116
738508.48808349133469164371,-0.00923184911648915,289.963148899808,-302.509231849116
738508.48808358178939670324,-0.00923184911648915,290.480132450331,-302.509231849116
738508.48808367224410176277,-0.00923184911648915,289.880062257759,-302.509231849116
738508.48808376258239150047,-0.00923184911648915,290.600146488845,-302.509231849116
738508.48808385303709656000,-0.00923184911648915,289.778511917478,-302.509231849116
738508.48808394349180161953,-0.00923184911648915,290.729392376476,-302.509231849116
738508.48808403394650667906,-0.00923184911648915,290.129322183905,-302.509231849116
738508.48808412440121173859,-0.00923184911648915,290.397045808283,-302.509231849116
738508.48808421485591679811,-0.00923184911648915,290.175481429487,-302.509231849116
738508.48808430519420653582,-0.00923184911648915,290.212408825953,-302.509231849116
738508.48808439564891159534,-0.00923184911648915,290.267799920652,-302.509231849116
738508.48808448610361665487,-0.00923184911648915,290.03700369274,-302.509231849116
738508.48808457655832171440,-0.00923184911648915,290.360118411817,-302.509231849116
738508.48808466701302677393,-0.00923184911648915,289.953917050691,-302.509231849116
738508.48808475746773183346,-0.00923184911648915,290.461668752098,-302.509231849116
738508.48808484780602157116,-0.00923184911648915,289.861598559526,-302.509231849116
738508.48808493826072663069,-0.00923184911648915,290.590914639729,-302.509231849116
738508.48808502871543169022,-0.00923184911648915,289.658497878964,-302.509231849116
738508.48808511917013674974,-0.00923184911648915,290.452436902982,-302.509231849116
738508.48808520962484180927,-0.00923184911648915,289.621570482498,-302.509231849116
738508.48808529996313154697,-0.00923184911648915,290.618610187078,-302.509231849116
738508.48808539041783660650,-0.00923184911648915,289.520020142216,-302.509231849116
738508.48808548087254166603,-0.00923184911648915,290.618610187078,-302.509231849116
738508.48808557132724672556,-0.00923184911648915,289.658497878964,-302.509231849116
738508.48808566178195178509,-0.00923184911648915,290.581682790612,-302.509231849116
738508.48808575223665684462,-0.00923184911648915,289.640034180731,-302.509231849116
738508.48808584257494658232,-0.00923184911648915,289.861598559526,-302.509231849116
738508.48808593302965164185,-0.00923184911648915,290.387813959166,-302.509231849116
738508.48808602348435670137,-0.00923184911648915,289.704657124546,-302.509231849116
738508.48808611393906176090,-0.00923184911648915,290.424741355632,-302.509231849116
738508.48808620439376682043,-0.00923184911648915,289.630802331614,-302.509231849116
738508.48808629484847187996,-0.00923184911648915,290.470900601215,-302.509231849116
738508.48808638518676161766,-0.00923184911648915,289.520020142216,-302.509231849116
738508.48808647564146667719,-0.00923184911648915,290.507827997681,-302.509231849116
738508.48808656609617173672,-0.00923184911648915,289.501556443983,-302.509231849116
738508.48808665655087679625,-0.00923184911648915,290.507827997681,-302.509231849116
738508.48808674700558185577,-0.00923184911648915,289.520020142216,-302.509231849116
738508.48808683746028691530,-0.00923184911648915,290.507827997681,-302.509231849116
738508.48808692779857665300,-0.00923184911648915,289.547715689566,-302.509231849116
738508.48808701825328171253,-0.00923184911648915,290.433973204749,-302.509231849116
738508.48808710870798677206,-0.00923184911648915,289.556947538682,-302.509231849116
738508.48808719916269183159,-0.00923184911648915,290.313959166234,-302.509231849116
738508.48808728961739689112,-0.00923184911648915,289.649266029847,-302.509231849116
738508.48808737995568662882,-0.00923184911648915,290.19394512772,-302.509231849116
738508.48808747041039168835,-0.00923184911648915,289.704657124546,-302.509231849116
738508.48808756086509674788,-0.00923184911648915,290.101626636555,-302.509231849116
738508.48808765131980180740,-0.00923184911648915,289.85236671041,-302.509231849116
738508.48808774177450686693,-0.00923184911648915,289.381542405469,-302.509231849116
738508.48808783222921192646,-0.00923184911648915,290.313959166234,-302.509231849116
738508.48808792256750166416,-0.00923184911648915,289.270760216071,-302.509231849116
738508.48808801302220672369,-0.00923184911648915,290.230872524186,-302.509231849116
738508.48808810347691178322,-0.00923184911648915,289.289223914304,-302.509231849116
738508.48808819393161684275,-0.00923184911648915,290.203176976836,-302.509231849116
738508.48808828438632190228,-0.00923184911648915,289.353846858119,-302.509231849116
738508.48808837484102696180,-0.00923184911648915,290.157017731254,-302.509231849116
738508.48808846517931669950,-0.00923184911648915,289.529251991333,-302.509231849116
738508.48808855563402175903,-0.00923184911648915,290.046235541856,-302.509231849116
738508.48808864608872681856,-0.00923184911648915,289.556947538682,-302.509231849116
738508.48808873654343187809,-0.00923184911648915,290.03700369274,-302.509231849116
738508.48808882699813693762,-0.00923184911648915,289.806207464827,-302.509231849116
738508.48808891745284199715,-0.00923184911648915,289.972380748924,-302.509231849116
738508.48808900779113173485,-0.00923184911648915,289.944685201575,-302.509231849116
738508.48808909824583679438,-0.00923184911648915,289.889294106876,-302.509231849116
738508.48808918870054185390,-0.00923184911648915,290.240104373302,-302.509231849116
738508.48808927915524691343,-0.00923184911648915,289.870830408643,-302.509231849116
738508.48808936960995197296,-0.00923184911648915,290.498596148564,-302.509231849116
738508.48808945994824171066,-0.00923184911648915,290.00930814539,-302.509231849116
738508.48808955040294677019,-0.00923184911648915,290.757087923826,-302.509231849116
738508.48808964085765182972,-0.00923184911648915,290.083162938322,-302.509231849116
738508.48808973131235688925,-0.00923184911648915,290.812479018525,-302.509231849116
738508.48808982176706194878,-0.00923184911648915,290.277031769768,-302.509231849116
738508.48808991222176700830,-0.00923184911648915,290.618610187078,-302.509231849116
738508.48809000256005674601,-0.00923184911648915,290.369350260933,-302.509231849116
738508.48809009301476180553,-0.00923184911648915,290.526291695914,-302.509231849116
738508.48809018346946686506,-0.00923184911648915,290.526291695914,-302.509231849116
738508.48809027392417192459,-0.00923184911648915,290.387813959166,-302.509231849116
738508.48809036437887698412,-0.00923184911648915,290.489364299448,-302.509231849116
738508.48809045483358204365,-0.00923184911648915,290.055467390973,-302.509231849116
738508.48809054517187178135,-0.00923184911648915,290.461668752098,-302.509231849116
738508.48809063562657684088,-0.00923184911648915,289.787743766594,-302.509231849116
738508.48809072608128190041,-0.00923184911648915,290.249336222419,-302.509231849116
738508.48809081653598695993,-0.00923184911648915,289.436933500168,-302.509231849116
738508.48809090699069201946,-0.00923184911648915,290.064699240089,-302.509231849116
738508.48809099744539707899,-0.00923184911648915,289.067659535508,-302.509231849116
738508.48809108778368681669,-0.00923184911648915,289.760048219245,-302.509231849116
738508.48809117823839187622,-0.00923184911648915,288.578371532334,-302.509231849116
738508.48809126869309693575,-0.00923184911648915,289.409237952818,-302.509231849116
738508.48809135914780199528,-0.00923184911648915,288.873790704062,-302.509231849116
738508.48809144960250705481,-0.00923184911648915,288.578371532334,-302.509231849116
738508.48809153994079679251,-0.00923184911648915,288.6152989288,-302.509231849116
738508.48809163039550185204,-0.00923184911648915,288.162938322092,-302.509231849116
738508.48809172085020691156,-0.00923184911648915,288.486053041169,-302.509231849116
738508.48809181130491197109,-0.00923184911648915,287.756736960967,-302.509231849116
738508.48809190175961703062,-0.00923184911648915,288.30141605884,-302.509231849116
738508.48809199221432209015,-0.00923184911648915,287.525940733055,-302.509231849116
738508.48809208255261182785,-0.00923184911648915,288.181402020325,-302.509231849116
738508.48809217300731688738,-0.00923184911648915,287.193594164861,-302.509231849116
738508.48809226346202194691,-0.00923184911648915,288.162938322092,-302.509231849116
738508.48809235391672700644,-0.00923184911648915,287.008957182531,-302.509231849116
738508.48809244437143206596,-0.00923184911648915,288.061387981811,-302.509231849116
738508.48809253482613712549,-0.00923184911648915,287.036652729881,-302.509231849116
738508.48809262516442686319,-0.00923184911648915,288.042924283578,-302.509231849116
738508.48809271561913192272,-0.00923184911648915,287.138203070162,-302.509231849116
738508.48809280607383698225,-0.00923184911648915,288.27372051149,-302.509231849116
738508.48809289652854204178,-0.00923184911648915,287.544404431288,-302.509231849116
738508.48809298698324710131,-0.00923184911648915,288.670690023499,-302.509231849116
738508.48809307743795216084,-0.00923184911648915,288.190633869442,-302.509231849116
738508.48809316777624189854,-0.00923184911648915,289.409237952818,-302.509231849116
738508.48809325823094695807,-0.00923184911648915,289.621570482498,-302.509231849116
738508.48809334868565201759,-0.00923184911648915,289.372310556352,-302.509231849116
738508.48809343914035707712,-0.00923184911648915,290.415509506516,-302.509231849116
738508.48809352959506213665,-0.00923184911648915,289.538483840449,-302.509231849116
738508.48809361993335187435,-0.00923184911648915,290.369350260933,-302.509231849116
738508.48809371038805693388,-0.00923184911648915,289.196905423139,-302.509231849116
738508.48809380084276199341,-0.00923184911648915,290.147785882137,-302.509231849116
738508.48809389129746705294,-0.00923184911648915,289.003036591693,-302.509231849116
738508.48809398175217211246,-0.00923184911648915,289.69542527543,-302.509231849116
738508.48809407220687717199,-0.00923184911648915,288.522980437635,-302.509231849116
738508.48809416254516690969,-0.00923184911648915,289.289223914304,-302.509231849116
738508.48809425299987196922,-0.00923184911648915,288.624530777917,-302.509231849116
738508.48809434345457702875,-0.00923184911648915,289.621570482498,-302.509231849116
738508.48809443390928208828,-0.00923184911648915,289.400006103702,-302.509231849116
738508.48809452436398714781,-0.00923184911648915,290.230872524186,-302.509231849116
738508.48809461481869220734,-0.00923184911648915,290.129322183905,-302.509231849116
738508.48809470515698194504,-0.00923184911648915,290.618610187078,-302.509231849116
738508.48809479561168700457,-0.00923184911648915,290.433973204749,-302.509231849116
738508.48809488606639206409,-0.00923184911648915,290.286263618885,-302.509231849116
738508.48809497652109712362,-0.00923184911648915,290.295495468001,-302.509231849116
738508.48809506697580218315,-0.00923184911648915,289.640034180731,-302.509231849116
738508.48809515743050724268,-0.00923184911648915,290.369350260933,-302.509231849116
738508.48809524776879698038,-0.00923184911648915,289.14151432844,-302.509231849116
738508.48809533822350203991,-0.00923184911648915,289.723120822779,-302.509231849116
738508.48809542867820709944,-0.00923184911648915,288.624530777917,-302.509231849116
738508.48809551913291215897,-0.00923184911648915,289.086123233741,-302.509231849116
738508.48809560958761721849,-0.00923184911648915,288.199865718558,-302.509231849116
738508.48809569992590695620,-0.00923184911648915,288.338343455306,-302.509231849116
738508.48809579038061201572,-0.00923184911648915,287.913678395947,-302.509231849116
738508.48809588083531707525,-0.00923184911648915,287.996765037996,-302.509231849116
738508.48809597129002213478,-0.00923184911648915,287.664418469802,-302.509231849116
738508.48809606174472719431,-0.00923184911648915,287.479781487472,-302.509231849116
738508.48809615219943225384,-0.00923184911648915,287.368999298074,-302.509231849116
738508.48809624253772199154,-0.00923184911648915,286.972029786065,-302.509231849116
738508.48809633299242705107,-0.00923184911648915,287.184362315744,-302.509231849116
738508.48809642344713211060,-0.00923184911648915,286.611987670522,-302.509231849116
738508.48809651390183717012,-0.00923184911648915,287.036652729881,-302.509231849116
738508.48809660435654222965,-0.00923184911648915,286.464278084658,-302.509231849116
738508.48809669481124728918,-0.00923184911648915,287.138203070162,-302.509231849116
738508.48809678514953702688,-0.00923184911648915,286.307336649678,-302.509231849116
738508.48809687560424208641,-0.00923184911648915,286.787392803735,-302.509231849116
738508.48809696605894714594,-0.00923184911648915,286.335032197027,-302.509231849116
738508.48809705651365220547,-0.00923184911648915,286.593523972289,-302.509231849116
738508.48809714696835726500,-0.00923184911648915,286.335032197027,-302.509231849116
738508.48809723742306232452,-0.00923184911648915,286.113467818232,-302.509231849116
738508.48809732776135206223,-0.00923184911648915,285.753425702689,-302.509231849116
738508.48809741821605712175,-0.00923184911648915,285.153355510117,-302.509231849116
738508.48809750867076218128,-0.00923184911648915,284.876400036622,-302.509231849116
738508.48809759912546724081,-0.00923184911648915,283.639332255013,-302.509231849116
738508.48809768958017230034,-0.00923184911648915,283.150044251839,-302.509231849116
738508.48809777991846203804,-0.00923184911648915,281.506775109104,-302.509231849116
738508.48809787037316709757,-0.00923184911648915,280.915936765648,-302.509231849116
738508.48809796082787215710,-0.00923184911648915,278.811075167089,-302.509231849116
738508.48809805128257721663,-0.00923184911648915,277.878658406323,-302.509231849116
738508.48809814173728227615,-0.00923184911648915,274.582888271737,-302.509231849116
738508.48809823219198733568,-0.00923184911648915,271.573305459761,-302.509231849116
738508.48809832253027707338,-0.00923184911648915,269.200720236824,-302.509231849116
738508.48809841298498213291,-0.00923184911648915,267.889797662282,-302.509231849116
738508.48809850343968719244,-0.00923184911648915,262.683034760582,-302.509231849116
738508.48809859389439225197,-0.00923184911648915,260.21813104648,-302.509231849116
738508.48809868434909731150,-0.00923184911648915,255.426801355022,-302.509231849116
738508.48809877480380237103,-0.00923184911648915,254.679021576586,-302.509231849116
738508.48809886514209210873,-0.00923184911648915,252.666478469192,-302.509231849116
738508.48809895559679716825,-0.00923184911648915,250.090792565691,-302.509231849116
738508.48809904605150222778,-0.00923184911648915,249.029129917295,-302.509231849116
738508.48809913650620728731,-0.00923184911648915,247.007354960784,-302.509231849116
738508.48809922696091234684,-0.00923184911648915,247.921308023316,-302.509231849116
738508.48809931741561740637,-0.00923184911648915,247.191991943113,-302.509231849116
738508.48809940775390714407,-0.00923184911648915,249.675359355449,-302.509231849116
738508.48809949820861220360,-0.00923184911648915,250.681630909146,-302.509231849116
738508.48809958866331726313,-0.00923184911648915,253.146534623249,-302.509231849116
738508.48809967911802232265,-0.00923184911648915,254.438993499557,-302.509231849116
738508.48809976957272738218,-0.00923184911648915,259.147236548967,-302.509231849116
738508.48809985991101711988,-0.00923184911648915,262.313760795923,-302.509231849116
738508.48809995036572217941,-0.00923184911648915,267.169713431196,-302.509231849116
738508.48810004082042723894,-0.00923184911648915,270.096209601123,-302.509231849116
738508.48810013127513229847,-0.00923184911648915,274.241309854427,-302.509231849116
738508.48810022172983735800,-0.00923184911648915,276.595431379131,-302.509231849116
738508.48810031218454241753,-0.00923184911648915,280.592822046571,-302.509231849116
738508.48810040252283215523,-0.00923184911648915,282.826929532762,-302.509231849116
738508.48810049297753721476,-0.00923184911648915,286.085772270882,-302.509231849116
738508.48810058343224227428,-0.00923184911648915,287.701345866268,-302.509231849116
738508.48810067388694733381,-0.00923184911648915,289.621570482498,-302.509231849116
738508.48810076434165239334,-0.00923184911648915,292.188024536882,-302.509231849116
738508.48810085479635745287,-0.00923184911648915,292.852717673269,-302.509231849116
738508.48810094513464719057,-0.00923184911648915,295.077593310343,-302.509231849116
738508.48810103558935225010,-0.00923184911648915,294.819101535081,-302.509231849116
738508.48810112604405730963,-0.00923184911648915,296.286965544603,-302.509231849116
738508.48810121649876236916,-0.00923184911648915,295.474562822352,-302.509231849116
738508.48810130695346742868,-0.00923184911648915,295.880764183477,-302.509231849116
738508.48810139740817248821,-0.00923184911648915,294.763710440382,-302.509231849116
738508.48810148774646222591,-0.00923184911648915,294.68985564745,-302.509231849116
738508.48810157820116728544,-0.00923184911648915,293.083513901181,-302.509231849116
738508.48810166865587234497,-0.00923184911648915,294.292886135441,-302.509231849116
738508.48810175911057740450,-0.00923184911648915,292.381893368328,-302.509231849116
738508.48810184956528246403,-0.00923184911648915,291.246375927,-302.509231849116
738508.48810193990357220173,-0.00923184911648915,290.073931089206,-302.509231849116
738508.48810203035827726126,-0.00923184911648915,287.599795525987,-302.509231849116
738508.48810212081298232079,-0.00923184911648915,285.144123661,-302.509231849116
738508.48810221126768738031,-0.00923184911648915,283.740882595294,-302.509231849116
738508.48810230172239243984,-0.00923184911648915,282.346873378704,-302.509231849116
738508.48810239217709749937,-0.00923184911648915,282.04222235786,-302.509231849116
738508.48810248251538723707,-0.00923184911648915,280.195852534562,-302.509231849116
738508.48810257297009229660,-0.00923184911648915,276.179998168889,-302.509231849116
738508.48810266342479735613,-0.00923184911648915,277.093951231422,-302.509231849116
738508.48810275387950241566,-0.00923184911648915,277.712485122227,-302.509231849116
738508.48810284433420747519,-0.00923184911648915,279.041871395001,-302.509231849116
738508.48810293478891253471,-0.00923184911648915,279.62347788934,-302.509231849116
738508.48810302512720227242,-0.00923184911648915,279.088030640583,-302.509231849116
738508.48810311558190733194,-0.00923184911648915,279.374217963195,-302.509231849116
738508.48810320603661239147,-0.00923184911648915,280.777459028901,-302.509231849116
738508.48810329649131745100,-0.00923184911648915,283.085421308023,-302.509231849116
738508.48810338694602251053,-0.00923184911648915,283.860896633808,-302.509231849116
738508.48810347740072757006,-0.00923184911648915,285.291833246864,-302.509231849116
738508.48810356773901730776,-0.00923184911648915,284.821008941923,-302.509231849116
738508.48810365819372236729,-0.00923184911648915,285.070268868068,-302.509231849116
738508.48810374864842742682,-0.00923184911648915,284.414807580798,-302.509231849116
738508.48810383910313248634,-0.00923184911648915,282.273018585772,-302.509231849116
738508.48810392955783754587,-0.00923184911648915,280.611285744804,-302.509231849116
738508.48810401989612728357,-0.00923184911648915,281.072878200629,-302.509231849116
738508.48810411035083234310,-0.00923184911648915,278.663365581225,-302.509231849116
738508.48810420080553740263,-0.00923184911648915,279.198812829981,-302.509231849116
738508.48810429126024246216,-0.00923184911648915,278.017136143071,-302.509231849116
738508.48810438171494752169,-0.00923184911648915,278.146382030702,-302.509231849116
738508.48810447216965258121,-0.00923184911648915,278.303323465682,-302.509231849116
738508.48810456250794231892,-0.00923184911648915,277.970976897488,-302.509231849116
738508.48810465296264737844,-0.00923184911648915,278.552583391827,-302.509231849116
738508.48810474341735243797,-0.00923184911648915,277.961745048372,-302.509231849116
738508.48810483387205749750,-0.00923184911648915,276.789300210578,-302.509231849116
738508.48810492432676255703,-0.00923184911648915,275.155262916959,-302.509231849116
738508.48810501478146761656,-0.00923184911648915,274.684438612018,-302.509231849116
738508.48810510511975735426,-0.00923184911648915,273.982818079165,-302.509231849116
738508.48810519557446241379,-0.00923184911648915,275.182958464309,-302.509231849116
738508.48810528602916747332,-0.00923184911648915,275.727637562181,-302.509231849116
738508.48810537648387253284,-0.00923184911648915,277.02009643849,-302.509231849116
738508.48810546693857759237,-0.00923184911648915,276.67851802118,-302.509231849116
738508.48810555739328265190,-0.00923184911648915,277.740180669576,-302.509231849116
738508.48810564773157238960,-0.00923184911648915,277.241660817286,-302.509231849116
738508.48810573818627744913,-0.00923184911648915,278.737220374157,-302.509231849116
738508.48810582864098250866,-0.00923184911648915,278.321787163915,-302.509231849116
738508.48810591909568756819,-0.00923184911648915,279.854274117252,-302.509231849116
738508.48810600955039262772,-0.00923184911648915,280.12199774163,-302.509231849116
738508.48810609988868236542,-0.00923184911648915,280.758995330668,-302.509231849116
738508.48810619034338742495,-0.00923184911648915,282.873088778344,-302.509231849116
738508.48810628079809248447,-0.00923184911648915,282.531510361034,-302.509231849116
738508.48810637125279754400,-0.00923184911648915,283.805505539109,-302.509231849116
738508.48810646170750260353,-0.00923184911648915,283.362376781518,-302.509231849116
738508.48810655216220766306,-0.00923184911648915,284.433271279031,-302.509231849116
738508.48810664250049740076,-0.00923184911648915,283.500854518265,-302.509231849116
738508.48810673295520246029,-0.00923184911648915,285.282601397748,-302.509231849116
738508.48810682340990751982,-0.00923184911648915,283.399304177984,-302.509231849116
738508.48810691386461257935,-0.00923184911648915,282.780770287179,-302.509231849116
738508.48810700431931763887,-0.00923184911648915,280.426648762474,-302.509231849116
738508.48810709477402269840,-0.00923184911648915,277.675557725761,-302.509231849116
738508.48810718511231243610,-0.00923184911648915,275.339899899289,-302.509231849116
738508.48810727556701749563,-0.00923184911648915,274.730597857601,-302.509231849116
738508.48810736602172255516,-0.00923184911648915,273.696630756554,-302.509231849116
738508.48810745647642761469,-0.00923184911648915,274.04744102298,-302.509231849116
738508.48810754693113267422,-0.00923184911648915,271.868724631489,-302.509231849116
738508.48810763738583773375,-0.00923184911648915,273.724326303903,-302.509231849116
738508.48810772772412747145,-0.00923184911648915,274.213614307077,-302.509231849116
738508.48810781817883253098,-0.00923184911648915,274.435178685873,-302.509231849116
738508.48810790863353759050,-0.00923184911648915,275.192190313425,-302.509231849116
738508.48810799908824265003,-0.00923184911648915,275.062944425794,-302.509231849116
738508.48810808954294770956,-0.00923184911648915,276.226157414472,-302.509231849116
738508.48810817988123744726,-0.00923184911648915,275.819956053346,-302.509231849116
738508.48810827033594250679,-0.00923184911648915,277.777108066042,-302.509231849116
738508.48810836079064756632,-0.00923184911648915,278.22946867275,-302.509231849116
738508.48810845124535262585,-0.00923184911648915,279.863505966369,-302.509231849116
738508.48810854170005768538,-0.00923184911648915,280.251243629261,-302.509231849116
738508.48810863215476274490,-0.00923184911648915,281.599093600269,-302.509231849116
738508.48810872249305248260,-0.00923184911648915,282.549974059267,-302.509231849116
738508.48810881294775754213,-0.00923184911648915,284.230170598468,-302.509231849116
738508.48810890340246260166,-0.00923184911648915,285.882671590319,-302.509231849116
738508.48810899385716766119,-0.00923184911648915,287.165898617512,-302.509231849116
738508.48810908431187272072,-0.00923184911648915,288.329111606189,-302.509231849116
738508.48810917476657778025,-0.00923184911648915,289.603106784265,-302.509231849116
738508.48810926510486751795,-0.00923184911648915,290.803247169408,-302.509231849116
738508.48810935555957257748,-0.00923184911648915,288.227561265908,-302.509231849116
738508.48810944601427763700,-0.00923184911648915,288.763008514664,-302.509231849116
738508.48810953646898269653,-0.00923184911648915,286.251945554979,-302.509231849116
738508.48810962692368775606,-0.00923184911648915,285.614947965941,-302.509231849116
738508.48810971737839281559,-0.00923184911648915,285.642643513291,-302.509231849116
738508.48810980771668255329,-0.00923184911648915,286.251945554979,-302.509231849116
738508.48810989817138761282,-0.00923184911648915,284.156315805536,-302.509231849116
738508.48810998862609267235,-0.00923184911648915,284.368648335215,-302.509231849116
738508.48811007908079773188,-0.00923184911648915,283.297753837703,-302.509231849116
738508.48811016953550279140,-0.00923184911648915,283.362376781518,-302.509231849116
738508.48811025987379252911,-0.00923184911648915,283.371608630634,-302.509231849116
738508.48811035032849758863,-0.00923184911648915,283.030030213324,-302.509231849116
738508.48811044078320264816,-0.00923184911648915,281.866817224647,-302.509231849116
738508.48811053123790770769,-0.00923184911648915,279.448072756127,-302.509231849116
738508.48811062169261276722,-0.00923184911648915,279.337290566729,-302.509231849116
738508.48811071214731782675,-0.00923184911648915,277.103183080538,-302.509231849116
738508.48811080248560756445,-0.00923184911648915,277.075487533189,-302.509231849116
738508.48811089294031262398,-0.00923184911648915,274.407483138524,-302.509231849116
738508.48811098339501768351,-0.00923184911648915,272.810373241371,-302.509231849116
738508.48811107384972274303,-0.00923184911648915,270.022354808191,-302.509231849116
738508.48811116430442780256,-0.00923184911648915,268.286767174291,-302.509231849116
738508.48811125475913286209,-0.00923184911648915,265.904950102237,-302.509231849116
738508.48811134509742259979,-0.00923184911648915,266.76351207007,-302.509231849116
738508.48811143555212765932,-0.00923184911648915,265.498748741111,-302.509231849116
738508.48811152600683271885,-0.00923184911648915,267.649769585253,-302.509231849116
738508.48811161646153777838,-0.00923184911648915,267.529755546739,-302.509231849116
738508.48811170691624283791,-0.00923184911648915,267.465132602924,-302.509231849116
738508.48811179737094789743,-0.00923184911648915,268.416013061922,-302.509231849116
738508.48811188770923763514,-0.00923184911648915,268.609881893368,-302.509231849116
738508.48811197816394269466,-0.00923184911648915,270.530106509598,-302.509231849116
738508.48811206861864775419,-0.00923184911648915,270.502410962249,-302.509231849116
738508.48811215907335281372,-0.00923184911648915,272.025666066469,-302.509231849116
738508.48811224952805787325,-0.00923184911648915,272.764213995788,-302.509231849116
738508.48811233986634761095,-0.00923184911648915,276.383098849452,-302.509231849116
738508.48811243032105267048,-0.00923184911648915,275.755333109531,-302.509231849116
738508.48811252077575773001,-0.00923184911648915,277.804803613392,-302.509231849116
738508.48811261123046278954,-0.00923184911648915,276.696981719413,-302.509231849116
738508.48811270168516784906,-0.00923184911648915,278.118686483352,-302.509231849116
738508.48811279213987290859,-0.00923184911648915,275.736869411298,-302.509231849116
738508.48811288247816264629,-0.00923184911648915,275.764564958647,-302.509231849116
738508.48811297293286770582,-0.00923184911648915,273.54892117069,-302.509231849116
738508.48811306338757276535,-0.00923184911648915,273.308893093661,-302.509231849116
738508.48811315384227782488,-0.00923184911648915,271.277886288034,-302.509231849116
738508.48811324429698288441,-0.00923184911648915,271.721015045625,-302.509231849116
738508.48811333475168794394,-0.00923184911648915,271.65639210181,-302.509231849116
738508.48811342508997768164,-0.00923184911648915,272.902691732536,-302.509231849116
738508.48811351554468274117,-0.00923184911648915,273.899731437117,-302.509231849116
738508.48811360599938780069,-0.00923184911648915,273.752021851253,-302.509231849116
738508.48811369645409286022,-0.00923184911648915,275.46914578692,-302.509231849116
738508.48811378690879791975,-0.00923184911648915,274.887539292581,-302.509231849116
738508.48811387736350297928,-0.00923184911648915,276.49388103885,-302.509231849116
738508.48811396770179271698,-0.00923184911648915,275.838419751579,-302.509231849116
738508.48811405815649777651,-0.00923184911648915,277.121646778771,-302.509231849116
738508.48811414861120283604,-0.00923184911648915,276.383098849452,-302.509231849116
738508.48811423906590789557,-0.00923184911648915,277.758644367809,-302.509231849116
738508.48811432952061295509,-0.00923184911648915,276.881618701743,-302.509231849116
738508.48811441985890269279,-0.00923184911648915,277.869426557207,-302.509231849116
738508.48811451031360775232,-0.00923184911648915,277.186269722587,-302.509231849116
738508.48811460076831281185,-0.00923184911648915,277.694021423994,-302.509231849116
738508.48811469122301787138,-0.00923184911648915,277.140110477004,-302.509231849116
738508.48811478167772293091,-0.00923184911648915,276.937009796442,-302.509231849116
738508.48811487213242799044,-0.00923184911648915,276.706213568529,-302.509231849116
738508.48811496247071772814,-0.00923184911648915,276.226157414472,-302.509231849116
738508.48811505292542278767,-0.00923184911648915,275.681478316599,-302.509231849116
738508.48811514338012784719,-0.00923184911648915,275.118335520493,-302.509231849116
738508.48811523383483290672,-0.00923184911648915,275.44145023957,-302.509231849116
738508.48811532428953796625,-0.00923184911648915,274.832148197882,-302.509231849116
738508.48811541474424302578,-0.00923184911648915,275.616855372784,-302.509231849116
738508.48811550508253276348,-0.00923184911648915,274.7859889523,-302.509231849116
738508.48811559553723782301,-0.00923184911648915,275.109103671377,-302.509231849116
738508.48811568599194288254,-0.00923184911648915,274.693670461135,-302.509231849116
738508.48811577644664794207,-0.00923184911648915,275.109103671377,-302.509231849116
738508.48811586690135300159,-0.00923184911648915,274.582888271737,-302.509231849116
738508.48811595735605806112,-0.00923184911648915,274.767525254067,-302.509231849116
738508.48811604769434779882,-0.00923184911648915,274.693670461135,-302.509231849116
738508.48811613814905285835,-0.00923184911648915,274.702902310251,-302.509231849116
738508.48811622860375791788,-0.00923184911648915,274.739829706717,-302.509231849116
738508.48811631905846297741,-0.00923184911648915,274.906002990814,-302.509231849116
738508.48811640951316803694,-0.00923184911648915,275.736869411298,-302.509231849116
738508.48811649985145777464,-0.00923184911648915,275.672246467483,-302.509231849116
738508.48811659030616283417,-0.00923184911648915,276.83545945616,-302.509231849116
738508.48811668076086789370,-0.00923184911648915,276.669286172063,-302.509231849116
738508.48811677121557295322,-0.00923184911648915,277.786339915159,-302.509231849116
738508.48811686167027801275,-0.00923184911648915,277.70325327311,-302.509231849116
738508.48811695212498307228,-0.00923184911648915,278.718756675924,-302.509231849116
738508.48811704246327280998,-0.00923184911648915,278.247932370983,-302.509231849116
738508.48811713291797786951,-0.00923184911648915,278.949552903836,-302.509231849116
738508.48811722337268292904,-0.00923184911648915,279.069566942351,-302.509231849116
738508.48811731382738798857,-0.00923184911648915,279.383449812311,-302.509231849116
738508.48811740428209304810,-0.00923184911648915,279.771187475204,-302.509231849116
738508.48811749473679810762,-0.00923184911648915,279.725028229621,-302.509231849116
738508.48811758507508784533,-0.00923184911648915,280.445112460707,-302.509231849116
738508.48811767552979290485,-0.00923184911648915,280.408185064241,-302.509231849116
738508.48811776598449796438,-0.00923184911648915,281.054414502396,-302.509231849116
738508.48811785643920302391,-0.00923184911648915,280.30663472396,-302.509231849116
