time_dn,ecg_projection_ll_ra_mV,ecg_projection_la_ra_mV,ecg_projection_vx_rl_mV
738297.54623322619590908289,-1.26784061199784,-6.09302041688284,336.617837051505
738297.54623331665061414242,-1.28014974415316,-6.10532954903816,336.691691844437
738297.54623340710531920195,-1.29245887630848,-6.11763868119348,336.716310108748
738297.54623349744360893965,-1.29245887630848,-6.11763868119348,336.617837051505
738297.54623358789831399918,-1.28014974415316,-6.10532954903816,336.593218787194
738297.54623367835301905870,-1.29245887630848,-6.11763868119348,336.63014618366
738297.54623376880772411823,-1.29245887630848,-6.11763868119348,336.60552791935
738297.54623385914601385593,-1.28014974415316,-6.09302041688284,336.63014618366
738297.54623394960071891546,-1.29245887630848,-6.09302041688284,336.728619240903
738297.54623404005542397499,-1.23091321553189,-6.09302041688284,336.777855769524
738297.54623413051012903452,-1.09551276182338,-5.82221950946582,336.765546637369
738297.54623422084841877222,-0.812402722251045,-5.12059897661265,336.851710562456
738297.54623431130312383175,-0.393892228970204,-4.27126885789565,336.753237505214
738297.54623440175782889128,-0.332346568193609,-4.29588712220628,336.383963540554
738297.54623449221253395081,-1.08320362966806,-5.12059897661265,336.322417879777
738297.54623458255082368851,-1.99407940916166,-6.75771355327006,336.371654408399
738297.54623467300552874804,-1.84636982329783,-6.65924049602751,336.470127465641
738297.54623476346023380756,-1.62480544450209,-6.41305785292113,336.273181351156
738297.54623485391493886709,-1.37862280139571,-6.19149347412539,336.494745729952
738297.54623494425322860479,-1.29245887630848,-6.10532954903816,336.667073580126
738297.54623503470793366432,-1.26784061199784,-6.09302041688284,336.728619240903
738297.54623512516263872385,-1.25553147984252,-6.08071128472752,336.63014618366
738297.54623521561734378338,-1.24322234768721,-6.05609302041688,336.753237505214
738297.54623530595563352108,-1.23091321553189,-6.05609302041688,336.753237505214
738297.54623539641033858061,-1.23091321553189,-6.05609302041688,336.704000976592
738297.54623548686504364014,-1.21860408337657,-6.03147475610625,336.679382712282
738297.54623557731974869967,-1.20629495122125,-6.03147475610625,336.716310108748
738297.54623566765803843737,-1.19398581906593,-5.99454735964029,336.740928373058
738297.54623575811274349689,-1.19398581906593,-5.99454735964029,336.753237505214
738297.54623584856744855642,-1.16936755475529,-5.99454735964029,336.728619240903
738297.54623593902215361595,-1.14474929044465,-5.98223822748497,336.753237505214
738297.54623602936044335365,-1.13244015828934,-6.01916562395093,336.765546637369
738297.54623611981514841318,-1.1078218939787,-6.01916562395093,336.679382712282
738297.54623621026985347271,-1.09551276182338,-5.95761996317433,336.802474033835
738297.54623630072455853224,-1.07089449751274,-5.90838343455306,336.79016490168
738297.54623639106284826994,-1.05858536535742,-5.80991037731051,336.777855769524
738297.54623648151755332947,-1.0462762332021,-5.82221950946582,336.839401430301
738297.54623657197225838900,-1.03396710104678,-5.82221950946582,336.827092298145
738297.54623666242696344852,-1.03396710104678,-5.79760124515519,336.81478316599
738297.54623675276525318623,-1.02165796889147,-5.82221950946582,336.827092298145
738297.54623684321995824575,-1.02165796889147,-5.84683777377646,336.740928373058
738297.54623693367466330528,-1.03396710104678,-5.8714560380871,336.704000976592
738297.54623702412936836481,-1.05858536535742,-5.89607430239774,336.654764447971
738297.54623711446765810251,-1.09551276182338,-5.93300169886369,336.679382712282
738297.54623720492236316204,-1.1078218939787,-5.93300169886369,336.642455315816
738297.54623729537706822157,-1.13244015828934,-5.98223822748497,336.60552791935
738297.54623738583177328110,-1.15705842259997,-5.98223822748497,336.593218787194
738297.54623747617006301880,-1.18167668691061,-6.01916562395093,336.667073580126
738297.54623756662476807833,-1.18167668691061,-6.01916562395093,336.642455315816
738297.54623765707947313786,-1.20629495122125,-6.04378388826156,336.642455315816
738297.54623774753417819738,-1.20629495122125,-6.04378388826156,336.617837051505
738297.54623783787246793509,-1.20629495122125,-6.04378388826156,336.642455315816
738297.54623792832717299461,-1.21860408337657,-6.03147475610625,336.593218787194
738297.54623801878187805414,-1.21860408337657,-6.04378388826156,336.543982258573
738297.54623810923658311367,-1.21860408337657,-6.05609302041688,336.654764447971
738297.54623819957487285137,-1.20629495122125,-6.04378388826156,336.642455315816
738297.54623829002957791090,-1.23091321553189,-6.05609302041688,336.433200069175
738297.54623838048428297043,-1.20629495122125,-6.04378388826156,336.457818333486
738297.54623847093898802996,-1.20629495122125,-6.04378388826156,336.63014618366
738297.54623856127727776766,-1.21860408337657,-6.04378388826156,336.63014618366
738297.54623865173198282719,-1.20629495122125,-6.04378388826156,336.60552791935
738297.54623874218668788671,-1.19398581906593,-6.04378388826156,336.531673126418
738297.54623883264139294624,-1.19398581906593,-6.04378388826156,336.642455315816
738297.54623892297968268394,-1.18167668691061,-6.03147475610625,336.642455315816
738297.54623901343438774347,-1.19398581906593,-6.04378388826156,336.642455315816
738297.54623910388909280300,-1.19398581906593,-6.01916562395093,336.63014618366
738297.54623919422738254070,-1.18167668691061,-6.01916562395093,336.642455315816
738297.54623928468208760023,-1.18167668691061,-6.01916562395093,336.654764447971
738297.54623937513679265976,-1.20629495122125,-6.01916562395093,336.63014618366
738297.54623946559149771929,-1.19398581906593,-6.01916562395093,336.667073580126
738297.54623955592978745699,-1.18167668691061,-6.03147475610625,336.642455315816
738297.54623964638449251652,-1.19398581906593,-6.03147475610625,336.642455315816
738297.54623973683919757605,-1.20629495122125,-6.03147475610625,336.654764447971
738297.54623982729390263557,-1.19398581906593,-6.03147475610625,336.654764447971
738297.54623991763219237328,-1.18167668691061,-6.03147475610625,336.63014618366
738297.54624000808689743280,-1.18167668691061,-6.04378388826156,336.60552791935
738297.54624009854160249233,-1.18167668691061,-6.05609302041688,336.60552791935
738297.54624018899630755186,-1.16936755475529,-6.0684021525722,336.593218787194
738297.54624027933459728956,-1.14474929044465,-6.05609302041688,336.568600522884
738297.54624036978930234909,-1.13244015828934,-6.01916562395093,336.593218787194
738297.54624046024400740862,-1.12013102613402,-5.99454735964029,336.580909655039
738297.54624055069871246815,-1.14474929044465,-6.01916562395093,336.507054862107
738297.54624064103700220585,-1.15705842259997,-6.04378388826156,336.60552791935
738297.54624073149170726538,-1.18167668691061,-6.05609302041688,336.617837051505
738297.54624082194641232491,-1.21860408337657,-6.05609302041688,336.617837051505
738297.54624091240111738443,-1.23091321553189,-6.0684021525722,336.617837051505
738297.54624100273940712214,-1.24322234768721,-6.08071128472752,336.63014618366
738297.54624109319411218166,-1.23091321553189,-6.0684021525722,336.568600522884
738297.54624118364881724119,-1.24322234768721,-6.08071128472752,336.507054862107
738297.54624127410352230072,-1.24322234768721,-6.09302041688284,336.543982258573
738297.54624136444181203842,-1.24322234768721,-6.09302041688284,336.556291390728
738297.54624145489651709795,-1.24322234768721,-6.08071128472752,336.556291390728
738297.54624154535122215748,-1.24322234768721,-6.0684021525722,336.593218787194
738297.54624163580592721701,-1.21860408337657,-6.0684021525722,336.667073580126
738297.54624172614421695471,-1.1078218939787,-5.89607430239774,336.765546637369
738297.54624181659892201424,-0.824711854406364,-5.25599943032116,336.679382712282
738297.54624190705362707376,-0.443128757591479,-4.43128757591479,336.531673126418
738297.54624199750833213329,-0.283110039572334,-4.38205104729352,336.174708293914
738297.54624208784662187099,-0.947803175959553,-5.05905331583605,336.310108747622
738297.54624217830132693052,-1.88329721976379,-6.57307657094027,336.297799615467
738297.54624226875603199005,-1.83406069114251,-6.67154962818283,336.322417879777
738297.54624235921073704958,-1.60018718019145,-6.40074872076581,336.433200069175
738297.54624244954902678728,-1.35400453708508,-6.17918434197007,336.543982258573
738297.54624254000373184681,-1.25553147984252,-6.09302041688284,336.63014618366
738297.54624263045843690634,-1.24322234768721,-6.0684021525722,336.617837051505
738297.54624272091314196587,-1.23091321553189,-6.0684021525722,336.60552791935
738297.54624281125143170357,-1.21860408337657,-6.05609302041688,336.654764447971
738297.54624290170613676310,-1.20629495122125,-6.04378388826156,336.667073580126
738297.54624299216084182262,-1.19398581906593,-6.03147475610625,336.60552791935
738297.54624308261554688215,-1.20629495122125,-6.04378388826156,336.667073580126
738297.54624317295383661985,-1.18167668691061,-6.00685649179561,336.667073580126
738297.54624326340854167938,-1.16936755475529,-6.00685649179561,336.642455315816
738297.54624335386324673891,-1.15705842259997,-5.98223822748497,336.642455315816
738297.54624344431795179844,-1.15705842259997,-5.98223822748497,336.716310108748
738297.54624353465624153614,-1.14474929044465,-5.94531083101901,336.728619240903
738297.54624362511094659567,-1.13244015828934,-5.93300169886369,336.679382712282
738297.54624371556565165520,-1.1078218939787,-5.92069256670838,336.740928373058
738297.54624380602035671473,-1.08320362966806,-5.89607430239774,336.753237505214
738297.54624389635864645243,-1.07089449751274,-5.8714560380871,336.765546637369
738297.54624398681335151196,-1.0462762332021,-5.84683777377646,336.802474033835
738297.54624407726805657148,-1.02165796889147,-5.83452864162114,336.81478316599
738297.54624416772276163101,-1.00934883673615,-5.83452864162114,336.81478316599
738297.54624425806105136871,-0.997039704580828,-5.83452864162114,336.777855769524
738297.54624434851575642824,-1.00934883673615,-5.84683777377646,336.802474033835
738297.54624443897046148777,-1.00934883673615,-5.8714560380871,336.777855769524
738297.54624452942516654730,-0.997039704580828,-5.8714560380871,336.728619240903
738297.54624461976345628500,-1.03396710104678,-5.90838343455306,336.740928373058
738297.54624471021816134453,-1.07089449751274,-5.92069256670838,336.716310108748
738297.54624480067286640406,-1.09551276182338,-5.95761996317433,336.691691844437
738297.54624489112757146358,-1.13244015828934,-6.00685649179561,336.667073580126
738297.54624498146586120129,-1.15705842259997,-6.01916562395093,336.617837051505
738297.54624507192056626081,-1.18167668691061,-6.03147475610625,336.654764447971
738297.54624516237527132034,-1.19398581906593,-6.03147475610625,336.654764447971
738297.54624525282997637987,-1.20629495122125,-6.0684021525722,336.642455315816
738297.54624534316826611757,-1.21860408337657,-6.0684021525722,336.482436597797
738297.54624543362297117710,-1.20629495122125,-6.05609302041688,336.507054862107
738297.54624552407767623663,-1.20629495122125,-6.0684021525722,336.617837051505
738297.54624561453238129616,-1.20629495122125,-6.08071128472752,336.60552791935
738297.54624570487067103386,-1.20629495122125,-6.0684021525722,336.470127465641
738297.54624579532537609339,-1.21860408337657,-6.09302041688284,336.507054862107
738297.54624588578008115292,-1.21860408337657,-6.08071128472752,336.543982258573
738297.54624597623478621244,-1.21860408337657,-6.08071128472752,336.543982258573
738297.54624606657307595015,-1.21860408337657,-6.08071128472752,336.494745729952
738297.54624615702778100967,-1.21860408337657,-6.0684021525722,336.556291390728
738297.54624624748248606920,-1.20629495122125,-6.0684021525722,336.568600522884
738297.54624633793719112873,-1.21860408337657,-6.08071128472752,336.60552791935
738297.54624642827548086643,-1.21860408337657,-6.09302041688284,336.457818333486
738297.54624651873018592596,-1.21860408337657,-6.05609302041688,336.60552791935
738297.54624660918489098549,-1.20629495122125,-6.0684021525722,336.60552791935
738297.54624669963959604502,-1.20629495122125,-6.05609302041688,336.60552791935
738297.54624678997788578272,-1.20629495122125,-6.0684021525722,336.519363994263
738297.54624688043259084225,-1.19398581906593,-6.05609302041688,336.617837051505
738297.54624697088729590178,-1.20629495122125,-6.0684021525722,336.617837051505
738297.54624706134200096130,-1.20629495122125,-6.05609302041688,336.568600522884
738297.54624715168029069901,-1.21860408337657,-6.0684021525722,336.617837051505
738297.54624724213499575853,-1.20629495122125,-6.0684021525722,336.60552791935
738297.54624733258970081806,-1.20629495122125,-6.08071128472752,336.593218787194
738297.54624742304440587759,-1.19398581906593,-6.0684021525722,336.531673126418
738297.54624751338269561529,-1.19398581906593,-6.09302041688284,336.593218787194
738297.54624760383740067482,-1.18167668691061,-6.0684021525722,336.593218787194
738297.54624769429210573435,-1.16936755475529,-6.09302041688284,336.531673126418
738297.54624778474681079388,-1.16936755475529,-6.08071128472752,336.556291390728
738297.54624787508510053158,-1.15705842259997,-6.0684021525722,336.568600522884
738297.54624796553980559111,-1.15705842259997,-6.04378388826156,336.580909655039
738297.54624805599451065063,-1.16936755475529,-6.0684021525722,336.519363994263
738297.54624814644921571016,-1.19398581906593,-6.09302041688284,336.568600522884
738297.54624823678750544786,-1.21860408337657,-6.10532954903816,336.593218787194
738297.54624832724221050739,-1.23091321553189,-6.10532954903816,336.60552791935
738297.54624841769691556692,-1.24322234768721,-6.10532954903816,336.593218787194
738297.54624850815162062645,-1.26784061199784,-6.11763868119348,336.617837051505
738297.54624859848991036415,-1.26784061199784,-6.11763868119348,336.63014618366
738297.54624868894461542368,-1.28014974415316,-6.1299478133488,336.580909655039
738297.54624877939932048321,-1.28014974415316,-6.11763868119348,336.63014618366
738297.54624886985402554274,-1.28014974415316,-6.1299478133488,336.543982258573
738297.54624896019231528044,-1.26784061199784,-6.11763868119348,336.494745729952
738297.54624905064702033997,-1.29245887630848,-6.11763868119348,336.63014618366
738297.54624914110172539949,-1.24322234768721,-6.11763868119348,336.704000976592
738297.54624923155643045902,-1.12013102613402,-5.85914690593178,336.81478316599
738297.54624932189472019672,-0.775475325785089,-5.10828984445733,336.740928373058
738297.54624941234942525625,-0.418510493280842,-4.43128757591479,336.543982258573
738297.54624950280413031578,-0.381583096814885,-4.60361542608926,336.137780897448
738297.54624959325883537531,-1.13244015828934,-5.42832728049562,336.260872219001
738297.54624968359712511301,-1.96946114485102,-6.79464094973601,336.23625395469
738297.54624977405183017254,-1.74789676605528,-6.58538570309559,336.408581804865
738297.54624986450653523207,-1.52633238725954,-6.36382132429985,336.507054862107
738297.54624995496124029160,-1.31707714061912,-6.15456607765943,336.568600522884
738297.54625004529953002930,-1.28014974415316,-6.1299478133488,336.568600522884
738297.54625013575423508883,-1.28014974415316,-6.1299478133488,336.556291390728
738297.54625022620894014835,-1.26784061199784,-6.11763868119348,336.642455315816
738297.54625031666364520788,-1.25553147984252,-6.10532954903816,336.580909655039
738297.54625040700193494558,-1.25553147984252,-6.10532954903816,336.580909655039
738297.54625049745664000511,-1.24322234768721,-6.09302041688284,336.654764447971
738297.54625058791134506464,-1.23091321553189,-6.08071128472752,336.642455315816
738297.54625067824963480234,-1.21860408337657,-6.0684021525722,336.63014618366
738297.54625076870433986187,-1.20629495122125,-6.05609302041688,336.568600522884
738297.54625085915904492140,-1.19398581906593,-6.04378388826156,336.60552791935
738297.54625094961374998093,-1.19398581906593,-6.03147475610625,336.531673126418
738297.54625103995203971863,-1.18167668691061,-6.01916562395093,336.60552791935
738297.54625113040674477816,-1.16936755475529,-6.00685649179561,336.63014618366
738297.54625122086144983768,-1.14474929044465,-5.98223822748497,336.667073580126
738297.54625131131615489721,-1.13244015828934,-5.96992909532965,336.667073580126
738297.54625140165444463491,-1.1078218939787,-5.95761996317433,336.716310108748
738297.54625149210914969444,-1.09551276182338,-5.92069256670838,336.716310108748
738297.54625158256385475397,-1.08320362966806,-5.92069256670838,336.691691844437
738297.54625167301855981350,-1.07089449751274,-5.92069256670838,336.765546637369
738297.54625176335684955120,-1.07089449751274,-5.92069256670838,336.753237505214
738297.54625185381155461073,-1.07089449751274,-5.94531083101901,336.704000976592
738297.54625194426625967026,-1.07089449751274,-5.94531083101901,336.716310108748
738297.54625203472096472979,-1.08320362966806,-5.95761996317433,336.716310108748
738297.54625212505925446749,-1.09551276182338,-5.96992909532965,336.691691844437
738297.54625221551395952702,-1.12013102613402,-5.99454735964029,336.63014618366
738297.54625230596866458654,-1.14474929044465,-6.01916562395093,336.654764447971
738297.54625239642336964607,-1.18167668691061,-6.05609302041688,336.568600522884
738297.54625248676165938377,-1.18167668691061,-6.05609302041688,336.457818333486
738297.54625257721636444330,-1.20629495122125,-6.08071128472752,336.60552791935
738297.54625266767106950283,-1.21860408337657,-6.09302041688284,336.60552791935
738297.54625275812577456236,-1.21860408337657,-6.08071128472752,336.568600522884
738297.54625284846406430006,-1.21860408337657,-6.08071128472752,336.63014618366
738297.54625293891876935959,-1.23091321553189,-6.10532954903816,336.617837051505
738297.54625302937347441912,-1.21860408337657,-6.09302041688284,336.617837051505
738297.54625311982817947865,-1.23091321553189,-6.10532954903816,336.543982258573
738297.54625321016646921635,-1.23091321553189,-6.10532954903816,336.63014618366
738297.54625330062117427588,-1.23091321553189,-6.10532954903816,336.617837051505
738297.54625339107587933540,-1.21860408337657,-6.09302041688284,336.593218787194
738297.54625348153058439493,-1.21860408337657,-6.09302041688284,336.63014618366
738297.54625357186887413263,-1.21860408337657,-6.09302041688284,336.593218787194
738297.54625366232357919216,-1.21860408337657,-6.10532954903816,336.556291390728
738297.54625375277828425169,-1.21860408337657,-6.10532954903816,336.543982258573
738297.54625384323298931122,-1.20629495122125,-6.08071128472752,336.556291390728
738297.54625393357127904892,-1.20629495122125,-6.09302041688284,336.568600522884
738297.54625402402598410845,-1.19398581906593,-6.08071128472752,336.568600522884
738297.54625411448068916798,-1.20629495122125,-6.09302041688284,336.593218787194
738297.54625420493539422750,-1.20629495122125,-6.08071128472752,336.642455315816
738297.54625429527368396521,-1.20629495122125,-6.08071128472752,336.642455315816
738297.54625438572838902473,-1.20629495122125,-6.08071128472752,336.556291390728
738297.54625447618309408426,-1.20629495122125,-6.08071128472752,336.519363994263
738297.54625456663779914379,-1.20629495122125,-6.08071128472752,336.617837051505
738297.54625465697608888149,-1.20629495122125,-6.0684021525722,336.617837051505
738297.54625474743079394102,-1.19398581906593,-6.08071128472752,336.556291390728
738297.54625483788549900055,-1.21860408337657,-6.10532954903816,336.617837051505
738297.54625492834020406008,-1.20629495122125,-6.08071128472752,336.63014618366
738297.54625501867849379778,-1.20629495122125,-6.09302041688284,336.617837051505
738297.54625510913319885731,-1.19398581906593,-6.10532954903816,336.593218787194
738297.54625519958790391684,-1.20629495122125,-6.10532954903816,336.543982258573
738297.54625529004260897636,-1.19398581906593,-6.10532954903816,336.531673126418
738297.54625538038089871407,-1.18167668691061,-6.09302041688284,336.543982258573
738297.54625547083560377359,-1.16936755475529,-6.11763868119348,336.593218787194
738297.54625556129030883312,-1.16936755475529,-6.10532954903816,336.60552791935
738297.54625565174501389265,-1.15705842259997,-6.10532954903816,336.457818333486
738297.54625574208330363035,-1.13244015828934,-6.05609302041688,336.531673126418
738297.54625583253800868988,-1.15705842259997,-6.08071128472752,336.556291390728
738297.54625592299271374941,-1.16936755475529,-6.08071128472752,336.482436597797
738297.54625601344741880894,-1.20629495122125,-6.10532954903816,336.433200069175
738297.54625610378570854664,-1.21860408337657,-6.10532954903816,336.531673126418
738297.54625619424041360617,-1.23091321553189,-6.11763868119348,336.667073580126
738297.54625628469511866570,-1.23091321553189,-6.10532954903816,336.580909655039
738297.54625637514982372522,-1.24322234768721,-6.11763868119348,336.60552791935
738297.54625646548811346292,-1.24322234768721,-6.11763868119348,336.617837051505
738297.54625655594281852245,-1.24322234768721,-6.11763868119348,336.531673126418
738297.54625664639752358198,-1.24322234768721,-6.11763868119348,336.63014618366
738297.54625673685222864151,-1.23091321553189,-6.10532954903816,336.63014618366
738297.54625682719051837921,-1.24322234768721,-6.09302041688284,336.642455315816
738297.54625691764522343874,-1.18167668691061,-6.04378388826156,336.765546637369
738297.54625700809992849827,-0.997039704580828,-5.68681905575732,336.81478316599
738297.54625709855463355780,-0.566220079144668,-4.86210720135095,336.704000976592
738297.54625718889292329550,-0.172327850174464,-4.24665059358501,336.408581804865
738297.54625727934762835503,-0.196946114485102,-4.49283323669139,336.063926104516
738297.54625736980233341455,-1.03396710104678,-5.50218207342753,336.162399161758
738297.54625746025703847408,-1.61249631234677,-6.31458479567858,336.199326558224
738297.54625755059532821178,-1.74789676605528,-6.68385876033815,336.322417879777
738297.54625764105003327131,-1.5017141229489,-6.38843958861049,336.470127465641
738297.54625773150473833084,-1.28014974415316,-6.15456607765943,336.568600522884
738297.54625782195944339037,-1.20629495122125,-6.08071128472752,336.593218787194
738297.54625791229773312807,-1.20629495122125,-6.08071128472752,336.654764447971
738297.54625800275243818760,-1.19398581906593,-6.0684021525722,336.642455315816
738297.54625809320714324713,-1.18167668691061,-6.0684021525722,336.580909655039
738297.54625818366184830666,-1.18167668691061,-6.05609302041688,336.580909655039
738297.54625827400013804436,-1.16936755475529,-6.04378388826156,336.63014618366
738297.54625836445484310389,-1.15705842259997,-6.04378388826156,336.593218787194
738297.54625845490954816341,-1.14474929044465,-6.01916562395093,336.60552791935
738297.54625854536425322294,-1.14474929044465,-6.01916562395093,336.679382712282
738297.54625863570254296064,-1.13244015828934,-6.00685649179561,336.617837051505
738297.54625872615724802017,-1.12013102613402,-5.99454735964029,336.593218787194
738297.54625881661195307970,-1.1078218939787,-5.98223822748497,336.60552791935
738297.54625890706665813923,-1.09551276182338,-5.96992909532965,336.654764447971
738297.54625899740494787693,-1.07089449751274,-5.93300169886369,336.642455315816
738297.54625908785965293646,-1.05858536535742,-5.93300169886369,336.691691844437
738297.54625917831435799599,-1.03396710104678,-5.90838343455306,336.679382712282
738297.54625926876906305552,-1.02165796889147,-5.90838343455306,336.642455315816
738297.54625935910735279322,-1.00934883673615,-5.89607430239774,336.716310108748
738297.54625944956205785275,-0.997039704580828,-5.88376517024242,336.716310108748
738297.54625954001676291227,-0.997039704580828,-5.89607430239774,336.519363994263
738297.54625963047146797180,-0.997039704580828,-5.89607430239774,336.654764447971
738297.54625972080975770950,-0.997039704580828,-5.90838343455306,336.765546637369
738297.54625981126446276903,-1.00934883673615,-5.93300169886369,336.777855769524
738297.54625990171916782856,-1.02165796889147,-5.94531083101901,336.728619240903
738297.54625999217387288809,-1.05858536535742,-5.96992909532965,336.704000976592
738297.54626008251216262579,-1.08320362966806,-5.98223822748497,336.63014618366
738297.54626017296686768532,-1.09551276182338,-5.98223822748497,336.617837051505
738297.54626026342157274485,-1.1078218939787,-6.01916562395093,336.642455315816
738297.54626035387627780437,-1.13244015828934,-6.03147475610625,336.691691844437
738297.54626044421456754208,-1.14474929044465,-6.05609302041688,336.568600522884
738297.54626053466927260160,-1.14474929044465,-6.04378388826156,336.617837051505
738297.54626062512397766113,-1.15705842259997,-6.05609302041688,336.654764447971
738297.54626071557868272066,-1.14474929044465,-6.05609302041688,336.63014618366
738297.54626080591697245836,-1.15705842259997,-6.05609302041688,336.642455315816
738297.54626089637167751789,-1.14474929044465,-6.03147475610625,336.691691844437
738297.54626098682638257742,-1.14474929044465,-6.03147475610625,336.704000976592
738297.54626107728108763695,-1.14474929044465,-6.04378388826156,336.60552791935
738297.54626116761937737465,-1.14474929044465,-6.04378388826156,336.63014618366
738297.54626125807408243418,-1.14474929044465,-6.03147475610625,336.63014618366
738297.54626134852878749371,-1.13244015828934,-6.01916562395093,336.617837051505
738297.54626143898349255323,-1.13244015828934,-6.04378388826156,336.60552791935
738297.54626152932178229094,-1.14474929044465,-6.01916562395093,336.617837051505
738297.54626161977648735046,-1.13244015828934,-6.03147475610625,336.617837051505
738297.54626171023119240999,-1.12013102613402,-6.01916562395093,336.593218787194
738297.54626180056948214769,-1.12013102613402,-6.01916562395093,336.63014618366
738297.54626189102418720722,-1.1078218939787,-6.01916562395093,336.63014618366
738297.54626198147889226675,-1.12013102613402,-6.01916562395093,336.593218787194
738297.54626207193359732628,-1.12013102613402,-6.01916562395093,336.60552791935
738297.54626216227188706398,-1.12013102613402,-6.01916562395093,336.617837051505
738297.54626225272659212351,-1.1078218939787,-6.00685649179561,336.568600522884
738297.54626234318129718304,-1.12013102613402,-6.03147475610625,336.593218787194
738297.54626243363600224257,-1.12013102613402,-6.03147475610625,336.568600522884
738297.54626252397429198027,-1.12013102613402,-6.01916562395093,336.593218787194
738297.54626261442899703979,-1.12013102613402,-6.01916562395093,336.568600522884
738297.54626270488370209932,-1.13244015828934,-6.03147475610625,336.568600522884
738297.54626279533840715885,-1.12013102613402,-6.03147475610625,336.519363994263
738297.54626288567669689655,-1.12013102613402,-6.01916562395093,336.507054862107
738297.54626297613140195608,-1.13244015828934,-6.03147475610625,336.494745729952
738297.54626306658610701561,-1.13244015828934,-6.03147475610625,336.310108747622
738297.54626315704081207514,-1.14474929044465,-6.05609302041688,336.482436597797
738297.54626324737910181284,-1.13244015828934,-6.03147475610625,336.580909655039
738297.54626333783380687237,-1.14474929044465,-6.04378388826156,336.556291390728
738297.54626342828851193190,-1.13244015828934,-6.04378388826156,336.593218787194
738297.54626351874321699142,-1.12013102613402,-6.05609302041688,336.568600522884
738297.54626360908150672913,-1.1078218939787,-6.04378388826156,336.593218787194
738297.54626369953621178865,-1.1078218939787,-6.05609302041688,336.531673126418
738297.54626378999091684818,-1.12013102613402,-6.08071128472752,336.494745729952
738297.54626388044562190771,-1.07089449751274,-6.05609302041688,336.482436597797
738297.54626397078391164541,-1.05858536535742,-6.05609302041688,336.494745729952
738297.54626406123861670494,-1.05858536535742,-6.03147475610625,336.457818333486
738297.54626415169332176447,-1.0462762332021,-5.99454735964029,336.482436597797
738297.54626424214802682400,-1.05858536535742,-6.00685649179561,336.556291390728
738297.54626433248631656170,-1.08320362966806,-6.04378388826156,336.507054862107
738297.54626442294102162123,-1.12013102613402,-6.04378388826156,336.543982258573
738297.54626451339572668076,-1.14474929044465,-6.0684021525722,336.593218787194
738297.54626460385043174028,-1.14474929044465,-6.05609302041688,336.580909655039
738297.54626469418872147799,-1.14474929044465,-6.0684021525722,336.60552791935
738297.54626478464342653751,-1.14474929044465,-6.05609302041688,336.63014618366
738297.54626487509813159704,-1.15705842259997,-6.0684021525722,336.593218787194
738297.54626496555283665657,-1.14474929044465,-6.05609302041688,336.60552791935
738297.54626505589112639427,-1.16936755475529,-6.0684021525722,336.63014618366
738297.54626514634583145380,-1.14474929044465,-6.05609302041688,336.642455315816
738297.54626523680053651333,-1.14474929044465,-6.03147475610625,336.593218787194
738297.54626532725524157286,-1.1078218939787,-6.01916562395093,336.740928373058
738297.54626541759353131056,-0.960112308114872,-5.74836471653391,336.802474033835
738297.54626550804823637009,-0.603147475610625,-5.00981678721478,336.704000976592
738297.54626559850294142962,-0.22156437879574,-4.27126885789565,336.568600522884
738297.54626568895764648914,-0.0861639250872321,-4.3081962543616,336.150090029603
738297.54626577929593622684,-0.800093590095726,-5.08367158014669,336.162399161758
738297.54626586975064128637,-1.79713329467655,-6.64693136387219,336.248563086845
738297.54626596020534634590,-1.66173284096805,-6.57307657094027,336.396272672709
738297.54626605066005140543,-1.42785933001699,-6.3268939278339,336.494745729952
738297.54626614099834114313,-1.20629495122125,-6.10532954903816,336.556291390728
738297.54626623145304620266,-1.15705842259997,-6.05609302041688,336.642455315816
738297.54626632190775126219,-1.14474929044465,-6.04378388826156,336.642455315816
738297.54626641236245632172,-1.13244015828934,-6.03147475610625,336.568600522884
738297.54626650270074605942,-1.13244015828934,-6.03147475610625,336.383963540554
738297.54626659315545111895,-1.12013102613402,-6.01916562395093,336.445509201331
738297.54626668361015617847,-1.1078218939787,-6.01916562395093,336.531673126418
738297.54626677406486123800,-1.1078218939787,-6.00685649179561,336.543982258573
738297.54626686440315097570,-1.08320362966806,-5.98223822748497,336.543982258573
738297.54626695485785603523,-1.08320362966806,-5.96992909532965,336.568600522884
738297.54626704531256109476,-1.08320362966806,-5.96992909532965,336.568600522884
738297.54626713576726615429,-1.05858536535742,-5.96992909532965,336.642455315816
738297.54626722610555589199,-1.0462762332021,-5.93300169886369,336.728619240903
738297.54626731656026095152,-1.02165796889147,-5.89607430239774,336.679382712282
738297.54626740701496601105,-1.02165796889147,-5.89607430239774,336.667073580126
738297.54626749746967107058,-0.997039704580828,-5.8714560380871,336.679382712282
738297.54626758780796080828,-0.984730572425509,-5.84683777377646,336.679382712282
738297.54626767826266586781,-0.972421440270191,-5.83452864162114,336.667073580126
738297.54626776871737092733,-0.960112308114872,-5.82221950946582,336.728619240903
738297.54626785917207598686,-0.935494043804234,-5.80991037731051,336.728619240903
738297.54626794951036572456,-0.923184911648915,-5.82221950946582,336.691691844437
738297.54626803996507078409,-0.923184911648915,-5.80991037731051,336.654764447971
738297.54626813041977584362,-0.935494043804234,-5.83452864162114,336.704000976592
738297.54626822087448090315,-0.947803175959553,-5.8714560380871,336.728619240903
738297.54626831121277064085,-0.947803175959553,-5.85914690593178,336.63014618366
738297.54626840166747570038,-0.984730572425509,-5.88376517024242,336.593218787194
738297.54626849212218075991,-1.02165796889147,-5.90838343455306,336.63014618366
738297.54626858257688581944,-1.03396710104678,-5.93300169886369,336.543982258573
738297.54626867291517555714,-1.0462762332021,-5.95761996317433,336.556291390728
738297.54626876336988061666,-1.0462762332021,-5.96992909532965,336.543982258573
738297.54626885382458567619,-1.05858536535742,-5.95761996317433,336.556291390728
738297.54626894427929073572,-1.09551276182338,-5.98223822748497,336.543982258573
738297.54626903461758047342,-1.08320362966806,-5.98223822748497,336.60552791935
738297.54626912507228553295,-1.09551276182338,-5.98223822748497,336.617837051505
738297.54626921552699059248,-1.09551276182338,-5.98223822748497,336.60552791935
738297.54626930598169565201,-1.08320362966806,-5.98223822748497,336.556291390728
738297.54626939631998538971,-1.09551276182338,-5.98223822748497,336.580909655039
738297.54626948677469044924,-1.08320362966806,-5.99454735964029,336.642455315816
738297.54626957722939550877,-1.08320362966806,-5.96992909532965,336.556291390728
738297.54626966768410056829,-1.08320362966806,-5.96992909532965,336.60552791935
738297.54626975802239030600,-1.08320362966806,-5.96992909532965,336.617837051505
738297.54626984847709536552,-1.07089449751274,-5.95761996317433,336.593218787194
738297.54626993893180042505,-1.05858536535742,-5.96992909532965,336.568600522884
738297.54627002938650548458,-1.08320362966806,-5.98223822748497,336.396272672709
738297.54627011972479522228,-1.05858536535742,-5.95761996317433,336.519363994263
738297.54627021017950028181,-1.05858536535742,-5.94531083101901,336.543982258573
738297.54627030063420534134,-1.05858536535742,-5.94531083101901,336.63014618366
738297.54627039108891040087,-1.05858536535742,-5.94531083101901,336.593218787194
738297.54627048142720013857,-1.05858536535742,-5.94531083101901,336.593218787194
738297.54627057188190519810,-1.05858536535742,-5.93300169886369,336.470127465641
738297.54627066233661025763,-1.0462762332021,-5.95761996317433,336.580909655039
738297.54627075279131531715,-1.05858536535742,-5.93300169886369,336.60552791935
738297.54627084312960505486,-1.05858536535742,-5.95761996317433,336.593218787194
738297.54627093358431011438,-1.05858536535742,-5.94531083101901,336.63014618366
738297.54627102403901517391,-1.07089449751274,-5.94531083101901,336.593218787194
738297.54627111449372023344,-1.07089449751274,-5.93300169886369,336.531673126418
738297.54627120483200997114,-1.05858536535742,-5.94531083101901,336.494745729952
738297.54627129528671503067,-1.07089449751274,-5.95761996317433,336.519363994263
738297.54627138574142009020,-1.05858536535742,-5.94531083101901,336.507054862107
738297.54627147619612514973,-1.05858536535742,-5.95761996317433,336.433200069175
738297.54627156653441488743,-1.05858536535742,-5.95761996317433,336.494745729952
738297.54627165698911994696,-1.05858536535742,-5.93300169886369,336.507054862107
738297.54627174744382500648,-1.05858536535742,-5.93300169886369,336.556291390728
738297.54627183789853006601,-1.07089449751274,-5.98223822748497,336.519363994263
738297.54627192823681980371,-1.05858536535742,-5.93300169886369,336.519363994263
738297.54627201869152486324,-1.08320362966806,-5.96992909532965,336.494745729952
738297.54627210914622992277,-1.07089449751274,-5.95761996317433,336.531673126418
738297.54627219960093498230,-1.07089449751274,-5.96992909532965,336.482436597797
738297.54627228993922472000,-1.08320362966806,-5.96992909532965,336.519363994263
738297.54627238039392977953,-1.05858536535742,-5.94531083101901,336.580909655039
738297.54627247084863483906,-1.07089449751274,-5.95761996317433,336.531673126418
738297.54627256130333989859,-1.05858536535742,-5.95761996317433,336.519363994263
738297.54627265164162963629,-1.05858536535742,-5.98223822748497,336.470127465641
738297.54627274209633469582,-1.05858536535742,-5.98223822748497,336.543982258573
738297.54627283255103975534,-1.03396710104678,-5.96992909532965,336.457818333486
738297.54627292300574481487,-1.00934883673615,-5.96992909532965,336.433200069175
738297.54627301334403455257,-1.00934883673615,-5.95761996317433,336.371654408399
738297.54627310379873961210,-0.972421440270191,-5.92069256670838,336.507054862107
738297.54627319425344467163,-0.984730572425509,-5.90838343455306,336.568600522884
738297.54627328459173440933,-1.03396710104678,-5.96992909532965,336.543982258573
738297.54627337504643946886,-1.05858536535742,-5.96992909532965,336.531673126418
738297.54627346550114452839,-1.05858536535742,-5.93300169886369,336.60552791935
738297.54627355595584958792,-1.08320362966806,-5.95761996317433,336.445509201331
738297.54627364629413932562,-1.09551276182338,-5.98223822748497,336.445509201331
738297.54627373674884438515,-1.08320362966806,-5.96992909532965,336.593218787194
738297.54627382720354944468,-1.08320362966806,-5.95761996317433,336.60552791935
738297.54627391765825450420,-1.08320362966806,-5.95761996317433,336.580909655039
738297.54627400799654424191,-1.08320362966806,-5.96992909532965,336.617837051505
738297.54627409845124930143,-1.08320362966806,-5.95761996317433,336.617837051505
738297.54627418890595436096,-1.1078218939787,-5.95761996317433,336.654764447971
738297.54627427936065942049,-1.07089449751274,-5.93300169886369,336.654764447971
738297.54627436969894915819,-0.923184911648915,-5.76067384868923,336.79016490168
738297.54627446015365421772,-0.664693136387219,-5.16983550523392,336.827092298145
738297.54627455060835927725,-0.270800907417015,-4.35743278298288,336.63014618366
738297.54627464106306433678,-0.0246182643106377,-4.24665059358501,336.248563086845
738297.54627473140135407448,-0.640074872076581,-4.93596199428287,336.273181351156
738297.54627482185605913401,-1.61249631234677,-6.31458479567858,336.273181351156
738297.54627491231076419353,-1.698660237434,-6.57307657094027,336.347036144088
738297.54627500276546925306,-1.45247759432763,-6.30227566352326,336.445509201331
738297.54627509310375899076,-1.25553147984252,-6.11763868119348,336.507054862107
738297.54627518355846405029,-1.12013102613402,-5.96992909532965,336.531673126418
738297.54627527401316910982,-1.05858536535742,-5.92069256670838,336.519363994263
738297.54627536446787416935,-1.05858536535742,-5.93300169886369,336.519363994263
738297.54627545480616390705,-1.0462762332021,-5.90838343455306,336.494745729952
738297.54627554526086896658,-1.0462762332021,-5.90838343455306,336.531673126418
738297.54627563571557402611,-1.02165796889147,-5.89607430239774,336.556291390728
738297.54627572617027908564,-1.00934883673615,-5.88376517024242,336.543982258573
738297.54627581650856882334,-1.00934883673615,-5.8714560380871,336.63014618366
738297.54627590696327388287,-1.00934883673615,-5.84683777377646,336.593218787194
738297.54627599741797894239,-0.997039704580828,-5.84683777377646,336.531673126418
738297.54627608787268400192,-0.997039704580828,-5.84683777377646,336.654764447971
738297.54627617821097373962,-0.972421440270191,-5.80991037731051,336.654764447971
738297.54627626866567879915,-0.960112308114872,-5.78529211299987,336.642455315816
738297.54627635912038385868,-0.947803175959553,-5.77298298084455,336.679382712282
738297.54627644957508891821,-0.923184911648915,-5.77298298084455,336.691691844437
738297.54627653991337865591,-0.898566647338277,-5.73605558437859,336.716310108748
738297.54627663036808371544,-0.886257515182958,-5.71143732006795,336.691691844437
738297.54627672082278877497,-0.861639250872321,-5.68681905575732,336.728619240903
738297.54627681127749383450,-0.861639250872321,-5.674509923602,336.691691844437
738297.54627690161578357220,-0.849330118717002,-5.68681905575732,336.740928373058
738297.54627699207048863173,-0.837020986561683,-5.68681905575732,336.740928373058
738297.54627708252519369125,-0.849330118717002,-5.69912818791264,336.556291390728
738297.54627717297989875078,-0.849330118717002,-5.72374645222327,336.507054862107
738297.54627726331818848848,-0.87394838302764,-5.74836471653391,336.654764447971
738297.54627735377289354801,-0.886257515182958,-5.76067384868923,336.642455315816
738297.54627744422759860754,-0.910875779493596,-5.79760124515519,336.63014618366
738297.54627753468230366707,-0.935494043804234,-5.82221950946582,336.568600522884
738297.54627762502059340477,-0.960112308114872,-5.84683777377646,336.593218787194
738297.54627771547529846430,-0.984730572425509,-5.85914690593178,336.60552791935
738297.54627780593000352383,-0.997039704580828,-5.88376517024242,336.568600522884
738297.54627789638470858335,-1.00934883673615,-5.89607430239774,336.593218787194
738297.54627798672299832106,-1.00934883673615,-5.89607430239774,336.593218787194
738297.54627807717770338058,-1.00934883673615,-5.89607430239774,336.580909655039
738297.54627816763240844011,-1.00934883673615,-5.89607430239774,336.580909655039
738297.54627825808711349964,-1.00934883673615,-5.89607430239774,336.580909655039
738297.54627834842540323734,-1.00934883673615,-5.90838343455306,336.580909655039
738297.54627843888010829687,-1.00934883673615,-5.92069256670838,336.556291390728
738297.54627852933481335640,-0.997039704580828,-5.89607430239774,336.593218787194
738297.54627861978951841593,-1.00934883673615,-5.90838343455306,336.593218787194
738297.54627871012780815363,-0.997039704580828,-5.89607430239774,336.543982258573
738297.54627880058251321316,-1.00934883673615,-5.90838343455306,336.568600522884
738297.54627889103721827269,-1.00934883673615,-5.90838343455306,336.580909655039
738297.54627898149192333221,-0.997039704580828,-5.88376517024242,336.543982258573
738297.54627907183021306992,-0.997039704580828,-5.88376517024242,336.580909655039
738297.54627916228491812944,-0.997039704580828,-5.88376517024242,336.580909655039
738297.54627925273962318897,-0.997039704580828,-5.88376517024242,336.531673126418
738297.54627934319432824850,-0.984730572425509,-5.8714560380871,336.580909655039
738297.54627943353261798620,-0.997039704580828,-5.8714560380871,336.580909655039
738297.54627952398732304573,-0.984730572425509,-5.88376517024242,336.568600522884
738297.54627961444202810526,-0.984730572425509,-5.8714560380871,336.494745729952
738297.54627970489673316479,-0.984730572425509,-5.8714560380871,336.568600522884
738297.54627979523502290249,-0.972421440270191,-5.85914690593178,336.568600522884
738297.54627988568972796202,-0.984730572425509,-5.85914690593178,336.556291390728
738297.54627997614443302155,-0.997039704580828,-5.8714560380871,336.568600522884
738297.54628006659913808107,-0.984730572425509,-5.8714560380871,336.568600522884
738297.54628015693742781878,-1.00934883673615,-5.88376517024242,336.580909655039
738297.54628024739213287830,-0.997039704580828,-5.88376517024242,336.507054862107
738297.54628033784683793783,-0.997039704580828,-5.8714560380871,336.568600522884
738297.54628042830154299736,-0.984730572425509,-5.8714560380871,336.568600522884
738297.54628051863983273506,-1.00934883673615,-5.90838343455306,336.482436597797
738297.54628060909453779459,-0.997039704580828,-5.88376517024242,336.371654408399
738297.54628069954924285412,-1.00934883673615,-5.89607430239774,336.359345276243
738297.54628079000394791365,-0.997039704580828,-5.89607430239774,336.433200069175
738297.54628088034223765135,-1.00934883673615,-5.88376517024242,336.507054862107
738297.54628097079694271088,-1.00934883673615,-5.88376517024242,336.507054862107
738297.54628106125164777040,-1.00934883673615,-5.88376517024242,336.457818333486
738297.54628115170635282993,-0.984730572425509,-5.89607430239774,336.494745729952
738297.54628124204464256763,-0.984730572425509,-5.88376517024242,336.556291390728
738297.54628133249934762716,-0.984730572425509,-5.88376517024242,336.519363994263
738297.54628142295405268669,-0.972421440270191,-5.89607430239774,336.457818333486
738297.54628151340875774622,-0.960112308114872,-5.89607430239774,336.519363994263
738297.54628160374704748392,-0.960112308114872,-5.89607430239774,336.494745729952
738297.54628169420175254345,-0.935494043804234,-5.88376517024242,336.433200069175
738297.54628178465645760298,-0.910875779493596,-5.83452864162114,336.494745729952
738297.54628187511116266251,-0.935494043804234,-5.8714560380871,336.531673126418
738297.54628196544945240021,-0.947803175959553,-5.88376517024242,336.543982258573
738297.54628205590415745974,-0.984730572425509,-5.89607430239774,336.482436597797
738297.54628214635886251926,-1.00934883673615,-5.88376517024242,336.580909655039
738297.54628223681356757879,-1.03396710104678,-5.90838343455306,336.580909655039
738297.54628232715185731649,-1.0462762332021,-5.92069256670838,336.494745729952
738297.54628241760656237602,-1.03396710104678,-5.90838343455306,336.568600522884
738297.54628250806126743555,-1.02165796889147,-5.89607430239774,336.580909655039
738297.54628259851597249508,-1.03396710104678,-5.90838343455306,336.568600522884
738297.54628268885426223278,-1.03396710104678,-5.90838343455306,336.543982258573
738297.54628277930896729231,-1.03396710104678,-5.89607430239774,336.593218787194
738297.54628286976367235184,-1.0462762332021,-5.88376517024242,336.642455315816
738297.54628296021837741137,-0.947803175959553,-5.80991037731051,336.593218787194
738297.54628305055666714907,-0.750857061474451,-5.4160181483403,336.79016490168
738297.54628314101137220860,-0.381583096814885,-4.62823369039989,336.728619240903
738297.54628323146607726812,-0.0369273964659566,-4.1112501398765,336.383963540554
738297.54628332192078232765,0.0246182643106377,-4.25895972574033,336.174708293914
738297.54628341225907206535,-0.664693136387219,-4.9605802585935,336.23625395469
738297.54628350271377712488,-1.61249631234677,-6.31458479567858,336.310108747622
738297.54628359316848218441,-1.62480544450209,-6.51153091016368,336.310108747622
738297.54628368362318724394,-1.39093193355103,-6.22842087059135,336.457818333486
738297.54628377396147698164,-1.16936755475529,-6.03147475610625,336.531673126418
738297.54628386441618204117,-1.05858536535742,-5.90838343455306,336.445509201331
738297.54628395487088710070,-1.0462762332021,-5.90838343455306,336.580909655039
738297.54628404532559216022,-1.00934883673615,-5.8714560380871,336.60552791935
738297.54628413566388189793,-1.00934883673615,-5.85914690593178,336.470127465641
738297.54628422611858695745,-0.997039704580828,-5.85914690593178,336.494745729952
738297.54628431657329201698,-0.984730572425509,-5.84683777377646,336.60552791935
738297.54628440691158175468,-0.997039704580828,-5.84683777377646,336.580909655039
738297.54628449736628681421,-0.960112308114872,-5.80991037731051,336.580909655039
738297.54628458782099187374,-0.972421440270191,-5.82221950946582,336.556291390728
738297.54628467827569693327,-0.947803175959553,-5.79760124515519,336.580909655039
738297.54628476861398667097,-0.947803175959553,-5.78529211299987,336.580909655039
738297.54628485906869173050,-0.923184911648915,-5.77298298084455,336.580909655039
738297.54628494952339679003,-0.898566647338277,-5.73605558437859,336.617837051505
738297.54628503997810184956,-0.898566647338277,-5.73605558437859,336.642455315816
738297.54628513031639158726,-0.87394838302764,-5.72374645222327,336.679382712282
738297.54628522077109664679,-0.861639250872321,-5.69912818791264,336.642455315816
738297.54628531122580170631,-0.849330118717002,-5.66220079144668,336.679382712282
738297.54628540168050676584,-0.824711854406364,-5.64989165929136,336.667073580126
738297.54628549201879650354,-0.812402722251045,-5.64989165929136,336.691691844437
738297.54628558247350156307,-0.812402722251045,-5.64989165929136,336.728619240903
738297.54628567292820662260,-0.800093590095726,-5.66220079144668,336.691691844437
738297.54628576338291168213,-0.812402722251045,-5.68681905575732,336.642455315816
738297.54628585372120141983,-0.800093590095726,-5.68681905575732,336.704000976592
738297.54628594417590647936,-0.837020986561683,-5.72374645222327,336.580909655039
738297.54628603463061153889,-0.87394838302764,-5.74836471653391,336.60552791935
738297.54628612508531659842,-0.886257515182958,-5.76067384868923,336.654764447971
738297.54628621542360633612,-0.923184911648915,-5.79760124515519,336.654764447971
738297.54628630587831139565,-0.935494043804234,-5.82221950946582,336.556291390728
738297.54628639633301645517,-0.960112308114872,-5.83452864162114,336.593218787194
738297.54628648678772151470,-0.947803175959553,-5.83452864162114,336.580909655039
738297.54628657712601125240,-0.972421440270191,-5.85914690593178,336.556291390728
738297.54628666758071631193,-0.984730572425509,-5.85914690593178,336.580909655039
738297.54628675803542137146,-0.984730572425509,-5.85914690593178,336.556291390728
738297.54628684849012643099,-0.972421440270191,-5.85914690593178,336.556291390728
738297.54628693882841616869,-0.972421440270191,-5.84683777377646,336.531673126418
738297.54628702928312122822,-0.972421440270191,-5.85914690593178,336.568600522884
738297.54628711973782628775,-0.984730572425509,-5.85914690593178,336.556291390728
738297.54628721019253134727,-0.972421440270191,-5.85914690593178,336.568600522884
738297.54628730053082108498,-0.984730572425509,-5.8714560380871,336.568600522884
738297.54628739098552614450,-0.972421440270191,-5.84683777377646,336.580909655039
738297.54628748144023120403,-0.972421440270191,-5.8714560380871,336.568600522884
738297.54628757189493626356,-0.972421440270191,-5.85914690593178,336.482436597797
738297.54628766223322600126,-0.972421440270191,-5.85914690593178,336.408581804865
738297.54628775268793106079,-0.960112308114872,-5.84683777377646,336.383963540554
738297.54628784314263612032,-0.960112308114872,-5.85914690593178,336.445509201331
738297.54628793359734117985,-0.960112308114872,-5.83452864162114,336.470127465641
738297.54628802393563091755,-0.960112308114872,-5.84683777377646,336.457818333486
738297.54628811439033597708,-0.947803175959553,-5.83452864162114,336.482436597797
738297.54628820484504103661,-0.960112308114872,-5.83452864162114,336.531673126418
738297.54628829529974609613,-0.960112308114872,-5.83452864162114,336.507054862107
738297.54628838563803583384,-0.947803175959553,-5.82221950946582,336.519363994263
738297.54628847609274089336,-0.947803175959553,-5.82221950946582,336.543982258573
738297.54628856654744595289,-0.947803175959553,-5.82221950946582,336.568600522884
738297.54628865700215101242,-0.960112308114872,-5.83452864162114,336.457818333486
738297.54628874734044075012,-0.947803175959553,-5.82221950946582,336.519363994263
738297.54628883779514580965,-0.960112308114872,-5.83452864162114,336.531673126418
738297.54628892824985086918,-0.960112308114872,-5.83452864162114,336.531673126418
738297.54628901870455592871,-0.972421440270191,-5.84683777377646,336.494745729952
738297.54628910904284566641,-0.960112308114872,-5.84683777377646,336.543982258573
738297.54628919949755072594,-0.972421440270191,-5.84683777377646,336.519363994263
738297.54628928995225578547,-0.947803175959553,-5.84683777377646,336.556291390728
738297.54628938040696084499,-0.972421440270191,-5.84683777377646,336.60552791935
738297.54628947074525058270,-0.997039704580828,-5.8714560380871,336.60552791935
738297.54628956119995564222,-0.984730572425509,-5.85914690593178,336.531673126418
738297.54628965165466070175,-0.984730572425509,-5.84683777377646,336.531673126418
738297.54628974210936576128,-0.972421440270191,-5.85914690593178,336.507054862107
738297.54628983244765549898,-0.960112308114872,-5.85914690593178,336.457818333486
738297.54628992290236055851,-0.972421440270191,-5.8714560380871,336.543982258573
738297.54629001335706561804,-0.960112308114872,-5.85914690593178,336.457818333486
738297.54629010381177067757,-0.947803175959553,-5.8714560380871,336.543982258573
738297.54629019415006041527,-0.947803175959553,-5.88376517024242,336.433200069175
738297.54629028460476547480,-0.910875779493596,-5.85914690593178,336.42089093702
738297.54629037505947053432,-0.898566647338277,-5.83452864162114,336.507054862107
738297.54629046551417559385,-0.910875779493596,-5.82221950946582,336.531673126418
738297.54629055585246533155,-0.923184911648915,-5.84683777377646,336.568600522884
738297.54629064630717039108,-0.947803175959553,-5.8714560380871,336.507054862107
738297.54629073676187545061,-0.960112308114872,-5.8714560380871,336.543982258573
738297.54629082721658051014,-0.972421440270191,-5.85914690593178,336.580909655039
738297.54629091755487024784,-0.984730572425509,-5.8714560380871,336.507054862107
738297.54629100800957530737,-0.997039704580828,-5.8714560380871,336.593218787194
738297.54629109846428036690,-1.00934883673615,-5.8714560380871,336.617837051505
738297.54629118891898542643,-1.00934883673615,-5.88376517024242,336.543982258573
738297.54629127925727516413,-1.00934883673615,-5.8714560380871,336.433200069175
738297.54629136971198022366,-1.00934883673615,-5.8714560380871,336.60552791935
738297.54629146016668528318,-0.997039704580828,-5.8714560380871,336.617837051505
738297.54629155062139034271,-1.02165796889147,-5.85914690593178,336.60552791935
738297.54629164095968008041,-0.923184911648915,-5.79760124515519,336.716310108748
738297.54629173141438513994,-0.750857061474451,-5.4775638091169,336.617837051505
738297.54629182186909019947,-0.393892228970204,-4.73901587979776,336.63014618366
738297.54629191232379525900,-0.0492365286212755,-4.12355927203182,336.42089093702
738297.54629200266208499670,-0.0369273964659566,-4.34512365082756,336.039307840205
738297.54629209311679005623,-0.837020986561683,-5.2190720338552,336.21163569038
738297.54629218357149511576,-1.698660237434,-6.53614917447432,336.23625395469
738297.54629227402620017529,-1.47709585863826,-6.35151219214454,336.322417879777
738297.54629236436448991299,-1.24322234768721,-6.08071128472752,336.371654408399
738297.54629245481919497252,-1.05858536535742,-5.92069256670838,336.543982258573
738297.54629254527390003204,-1.02165796889147,-5.88376517024242,336.531673126418
738297.54629263572860509157,-0.997039704580828,-5.84683777377646,336.531673126418
738297.54629272606689482927,-0.972421440270191,-5.84683777377646,336.543982258573
738297.54629281652159988880,-0.972421440270191,-5.84683777377646,336.568600522884
738297.54629290697630494833,-0.960112308114872,-5.83452864162114,336.543982258573
738297.54629299743101000786,-0.960112308114872,-5.82221950946582,336.568600522884
738297.54629308776929974556,-0.947803175959553,-5.80991037731051,336.593218787194
738297.54629317822400480509,-0.947803175959553,-5.79760124515519,336.556291390728
738297.54629326867870986462,-0.923184911648915,-5.78529211299987,336.654764447971
738297.54629335913341492414,-0.923184911648915,-5.78529211299987,336.642455315816
738297.54629344947170466185,-0.910875779493596,-5.77298298084455,336.580909655039
738297.54629353992640972137,-0.898566647338277,-5.74836471653391,336.642455315816
738297.54629363038111478090,-0.886257515182958,-5.74836471653391,336.667073580126
738297.54629372083581984043,-0.87394838302764,-5.72374645222327,336.667073580126
738297.54629381117410957813,-0.861639250872321,-5.72374645222327,336.667073580126
738297.54629390162881463766,-0.837020986561683,-5.68681905575732,336.716310108748
738297.54629399208351969719,-0.800093590095726,-5.66220079144668,336.716310108748
738297.54629408253822475672,-0.800093590095726,-5.66220079144668,336.654764447971
738297.54629417287651449442,-0.76316619362977,-5.63758252713604,336.63014618366
738297.54629426333121955395,-0.738547929319132,-5.62527339498072,336.667073580126
738297.54629435378592461348,-0.627765739921262,-5.52680033773817,336.667073580126
738297.54629444424062967300,-0.664693136387219,-5.56372773420413,336.667073580126
738297.54629453457891941071,-0.516983550523392,-5.44063641265094,336.617837051505
738297.54629462503362447023,-0.800093590095726,-5.69912818791264,336.679382712282
738297.54629471548832952976,-0.947803175959553,-5.84683777377646,336.519363994263
738297.54629480594303458929,-0.935494043804234,-5.83452864162114,336.347036144088
738297.54629489628132432699,-0.972421440270191,-5.84683777377646,336.519363994263
738297.54629498673602938652,-0.972421440270191,-5.85914690593178,336.507054862107
738297.54629507719073444605,-0.935494043804234,-5.82221950946582,336.494745729952
738297.54629516764543950558,-0.972421440270191,-5.85914690593178,336.531673126418
738297.54629525798372924328,-0.935494043804234,-5.82221950946582,336.593218787194
738297.54629534843843430281,-0.935494043804234,-5.82221950946582,336.63014618366
738297.54629543889313936234,-0.960112308114872,-5.84683777377646,336.531673126418
738297.54629552923142910004,-0.960112308114872,-5.84683777377646,336.642455315816
738297.54629561968613415956,-0.960112308114872,-5.83452864162114,336.617837051505
738297.54629571014083921909,-0.997039704580828,-5.8714560380871,336.507054862107
738297.54629580059554427862,-0.997039704580828,-5.8714560380871,336.60552791935
738297.54629589093383401632,-0.984730572425509,-5.8714560380871,336.63014618366
738297.54629598138853907585,-0.984730572425509,-5.8714560380871,336.531673126418
738297.54629607184324413538,-0.984730572425509,-5.8714560380871,336.580909655039
738297.54629616229794919491,-0.997039704580828,-5.88376517024242,336.593218787194
738297.54629625263623893261,-0.984730572425509,-5.88376517024242,336.593218787194
738297.54629634309094399214,-0.972421440270191,-5.8714560380871,336.507054862107
738297.54629643354564905167,-0.997039704580828,-5.85914690593178,336.543982258573
738297.54629652400035411119,-0.997039704580828,-5.88376517024242,336.494745729952
738297.54629661433864384890,-0.984730572425509,-5.8714560380871,336.60552791935
738297.54629670479334890842,-0.984730572425509,-5.8714560380871,336.60552791935
738297.54629679524805396795,-0.984730572425509,-5.8714560380871,336.519363994263
738297.54629688570275902748,-0.972421440270191,-5.85914690593178,336.580909655039
738297.54629697604104876518,-0.984730572425509,-5.85914690593178,336.60552791935
738297.54629706649575382471,-0.972421440270191,-5.88376517024242,336.580909655039
738297.54629715695045888424,-0.972421440270191,-5.85914690593178,336.482436597797
738297.54629724740516394377,-0.984730572425509,-5.8714560380871,336.580909655039
738297.54629733774345368147,-0.984730572425509,-5.8714560380871,336.568600522884
738297.54629742819815874100,-0.984730572425509,-5.8714560380871,336.519363994263
738297.54629751865286380053,-0.984730572425509,-5.88376517024242,336.568600522884
738297.54629760910756886005,-0.984730572425509,-5.8714560380871,336.568600522884
738297.54629769944585859776,-0.984730572425509,-5.8714560380871,336.556291390728
738297.54629778990056365728,-0.960112308114872,-5.84683777377646,336.543982258573
738297.54629788035526871681,-0.960112308114872,-5.8714560380871,336.60552791935
738297.54629797080997377634,-0.984730572425509,-5.89607430239774,336.60552791935
738297.54629806114826351404,-0.984730572425509,-5.89607430239774,336.531673126418
738297.54629815160296857357,-0.960112308114872,-5.85914690593178,336.568600522884
738297.54629824205767363310,-0.972421440270191,-5.85914690593178,336.568600522884
738297.54629833251237869263,-0.960112308114872,-5.84683777377646,336.359345276243
738297.54629842285066843033,-0.960112308114872,-5.84683777377646,336.445509201331
738297.54629851330537348986,-0.947803175959553,-5.85914690593178,336.457818333486
738297.54629860376007854939,-0.947803175959553,-5.8714560380871,336.482436597797
738297.54629869421478360891,-0.935494043804234,-5.88376517024242,336.556291390728
738297.54629878455307334661,-0.923184911648915,-5.88376517024242,336.494745729952
738297.54629887500777840614,-0.898566647338277,-5.84683777377646,336.457818333486
738297.54629896546248346567,-0.87394838302764,-5.80991037731051,336.543982258573
738297.54629905591718852520,-0.898566647338277,-5.82221950946582,336.580909655039
738297.54629914625547826290,-0.935494043804234,-5.8714560380871,336.507054862107
738297.54629923671018332243,-0.960112308114872,-5.85914690593178,336.617837051505
738297.54629932716488838196,-0.960112308114872,-5.85914690593178,336.580909655039
738297.54629941761959344149,-0.984730572425509,-5.8714560380871,336.519363994263
738297.54629950795788317919,-0.984730572425509,-5.8714560380871,336.593218787194
738297.54629959841258823872,-0.997039704580828,-5.88376517024242,336.63014618366
738297.54629968886729329824,-0.984730572425509,-5.88376517024242,336.531673126418
738297.54629977932199835777,-0.984730572425509,-5.88376517024242,336.543982258573
738297.54629986966028809547,-0.984730572425509,-5.88376517024242,336.568600522884
738297.54629996011499315500,-0.984730572425509,-5.88376517024242,336.568600522884
738297.54630005056969821453,-0.984730572425509,-5.85914690593178,336.580909655039
738297.54630014102440327406,-0.923184911648915,-5.83452864162114,336.593218787194
738297.54630023136269301176,-0.787784457940408,-5.60065513067009,336.667073580126
738297.54630032181739807129,-0.455437889746798,-4.88672546566159,336.63014618366
738297.54630041227210313082,-0.0738547929319132,-4.1112501398765,336.383963540554
738297.54630050272680819035,0.123091321553189,-4.03739534694459,336.02699870805
738297.54630059306509792805,-0.590838343455306,-4.825179804885,336.05161697236
738297.54630068351980298758,-1.60018718019145,-6.42536698507645,336.150090029603
738297.54630077397450804710,-1.5017141229489,-6.43767611723177,336.223944822535
738297.54630086442921310663,-1.26784061199784,-6.17918434197007,336.310108747622
738297.54630095476750284433,-1.03396710104678,-5.93300169886369,336.42089093702
738297.54630104522220790386,-0.960112308114872,-5.85914690593178,336.482436597797
738297.54630113567691296339,-0.960112308114872,-5.85914690593178,336.507054862107
738297.54630122613161802292,-0.935494043804234,-5.84683777377646,336.568600522884
738297.54630131646990776062,-0.935494043804234,-5.82221950946582,336.531673126418
738297.54630140692461282015,-0.910875779493596,-5.79760124515519,336.580909655039
738297.54630149737931787968,-0.910875779493596,-5.82221950946582,336.519363994263
738297.54630158783402293921,-0.910875779493596,-5.80991037731051,336.568600522884
738297.54630167817231267691,-0.898566647338277,-5.78529211299987,336.580909655039
738297.54630176862701773643,-0.886257515182958,-5.78529211299987,336.519363994263
738297.54630185908172279596,-0.886257515182958,-5.77298298084455,336.396272672709
738297.54630194953642785549,-0.861639250872321,-5.76067384868923,336.580909655039
738297.54630203987471759319,-0.849330118717002,-5.72374645222327,336.642455315816
738297.54630213032942265272,-0.837020986561683,-5.71143732006795,336.679382712282
738297.54630222078412771225,-0.824711854406364,-5.68681905575732,336.507054862107
738297.54630231123883277178,-0.800093590095726,-5.674509923602,336.667073580126
738297.54630240157712250948,-0.76316619362977,-5.63758252713604,336.704000976592
738297.54630249203182756901,-0.750857061474451,-5.62527339498072,336.654764447971
738297.54630258248653262854,-0.726238797163813,-5.60065513067009,336.704000976592
738297.54630267294123768806,-0.713929665008494,-5.58834599851477,336.667073580126
738297.54630276327952742577,-0.701620532853175,-5.60065513067009,336.704000976592
738297.54630285373423248529,-0.689311400697857,-5.57603686635945,336.704000976592
738297.54630294418893754482,-0.701620532853175,-5.60065513067009,336.728619240903
738297.54630303464364260435,-0.701620532853175,-5.62527339498072,336.667073580126
738297.54630312498193234205,-0.726238797163813,-5.63758252713604,336.667073580126
738297.54630321543663740158,-0.76316619362977,-5.674509923602,336.568600522884
738297.54630330589134246111,-0.800093590095726,-5.71143732006795,336.507054862107
738297.54630339634604752064,-0.824711854406364,-5.73605558437859,336.519363994263
738297.54630348668433725834,-0.837020986561683,-5.76067384868923,336.494745729952
738297.54630357713904231787,-0.861639250872321,-5.78529211299987,336.482436597797
738297.54630366759374737740,-0.861639250872321,-5.78529211299987,336.507054862107
738297.54630375804845243692,-0.861639250872321,-5.79760124515519,336.543982258573
738297.54630384838674217463,-0.898566647338277,-5.82221950946582,336.556291390728
738297.54630393884144723415,-0.886257515182958,-5.80991037731051,336.531673126418
738297.54630402929615229368,-0.886257515182958,-5.79760124515519,336.617837051505
738297.54630411975085735321,-0.886257515182958,-5.80991037731051,336.580909655039
738297.54630421008914709091,-0.837020986561683,-5.76067384868923,336.543982258573
738297.54630430054385215044,-0.861639250872321,-5.79760124515519,336.543982258573
738297.54630439099855720997,-0.910875779493596,-5.83452864162114,336.556291390728
738297.54630448145326226950,-0.910875779493596,-5.83452864162114,336.519363994263
738297.54630457179155200720,-0.886257515182958,-5.80991037731051,336.568600522884
738297.54630466224625706673,-0.886257515182958,-5.80991037731051,336.556291390728
738297.54630475270096212626,-0.898566647338277,-5.80991037731051,336.507054862107
738297.54630484315566718578,-0.87394838302764,-5.79760124515519,336.556291390728
738297.54630493349395692348,-0.87394838302764,-5.79760124515519,336.543982258573
738297.54630502394866198301,-0.861639250872321,-5.78529211299987,336.60552791935
738297.54630511440336704254,-0.87394838302764,-5.79760124515519,336.568600522884
738297.54630520485807210207,-0.886257515182958,-5.82221950946582,336.593218787194
738297.54630529519636183977,-0.886257515182958,-5.80991037731051,336.359345276243
738297.54630538565106689930,-0.87394838302764,-5.79760124515519,336.457818333486
738297.54630547610577195883,-0.861639250872321,-5.78529211299987,336.494745729952
738297.54630556656047701836,-0.87394838302764,-5.80991037731051,336.445509201331
738297.54630565689876675606,-0.886257515182958,-5.80991037731051,336.470127465641
738297.54630574735347181559,-0.886257515182958,-5.80991037731051,336.457818333486
738297.54630583780817687511,-0.87394838302764,-5.80991037731051,336.482436597797
738297.54630592826288193464,-0.886257515182958,-5.80991037731051,336.470127465641
738297.54630601860117167234,-0.886257515182958,-5.83452864162114,336.470127465641
738297.54630610905587673187,-0.886257515182958,-5.82221950946582,336.482436597797
738297.54630619951058179140,-0.898566647338277,-5.83452864162114,336.519363994263
738297.54630628996528685093,-0.87394838302764,-5.79760124515519,336.470127465641
738297.54630638030357658863,-0.886257515182958,-5.82221950946582,336.531673126418
738297.54630647075828164816,-0.886257515182958,-5.82221950946582,336.507054862107
738297.54630656121298670769,-0.861639250872321,-5.83452864162114,336.470127465641
738297.54630665166769176722,-0.861639250872321,-5.83452864162114,336.470127465641
738297.54630674200598150492,-0.886257515182958,-5.85914690593178,336.507054862107
738297.54630683246068656445,-0.861639250872321,-5.84683777377646,336.445509201331
738297.54630692291539162397,-0.849330118717002,-5.84683777377646,336.445509201331
738297.54630701325368136168,-0.824711854406364,-5.79760124515519,336.482436597797
738297.54630710370838642120,-0.800093590095726,-5.77298298084455,336.556291390728
738297.54630719416309148073,-0.812402722251045,-5.77298298084455,336.531673126418
738297.54630728461779654026,-0.849330118717002,-5.80991037731051,336.457818333486
738297.54630737495608627796,-0.861639250872321,-5.82221950946582,336.482436597797
738297.54630746541079133749,-0.87394838302764,-5.82221950946582,336.568600522884
738297.54630755586549639702,-0.898566647338277,-5.83452864162114,336.556291390728
738297.54630764632020145655,-0.910875779493596,-5.85914690593178,336.482436597797
738297.54630773665849119425,-0.910875779493596,-5.8714560380871,336.580909655039
738297.54630782711319625378,-0.910875779493596,-5.85914690593178,336.543982258573
738297.54630791756790131330,-0.910875779493596,-5.85914690593178,336.494745729952
738297.54630800802260637283,-0.910875779493596,-5.84683777377646,336.457818333486
738297.54630809836089611053,-0.923184911648915,-5.8714560380871,336.482436597797
738297.54630818881560117006,-0.910875779493596,-5.84683777377646,336.482436597797
738297.54630827927030622959,-0.898566647338277,-5.83452864162114,336.531673126418
738297.54630836972501128912,-0.800093590095726,-5.72374645222327,336.679382712282
738297.54630846006330102682,-0.566220079144668,-5.18214463738924,336.753237505214
738297.54630855051800608635,-0.160018718019145,-4.24665059358501,336.642455315816
738297.54630864097271114588,0.147709585863826,-3.81583096814885,336.187017426069
738297.54630873142741620541,-0.246182643106377,-4.25895972574033,336.113162633137
738297.54630882176570594311,-1.20629495122125,-5.80991037731051,335.84236172572
738297.54630891222041100264,-1.5017141229489,-6.53614917447432,335.990071311584
738297.54630900267511606216,-1.26784061199784,-6.21611173843603,336.248563086845
738297.54630909312982112169,-1.03396710104678,-5.96992909532965,336.334727011933
738297.54630918346811085939,-0.947803175959553,-5.8714560380871,336.408581804865
738297.54630927392281591892,-0.898566647338277,-5.83452864162114,336.531673126418
738297.54630936437752097845,-0.886257515182958,-5.82221950946582,336.543982258573
738297.54630945483222603798,-0.886257515182958,-5.83452864162114,336.507054862107
738297.54630954517051577568,-0.87394838302764,-5.79760124515519,336.556291390728
738297.54630963562522083521,-0.861639250872321,-5.79760124515519,336.568600522884
738297.54630972607992589474,-0.849330118717002,-5.78529211299987,336.568600522884
738297.54630981653463095427,-0.849330118717002,-5.79760124515519,336.568600522884
738297.54630990687292069197,-0.824711854406364,-5.76067384868923,336.593218787194
738297.54630999732762575150,-0.824711854406364,-5.74836471653391,336.470127465641
738297.54631008778233081102,-0.812402722251045,-5.72374645222327,336.617837051505
738297.54631017823703587055,-0.800093590095726,-5.71143732006795,336.617837051505
738297.54631026857532560825,-0.787784457940408,-5.69912818791264,336.654764447971
738297.54631035903003066778,-0.775475325785089,-5.68681905575732,336.580909655039
738297.54631044948473572731,-0.76316619362977,-5.66220079144668,336.654764447971
738297.54631053993944078684,-0.726238797163813,-5.62527339498072,336.63014618366
738297.54631063027773052454,-0.701620532853175,-5.6129642628254,336.654764447971
738297.54631072073243558407,-0.677002268542538,-5.57603686635945,336.667073580126
738297.54631081118714064360,-0.664693136387219,-5.57603686635945,336.765546637369
738297.54631090164184570312,-0.6523840042319,-5.56372773420413,336.679382712282
738297.54631099198013544083,-0.6523840042319,-5.56372773420413,336.667073580126
738297.54631108243484050035,-0.640074872076581,-5.56372773420413,336.704000976592
738297.54631117288954555988,-0.6523840042319,-5.58834599851477,336.704000976592
738297.54631126334425061941,-0.664693136387219,-5.60065513067009,336.679382712282
738297.54631135368254035711,-0.689311400697857,-5.63758252713604,336.654764447971
738297.54631144413724541664,-0.726238797163813,-5.66220079144668,336.568600522884
738297.54631153459195047617,-0.750857061474451,-5.68681905575732,336.617837051505
738297.54631162504665553570,-0.787784457940408,-5.72374645222327,336.531673126418
738297.54631171538494527340,-0.812402722251045,-5.74836471653391,336.457818333486
738297.54631180583965033293,-0.824711854406364,-5.78529211299987,336.457818333486
738297.54631189629435539246,-0.837020986561683,-5.78529211299987,336.457818333486
738297.54631198674906045198,-0.837020986561683,-5.78529211299987,336.433200069175
738297.54631207708735018969,-0.824711854406364,-5.77298298084455,336.531673126418
738297.54631216754205524921,-0.849330118717002,-5.79760124515519,336.519363994263
738297.54631225799676030874,-0.849330118717002,-5.79760124515519,336.519363994263
738297.54631234845146536827,-0.849330118717002,-5.79760124515519,336.359345276243
738297.54631243878975510597,-0.837020986561683,-5.79760124515519,336.470127465641
738297.54631252924446016550,-0.849330118717002,-5.79760124515519,336.543982258573
738297.54631261969916522503,-0.837020986561683,-5.79760124515519,336.519363994263
738297.54631271015387028456,-0.837020986561683,-5.78529211299987,336.556291390728
738297.54631280049216002226,-0.849330118717002,-5.78529211299987,336.543982258573
738297.54631289094686508179,-0.837020986561683,-5.78529211299987,336.494745729952
738297.54631298140157014132,-0.837020986561683,-5.78529211299987,336.543982258573
738297.54631307185627520084,-0.824711854406364,-5.77298298084455,336.568600522884
738297.54631316219456493855,-0.837020986561683,-5.77298298084455,336.580909655039
738297.54631325264926999807,-0.824711854406364,-5.77298298084455,336.519363994263
738297.54631334310397505760,-0.837020986561683,-5.78529211299987,336.383963540554
738297.54631343355868011713,-0.824711854406364,-5.77298298084455,336.42089093702
738297.54631352389696985483,-0.824711854406364,-5.77298298084455,336.470127465641
738297.54631361435167491436,-0.824711854406364,-5.77298298084455,336.470127465641
738297.54631370480637997389,-0.824711854406364,-5.77298298084455,336.470127465641
738297.54631379526108503342,-0.824711854406364,-5.77298298084455,336.507054862107
738297.54631388559937477112,-0.837020986561683,-5.78529211299987,336.482436597797
738297.54631397605407983065,-0.824711854406364,-5.77298298084455,336.531673126418
738297.54631406650878489017,-0.837020986561683,-5.78529211299987,336.543982258573
738297.54631415696348994970,-0.824711854406364,-5.78529211299987,336.433200069175
738297.54631424730177968740,-0.849330118717002,-5.79760124515519,336.494745729952
738297.54631433775648474693,-0.837020986561683,-5.78529211299987,336.543982258573
738297.54631442821118980646,-0.837020986561683,-5.78529211299987,336.482436597797
738297.54631451866589486599,-0.837020986561683,-5.79760124515519,336.507054862107
738297.54631460900418460369,-0.849330118717002,-5.80991037731051,336.519363994263
738297.54631469945888966322,-0.849330118717002,-5.80991037731051,336.507054862107
738297.54631478991359472275,-0.824711854406364,-5.79760124515519,336.482436597797
738297.54631488036829978228,-0.824711854406364,-5.80991037731051,336.482436597797
738297.54631497070658951998,-0.837020986561683,-5.82221950946582,336.433200069175
738297.54631506116129457951,-0.824711854406364,-5.82221950946582,336.408581804865
738297.54631515161599963903,-0.800093590095726,-5.79760124515519,336.383963540554
738297.54631524207070469856,-0.775475325785089,-5.77298298084455,336.408581804865
738297.54631533240899443626,-0.738547929319132,-5.72374645222327,336.408581804865
738297.54631542286369949579,-0.775475325785089,-5.76067384868923,336.396272672709
738297.54631551331840455532,-0.787784457940408,-5.77298298084455,336.408581804865
738297.54631560377310961485,-0.824711854406364,-5.79760124515519,336.470127465641
738297.54631569411139935255,-0.837020986561683,-5.79760124515519,336.494745729952
738297.54631578456610441208,-0.861639250872321,-5.82221950946582,336.543982258573
738297.54631587502080947161,-0.861639250872321,-5.82221950946582,336.347036144088
738297.54631596547551453114,-0.87394838302764,-5.83452864162114,336.383963540554
738297.54631605581380426884,-0.87394838302764,-5.83452864162114,336.507054862107
738297.54631614626850932837,-0.861639250872321,-5.82221950946582,336.543982258573
738297.54631623672321438789,-0.87394838302764,-5.83452864162114,336.543982258573
738297.54631632717791944742,-0.861639250872321,-5.82221950946582,336.482436597797
738297.54631641751620918512,-0.87394838302764,-5.82221950946582,336.593218787194
738297.54631650797091424465,-0.800093590095726,-5.78529211299987,336.580909655039
738297.54631659842561930418,-0.750857061474451,-5.68681905575732,336.691691844437
738297.54631668888032436371,-0.492365286212755,-5.09598071230201,336.716310108748
738297.54631677921861410141,-0.0984730572425509,-4.18510493280842,336.580909655039
738297.54631686967331916094,0.196946114485102,-3.79121270383821,336.23625395469
738297.54631696012802422047,-0.258491775261696,-4.33281451867224,336.014689575894
738297.54631705058272927999,-1.21860408337657,-5.93300169886369,336.063926104516
738297.54631714092101901770,-1.45247759432763,-6.49922177800836,336.137780897448
738297.54631723137572407722,-1.21860408337657,-6.20380260628071,336.310108747622
738297.54631732183042913675,-0.972421440270191,-5.93300169886369,336.445509201331
738297.54631741228513419628,-0.87394838302764,-5.83452864162114,336.568600522884
738297.54631750262342393398,-0.861639250872321,-5.82221950946582,336.519363994263
738297.54631759307812899351,-0.849330118717002,-5.80991037731051,336.371654408399
738297.54631768353283405304,-0.837020986561683,-5.79760124515519,336.457818333486
738297.54631777398753911257,-0.837020986561683,-5.79760124515519,336.519363994263
738297.54631786432582885027,-0.812402722251045,-5.76067384868923,336.507054862107
738297.54631795478053390980,-0.800093590095726,-5.76067384868923,336.494745729952
738297.54631804523523896933,-0.787784457940408,-5.74836471653391,336.507054862107
738297.54631813557352870703,-0.787784457940408,-5.74836471653391,336.531673126418
738297.54631822602823376656,-0.775475325785089,-5.72374645222327,336.543982258573
738297.54631831648293882608,-0.76316619362977,-5.69912818791264,336.531673126418
738297.54631840693764388561,-0.76316619362977,-5.69912818791264,336.543982258573
738297.54631849727593362331,-0.750857061474451,-5.68681905575732,336.568600522884
738297.54631858773063868284,-0.726238797163813,-5.64989165929136,336.593218787194
738297.54631867818534374237,-0.701620532853175,-5.63758252713604,336.667073580126
738297.54631876864004880190,-0.701620532853175,-5.62527339498072,336.667073580126
738297.54631885897833853960,-0.664693136387219,-5.60065513067009,336.667073580126
738297.54631894943304359913,-0.640074872076581,-5.58834599851477,336.704000976592
738297.54631903988774865866,-0.627765739921262,-5.55141860204881,336.728619240903
738297.54631913034245371819,-0.627765739921262,-5.57603686635945,336.679382712282
738297.54631922068074345589,-0.627765739921262,-5.57603686635945,336.654764447971
738297.54631931113544851542,-0.603147475610625,-5.57603686635945,336.716310108748
738297.54631940159015357494,-0.615456607765943,-5.58834599851477,336.543982258573
738297.54631949204485863447,-0.6523840042319,-5.62527339498072,336.457818333486
738297.54631958238314837217,-0.664693136387219,-5.63758252713604,336.556291390728
738297.54631967283785343170,-0.701620532853175,-5.674509923602,336.507054862107
738297.54631976329255849123,-0.726238797163813,-5.69912818791264,336.519363994263
738297.54631985374726355076,-0.76316619362977,-5.73605558437859,336.519363994263
738297.54631994408555328846,-0.775475325785089,-5.74836471653391,336.531673126418
738297.54632003454025834799,-0.787784457940408,-5.77298298084455,336.543982258573
738297.54632012499496340752,-0.800093590095726,-5.77298298084455,336.519363994263
738297.54632021544966846704,-0.800093590095726,-5.77298298084455,336.519363994263
738297.54632030578795820475,-0.800093590095726,-5.78529211299987,336.556291390728
738297.54632039624266326427,-0.812402722251045,-5.78529211299987,336.494745729952
738297.54632048669736832380,-0.800093590095726,-5.79760124515519,336.494745729952
738297.54632057715207338333,-0.800093590095726,-5.78529211299987,336.556291390728
738297.54632066749036312103,-0.812402722251045,-5.79760124515519,336.482436597797
738297.54632075794506818056,-0.812402722251045,-5.78529211299987,336.445509201331
738297.54632084839977324009,-0.800093590095726,-5.78529211299987,336.531673126418
738297.54632093885447829962,-0.800093590095726,-5.78529211299987,336.543982258573
738297.54632102919276803732,-0.800093590095726,-5.78529211299987,336.42089093702
738297.54632111964747309685,-0.800093590095726,-5.77298298084455,336.519363994263
738297.54632121010217815638,-0.800093590095726,-5.78529211299987,336.519363994263
738297.54632130055688321590,-0.787784457940408,-5.77298298084455,336.482436597797
738297.54632139089517295361,-0.787784457940408,-5.77298298084455,336.507054862107
738297.54632148134987801313,-0.800093590095726,-5.77298298084455,336.531673126418
738297.54632157180458307266,-0.787784457940408,-5.77298298084455,336.556291390728
738297.54632166225928813219,-0.787784457940408,-5.77298298084455,336.470127465641
738297.54632175259757786989,-0.800093590095726,-5.77298298084455,336.396272672709
738297.54632184305228292942,-0.800093590095726,-5.77298298084455,336.396272672709
738297.54632193350698798895,-0.787784457940408,-5.76067384868923,336.519363994263
738297.54632202396169304848,-0.800093590095726,-5.77298298084455,336.433200069175
738297.54632211429998278618,-0.800093590095726,-5.78529211299987,336.383963540554
738297.54632220475468784571,-0.800093590095726,-5.78529211299987,336.519363994263
738297.54632229520939290524,-0.800093590095726,-5.77298298084455,336.42089093702
738297.54632238566409796476,-0.812402722251045,-5.79760124515519,336.457818333486
738297.54632247600238770247,-0.800093590095726,-5.78529211299987,336.470127465641
738297.54632256645709276199,-0.812402722251045,-5.79760124515519,336.519363994263
738297.54632265691179782152,-0.812402722251045,-5.79760124515519,336.445509201331
738297.54632274736650288105,-0.824711854406364,-5.80991037731051,336.457818333486
738297.54632283770479261875,-0.800093590095726,-5.78529211299987,336.531673126418
738297.54632292815949767828,-0.800093590095726,-5.78529211299987,336.359345276243
738297.54632301861420273781,-0.800093590095726,-5.79760124515519,336.383963540554
738297.54632310906890779734,-0.812402722251045,-5.80991037731051,336.396272672709
738297.54632319940719753504,-0.812402722251045,-5.82221950946582,336.42089093702
738297.54632328986190259457,-0.787784457940408,-5.82221950946582,336.42089093702
738297.54632338031660765409,-0.775475325785089,-5.82221950946582,336.433200069175
738297.54632347077131271362,-0.750857061474451,-5.77298298084455,336.42089093702
738297.54632356110960245132,-0.726238797163813,-5.74836471653391,336.396272672709
738297.54632365156430751085,-0.750857061474451,-5.76067384868923,336.445509201331
738297.54632374201901257038,-0.775475325785089,-5.79760124515519,336.482436597797
738297.54632383247371762991,-0.787784457940408,-5.79760124515519,336.494745729952
738297.54632392281200736761,-0.800093590095726,-5.79760124515519,336.507054862107
738297.54632401326671242714,-0.812402722251045,-5.79760124515519,336.470127465641
738297.54632410372141748667,-0.837020986561683,-5.83452864162114,336.494745729952
738297.54632419417612254620,-0.837020986561683,-5.83452864162114,336.494745729952
738297.54632428451441228390,-0.849330118717002,-5.83452864162114,336.433200069175
738297.54632437496911734343,-0.849330118717002,-5.83452864162114,336.519363994263
738297.54632446542382240295,-0.849330118717002,-5.83452864162114,336.507054862107
738297.54632455587852746248,-0.837020986561683,-5.82221950946582,336.445509201331
738297.54632464621681720018,-0.849330118717002,-5.80991037731051,336.457818333486
738297.54632473667152225971,-0.812402722251045,-5.79760124515519,336.63014618366
738297.54632482712622731924,-0.701620532853175,-5.63758252713604,336.753237505214
738297.54632491758093237877,-0.418510493280842,-4.97288939074882,336.691691844437
738297.54632500791922211647,-0.0246182643106377,-4.09894100772118,336.482436597797
738297.54632509837392717600,0.209255246640421,-3.85275836461481,336.125471765292
738297.54632518882863223553,-0.344655700348928,-4.50514236884671,336.063926104516
738297.54632527928333729506,-1.35400453708508,-6.17918434197007,336.063926104516
738297.54632536962162703276,-1.41555019786167,-6.47460351369772,336.100853500982
738297.54632546007633209229,-1.18167668691061,-6.19149347412539,336.223944822535
738297.54632555053103715181,-0.923184911648915,-5.89607430239774,336.347036144088
738297.54632564098574221134,-0.849330118717002,-5.83452864162114,336.408581804865
738297.54632573132403194904,-0.837020986561683,-5.82221950946582,336.433200069175
738297.54632582177873700857,-0.837020986561683,-5.82221950946582,336.482436597797
738297.54632591223344206810,-0.824711854406364,-5.80991037731051,336.580909655039
738297.54632600268814712763,-0.812402722251045,-5.79760124515519,336.531673126418
738297.54632609302643686533,-0.812402722251045,-5.78529211299987,336.593218787194
738297.54632618348114192486,-0.800093590095726,-5.77298298084455,336.519363994263
738297.54632627393584698439,-0.812402722251045,-5.77298298084455,336.507054862107
738297.54632636439055204391,-0.800093590095726,-5.76067384868923,336.556291390728
738297.54632645472884178162,-0.787784457940408,-5.74836471653391,336.457818333486
738297.54632654518354684114,-0.775475325785089,-5.72374645222327,336.433200069175
738297.54632663563825190067,-0.750857061474451,-5.69912818791264,336.568600522884
738297.54632672609295696020,-0.738547929319132,-5.68681905575732,336.580909655039
738297.54632681643124669790,-0.713929665008494,-5.674509923602,336.519363994263
738297.54632690688595175743,-0.701620532853175,-5.64989165929136,336.556291390728
738297.54632699734065681696,-0.689311400697857,-5.62527339498072,336.60552791935
738297.54632708779536187649,-0.664693136387219,-5.60065513067009,336.593218787194
738297.54632717813365161419,-0.640074872076581,-5.58834599851477,336.60552791935
738297.54632726858835667372,-0.627765739921262,-5.58834599851477,336.617837051505
738297.54632735904306173325,-0.627765739921262,-5.58834599851477,336.667073580126
738297.54632744949776679277,-0.615456607765943,-5.58834599851477,336.642455315816
738297.54632753983605653048,-0.615456607765943,-5.58834599851477,336.60552791935
738297.54632763029076159000,-0.615456607765943,-5.60065513067009,336.642455315816
738297.54632772074546664953,-0.640074872076581,-5.62527339498072,336.531673126418
738297.54632781120017170906,-0.6523840042319,-5.64989165929136,336.568600522884
738297.54632790153846144676,-0.677002268542538,-5.674509923602,336.531673126418
738297.54632799199316650629,-0.713929665008494,-5.69912818791264,336.568600522884
738297.54632808244787156582,-0.738547929319132,-5.72374645222327,336.568600522884
738297.54632817290257662535,-0.738547929319132,-5.73605558437859,336.42089093702
738297.54632826324086636305,-0.787784457940408,-5.76067384868923,336.519363994263
738297.54632835369557142258,-0.800093590095726,-5.77298298084455,336.543982258573
738297.54632844415027648211,-0.800093590095726,-5.78529211299987,336.531673126418
738297.54632853460498154163,-0.812402722251045,-5.79760124515519,336.482436597797
738297.54632862494327127934,-0.800093590095726,-5.78529211299987,336.543982258573
738297.54632871539797633886,-0.800093590095726,-5.78529211299987,336.543982258573
738297.54632880585268139839,-0.787784457940408,-5.77298298084455,336.494745729952
738297.54632889630738645792,-0.800093590095726,-5.79760124515519,336.507054862107
738297.54632898664567619562,-0.800093590095726,-5.79760124515519,336.580909655039
738297.54632907710038125515,-0.800093590095726,-5.78529211299987,336.543982258573
738297.54632916755508631468,-0.800093590095726,-5.79760124515519,336.519363994263
738297.54632925800979137421,-0.787784457940408,-5.77298298084455,336.519363994263
738297.54632934834808111191,-0.787784457940408,-5.77298298084455,336.470127465641
738297.54632943880278617144,-0.787784457940408,-5.77298298084455,336.482436597797
738297.54632952925749123096,-0.787784457940408,-5.77298298084455,336.457818333486
738297.54632961959578096867,-0.787784457940408,-5.76067384868923,336.494745729952
738297.54632971005048602819,-0.787784457940408,-5.77298298084455,336.494745729952
738297.54632980050519108772,-0.775475325785089,-5.76067384868923,336.445509201331
738297.54632989095989614725,-0.787784457940408,-5.77298298084455,336.470127465641
738297.54632998129818588495,-0.787784457940408,-5.77298298084455,336.347036144088
738297.54633007175289094448,-0.787784457940408,-5.77298298084455,336.285490483311
738297.54633016220759600401,-0.787784457940408,-5.77298298084455,336.42089093702
738297.54633025266230106354,-0.787784457940408,-5.77298298084455,336.42089093702
738297.54633034300059080124,-0.775475325785089,-5.76067384868923,336.445509201331
738297.54633043345529586077,-0.800093590095726,-5.77298298084455,336.457818333486
738297.54633052391000092030,-0.787784457940408,-5.78529211299987,336.494745729952
738297.54633061436470597982,-0.800093590095726,-5.78529211299987,336.482436597797
738297.54633070470299571753,-0.800093590095726,-5.78529211299987,336.42089093702
738297.54633079515770077705,-0.800093590095726,-5.78529211299987,336.482436597797
738297.54633088561240583658,-0.787784457940408,-5.79760124515519,336.42089093702
738297.54633097606711089611,-0.787784457940408,-5.78529211299987,336.433200069175
738297.54633106640540063381,-0.787784457940408,-5.79760124515519,336.433200069175
738297.54633115686010569334,-0.775475325785089,-5.80991037731051,336.408581804865
738297.54633124731481075287,-0.76316619362977,-5.80991037731051,336.371654408399
738297.54633133776951581240,-0.738547929319132,-5.78529211299987,336.433200069175
738297.54633142810780555010,-0.726238797163813,-5.76067384868923,336.433200069175
738297.54633151856251060963,-0.726238797163813,-5.74836471653391,336.396272672709
738297.54633160901721566916,-0.76316619362977,-5.77298298084455,336.371654408399
738297.54633169947192072868,-0.800093590095726,-5.82221950946582,336.42089093702
738297.54633178981021046638,-0.800093590095726,-5.79760124515519,336.408581804865
738297.54633188026491552591,-0.824711854406364,-5.80991037731051,336.457818333486
738297.54633197071962058544,-0.837020986561683,-5.82221950946582,336.494745729952
738297.54633206117432564497,-0.849330118717002,-5.83452864162114,336.507054862107
738297.54633215151261538267,-0.849330118717002,-5.82221950946582,336.457818333486
738297.54633224196732044220,-0.87394838302764,-5.84683777377646,336.42089093702
738297.54633233242202550173,-0.849330118717002,-5.82221950946582,336.457818333486
738297.54633242287673056126,-0.849330118717002,-5.82221950946582,336.457818333486
738297.54633251321502029896,-0.849330118717002,-5.80991037731051,336.445509201331
738297.54633260366972535849,-0.837020986561683,-5.82221950946582,336.568600522884
738297.54633269412443041801,-0.713929665008494,-5.6129642628254,336.728619240903
738297.54633278457913547754,-0.406201361125523,-4.98519852290414,336.654764447971
738297.54633287491742521524,0.0369273964659566,-4.14817753634246,336.507054862107
738297.54633296537213027477,0.258491775261696,-4.09894100772118,336.088544368826
738297.54633305582683533430,-0.393892228970204,-4.80056154057436,336.113162633137
738297.54633314628154039383,-0.898566647338277,-5.48987294127221,336.162399161758
738297.54633323661983013153,-1.52633238725954,-6.57307657094027,336.174708293914
738297.54633332707453519106,-1.3047680084638,-6.27765739921262,336.347036144088
738297.54633341752924025059,-1.09551276182338,-6.0684021525722,336.433200069175
738297.54633350798394531012,-0.898566647338277,-5.8714560380871,336.396272672709
738297.54633359832223504782,-0.849330118717002,-5.82221950946582,336.347036144088
738297.54633368877694010735,-0.849330118717002,-5.83452864162114,336.519363994263
738297.54633377923164516687,-0.824711854406364,-5.80991037731051,336.482436597797
738297.54633386968635022640,-0.824711854406364,-5.79760124515519,336.531673126418
738297.54633396002463996410,-0.812402722251045,-5.79760124515519,336.580909655039
738297.54633405047934502363,-0.800093590095726,-5.76067384868923,336.531673126418
738297.54633414093405008316,-0.787784457940408,-5.77298298084455,336.494745729952
738297.54633423138875514269,-0.787784457940408,-5.76067384868923,336.543982258573
738297.54633432172704488039,-0.787784457940408,-5.76067384868923,336.60552791935
738297.54633441218174993992,-0.775475325785089,-5.72374645222327,336.531673126418
738297.54633450263645499945,-0.76316619362977,-5.71143732006795,336.60552791935
738297.54633459309116005898,-0.750857061474451,-5.68681905575732,336.60552791935
738297.54633468342944979668,-0.726238797163813,-5.68681905575732,336.60552791935
738297.54633477388415485620,-0.713929665008494,-5.64989165929136,336.543982258573
738297.54633486433885991573,-0.701620532853175,-5.63758252713604,336.433200069175
738297.54633495479356497526,-0.677002268542538,-5.6129642628254,336.42089093702
738297.54633504513185471296,-0.6523840042319,-5.60065513067009,336.494745729952
738297.54633513558655977249,-0.6523840042319,-5.60065513067009,336.507054862107
738297.54633522604126483202,-0.640074872076581,-5.60065513067009,336.519363994263
738297.54633531649596989155,-0.627765739921262,-5.6129642628254,336.60552791935
738297.54633540683425962925,-0.627765739921262,-5.60065513067009,336.519363994263
738297.54633549728896468878,-0.640074872076581,-5.63758252713604,336.519363994263
738297.54633558774366974831,-0.6523840042319,-5.64989165929136,336.482436597797
738297.54633567819837480783,-0.664693136387219,-5.66220079144668,336.543982258573
738297.54633576853666454554,-0.701620532853175,-5.71143732006795,336.494745729952
738297.54633585899136960506,-0.738547929319132,-5.74836471653391,336.507054862107
738297.54633594944607466459,-0.750857061474451,-5.76067384868923,336.507054862107
738297.54633603990077972412,-0.775475325785089,-5.78529211299987,336.470127465641
738297.54633613023906946182,-0.787784457940408,-5.78529211299987,336.470127465641
738297.54633622069377452135,-0.787784457940408,-5.78529211299987,336.494745729952
738297.54633631114847958088,-0.787784457940408,-5.78529211299987,336.359345276243
738297.54633640160318464041,-0.800093590095726,-5.78529211299987,336.371654408399
738297.54633649194147437811,-0.800093590095726,-5.79760124515519,336.433200069175
738297.54633658239617943764,-0.800093590095726,-5.80991037731051,336.408581804865
738297.54633667285088449717,-0.812402722251045,-5.80991037731051,336.396272672709
738297.54633676330558955669,-0.812402722251045,-5.82221950946582,336.457818333486
738297.54633685364387929440,-0.812402722251045,-5.82221950946582,336.482436597797
738297.54633694409858435392,-0.800093590095726,-5.80991037731051,336.482436597797
738297.54633703455328941345,-0.800093590095726,-5.80991037731051,336.260872219001
738297.54633712500799447298,-0.800093590095726,-5.80991037731051,336.260872219001
738297.54633721534628421068,-0.800093590095726,-5.80991037731051,336.494745729952
738297.54633730580098927021,-0.787784457940408,-5.80991037731051,336.494745729952
738297.54633739625569432974,-0.787784457940408,-5.80991037731051,336.457818333486
738297.54633748671039938927,-0.787784457940408,-5.79760124515519,336.470127465641
738297.54633757704868912697,-0.787784457940408,-5.79760124515519,336.494745729952
738297.54633766750339418650,-0.787784457940408,-5.79760124515519,336.519363994263
738297.54633775795809924603,-0.800093590095726,-5.80991037731051,336.408581804865
738297.54633784841280430555,-0.787784457940408,-5.78529211299987,336.482436597797
738297.54633793875109404325,-0.787784457940408,-5.78529211299987,336.519363994263
738297.54633802920579910278,-0.787784457940408,-5.79760124515519,336.396272672709
738297.54633811966050416231,-0.775475325785089,-5.78529211299987,336.494745729952
738297.54633821011520922184,-0.775475325785089,-5.78529211299987,336.494745729952
738297.54633830045349895954,-0.775475325785089,-5.79760124515519,336.457818333486
738297.54633839090820401907,-0.775475325785089,-5.80991037731051,336.457818333486
738297.54633848136290907860,-0.76316619362977,-5.79760124515519,336.383963540554
738297.54633857181761413813,-0.76316619362977,-5.82221950946582,336.334727011933
738297.54633866215590387583,-0.750857061474451,-5.79760124515519,336.285490483311
738297.54633875261060893536,-0.726238797163813,-5.78529211299987,336.347036144088
738297.54633884306531399488,-0.726238797163813,-5.76067384868923,336.334727011933
738297.54633893352001905441,-0.738547929319132,-5.78529211299987,336.310108747622
738297.54633902385830879211,-0.76316619362977,-5.80991037731051,336.408581804865
738297.54633911431301385164,-0.787784457940408,-5.82221950946582,336.445509201331
738297.54633920476771891117,-0.812402722251045,-5.82221950946582,336.482436597797
738297.54633929522242397070,-0.812402722251045,-5.82221950946582,336.445509201331
738297.54633938556071370840,-0.837020986561683,-5.84683777377646,336.457818333486
738297.54633947601541876793,-0.837020986561683,-5.83452864162114,336.433200069175
738297.54633956647012382746,-0.849330118717002,-5.85914690593178,336.482436597797
738297.54633965692482888699,-0.837020986561683,-5.83452864162114,336.482436597797
738297.54633974726311862469,-0.837020986561683,-5.83452864162114,336.457818333486
738297.54633983771782368422,-0.837020986561683,-5.83452864162114,336.371654408399
738297.54633992817252874374,-0.849330118717002,-5.83452864162114,336.42089093702
738297.54634001862723380327,-0.812402722251045,-5.82221950946582,336.494745729952
738297.54634010896552354097,-0.677002268542538,-5.52680033773817,336.617837051505
738297.54634019942022860050,-0.344655700348928,-4.825179804885,336.593218787194
738297.54634028987493366003,0.0369273964659566,-4.22203232927437,336.371654408399
738297.54634038032963871956,0.0123091321553189,-4.5666880296233,336.02699870805
738297.54634047066792845726,-0.787784457940408,-5.39139988402966,336.076235236671
738297.54634056112263351679,-1.3047680084638,-6.1299478133488,336.125471765292
738297.54634065157733857632,-1.46478672648295,-6.49922177800836,336.039307840205
738297.54634074191562831402,-1.23091321553189,-6.22842087059135,336.297799615467
738297.54634083237033337355,-1.03396710104678,-6.01916562395093,336.445509201331
738297.54634092282503843307,-0.87394838302764,-5.85914690593178,336.494745729952
738297.54634101327974349260,-0.837020986561683,-5.83452864162114,336.408581804865
738297.54634110361803323030,-0.824711854406364,-5.82221950946582,336.482436597797
738297.54634119407273828983,-0.812402722251045,-5.80991037731051,336.556291390728
738297.54634128452744334936,-0.812402722251045,-5.79760124515519,336.531673126418
738297.54634137498214840889,-0.787784457940408,-5.77298298084455,336.519363994263
738297.54634146532043814659,-0.787784457940408,-5.77298298084455,336.556291390728
738297.54634155577514320612,-0.787784457940408,-5.77298298084455,336.519363994263
738297.54634164622984826565,-0.76316619362977,-5.76067384868923,336.519363994263
738297.54634173668455332518,-0.76316619362977,-5.74836471653391,336.556291390728
738297.54634182702284306288,-0.750857061474451,-5.72374645222327,336.60552791935
738297.54634191747754812241,-0.738547929319132,-5.69912818791264,336.543982258573
738297.54634200793225318193,-0.701620532853175,-5.68681905575732,336.580909655039
738297.54634209838695824146,-0.701620532853175,-5.66220079144668,336.617837051505
738297.54634218872524797916,-0.689311400697857,-5.63758252713604,336.593218787194
738297.54634227917995303869,-0.664693136387219,-5.6129642628254,336.60552791935
738297.54634236963465809822,-0.6523840042319,-5.60065513067009,336.642455315816
738297.54634246008936315775,-0.6523840042319,-5.60065513067009,336.691691844437
738297.54634255042765289545,-0.640074872076581,-5.57603686635945,336.580909655039
738297.54634264088235795498,-0.615456607765943,-5.58834599851477,336.691691844437
738297.54634273133706301451,-0.615456607765943,-5.58834599851477,336.654764447971
738297.54634282179176807404,-0.627765739921262,-5.6129642628254,336.556291390728
738297.54634291213005781174,-0.627765739921262,-5.62527339498072,336.580909655039
738297.54634300258476287127,-0.6523840042319,-5.64989165929136,336.617837051505
738297.54634309303946793079,-0.677002268542538,-5.68681905575732,336.568600522884
738297.54634318349417299032,-0.701620532853175,-5.72374645222327,336.470127465641
738297.54634327383246272802,-0.738547929319132,-5.74836471653391,336.322417879777
738297.54634336428716778755,-0.750857061474451,-5.76067384868923,336.383963540554
738297.54634345474187284708,-0.76316619362977,-5.77298298084455,336.445509201331
738297.54634354519657790661,-0.775475325785089,-5.79760124515519,336.396272672709
738297.54634363553486764431,-0.787784457940408,-5.80991037731051,336.347036144088
738297.54634372598957270384,-0.787784457940408,-5.80991037731051,336.371654408399
738297.54634381644427776337,-0.787784457940408,-5.80991037731051,336.371654408399
738297.54634390689898282290,-0.787784457940408,-5.80991037731051,336.371654408399
738297.54634399723727256060,-0.787784457940408,-5.82221950946582,336.371654408399
738297.54634408769197762012,-0.800093590095726,-5.80991037731051,336.199326558224
738297.54634417814668267965,-0.787784457940408,-5.80991037731051,336.260872219001
738297.54634426860138773918,-0.787784457940408,-5.80991037731051,336.383963540554
738297.54634435893967747688,-0.800093590095726,-5.80991037731051,336.445509201331
738297.54634444939438253641,-0.787784457940408,-5.82221950946582,336.457818333486
738297.54634453984908759594,-0.787784457940408,-5.80991037731051,336.42089093702
738297.54634463030379265547,-0.787784457940408,-5.82221950946582,336.334727011933
738297.54634472064208239317,-0.787784457940408,-5.80991037731051,336.383963540554
738297.54634481109678745270,-0.775475325785089,-5.79760124515519,336.383963540554
738297.54634490155149251223,-0.775475325785089,-5.79760124515519,336.445509201331
738297.54634499200619757175,-0.775475325785089,-5.78529211299987,336.42089093702
738297.54634508234448730946,-0.76316619362977,-5.78529211299987,336.371654408399
738297.54634517279919236898,-0.787784457940408,-5.79760124515519,336.396272672709
738297.54634526325389742851,-0.775475325785089,-5.78529211299987,336.433200069175
738297.54634535370860248804,-0.76316619362977,-5.78529211299987,336.42089093702
738297.54634544404689222574,-0.775475325785089,-5.78529211299987,336.383963540554
738297.54634553450159728527,-0.76316619362977,-5.77298298084455,336.396272672709
738297.54634562495630234480,-0.76316619362977,-5.78529211299987,336.433200069175
738297.54634571541100740433,-0.76316619362977,-5.79760124515519,336.445509201331
738297.54634580574929714203,-0.750857061474451,-5.79760124515519,336.445509201331
738297.54634589620400220156,-0.738547929319132,-5.80991037731051,336.408581804865
738297.54634598665870726109,-0.713929665008494,-5.79760124515519,336.408581804865
738297.54634607711341232061,-0.701620532853175,-5.78529211299987,336.42089093702
738297.54634616745170205832,-0.713929665008494,-5.74836471653391,336.42089093702
738297.54634625790640711784,-0.738547929319132,-5.78529211299987,336.396272672709
738297.54634634836111217737,-0.750857061474451,-5.79760124515519,336.457818333486
738297.54634643881581723690,-0.775475325785089,-5.80991037731051,336.445509201331
738297.54634652915410697460,-0.800093590095726,-5.82221950946582,336.408581804865
738297.54634661960881203413,-0.812402722251045,-5.80991037731051,336.383963540554
738297.54634671006351709366,-0.824711854406364,-5.83452864162114,336.371654408399
738297.54634680051822215319,-0.812402722251045,-5.83452864162114,336.347036144088
738297.54634689085651189089,-0.824711854406364,-5.83452864162114,336.396272672709
738297.54634698131121695042,-0.812402722251045,-5.82221950946582,336.470127465641
738297.54634707176592200994,-0.837020986561683,-5.84683777377646,336.408581804865
738297.54634716222062706947,-0.824711854406364,-5.83452864162114,336.482436597797
738297.54634725255891680717,-0.837020986561683,-5.84683777377646,336.543982258573
738297.54634734301362186670,-0.775475325785089,-5.80991037731051,336.531673126418
738297.54634743346832692623,-0.627765739921262,-5.48987294127221,336.617837051505
738297.54634752392303198576,-0.283110039572334,-4.7636341441084,336.470127465641
738297.54634761426132172346,0.0615456607765943,-4.25895972574033,336.05161697236
738297.54634770471602678299,-0.0738547929319132,-4.61592455824458,335.84236172572
738297.54634779517073184252,-0.87394838302764,-5.50218207342753,336.088544368826
738297.54634788562543690205,-1.52633238725954,-6.54845830662964,336.113162633137
738297.54634797596372663975,-1.40324106570635,-6.42536698507645,336.174708293914
738297.54634806641843169928,-1.15705842259997,-6.15456607765943,336.248563086845
738297.54634815687313675880,-0.947803175959553,-5.94531083101901,336.359345276243
738297.54634824732784181833,-0.837020986561683,-5.84683777377646,336.396272672709
738297.54634833766613155603,-0.824711854406364,-5.83452864162114,336.383963540554
738297.54634842812083661556,-0.812402722251045,-5.83452864162114,336.408581804865
738297.54634851857554167509,-0.787784457940408,-5.80991037731051,336.396272672709
738297.54634860903024673462,-0.775475325785089,-5.79760124515519,336.494745729952
738297.54634869936853647232,-0.775475325785089,-5.78529211299987,336.531673126418
738297.54634878982324153185,-0.787784457940408,-5.79760124515519,336.408581804865
738297.54634888027794659138,-0.76316619362977,-5.77298298084455,336.519363994263
738297.54634897073265165091,-0.76316619362977,-5.77298298084455,336.494745729952
738297.54634906107094138861,-0.738547929319132,-5.73605558437859,336.482436597797
738297.54634915152564644814,-0.726238797163813,-5.73605558437859,336.470127465641
738297.54634924198035150766,-0.701620532853175,-5.71143732006795,336.568600522884
738297.54634933243505656719,-0.713929665008494,-5.71143732006795,336.580909655039
738297.54634942277334630489,-0.689311400697857,-5.68681905575732,336.482436597797
738297.54634951322805136442,-0.677002268542538,-5.66220079144668,336.580909655039
738297.54634960368275642395,-0.664693136387219,-5.66220079144668,336.617837051505
738297.54634969413746148348,-0.640074872076581,-5.63758252713604,336.519363994263
738297.54634978447575122118,-0.640074872076581,-5.64989165929136,336.543982258573
738297.54634987493045628071,-0.640074872076581,-5.64989165929136,336.63014618366
738297.54634996538516134024,-0.627765739921262,-5.64989165929136,336.63014618366
738297.54635005583986639977,-0.615456607765943,-5.64989165929136,336.568600522884
738297.54635014617815613747,-0.627765739921262,-5.674509923602,336.568600522884
738297.54635023663286119699,-0.640074872076581,-5.68681905575732,336.580909655039
738297.54635032708756625652,-0.664693136387219,-5.71143732006795,336.556291390728
738297.54635041754227131605,-0.677002268542538,-5.72374645222327,336.494745729952
738297.54635050788056105375,-0.689311400697857,-5.73605558437859,336.494745729952
738297.54635059833526611328,-0.664693136387219,-5.69912818791264,336.531673126418
738297.54635068878997117281,-0.689311400697857,-5.72374645222327,336.494745729952
738297.54635077924467623234,-0.713929665008494,-5.73605558437859,336.494745729952
738297.54635086958296597004,-0.713929665008494,-5.74836471653391,336.531673126418
738297.54635096003767102957,-0.640074872076581,-5.66220079144668,336.519363994263
738297.54635105049237608910,-0.837020986561683,-5.85914690593178,336.445509201331
738297.54635114094708114862,-0.787784457940408,-5.82221950946582,336.260872219001
738297.54635123128537088633,-0.775475325785089,-5.79760124515519,336.359345276243
738297.54635132174007594585,-0.800093590095726,-5.83452864162114,336.408581804865
738297.54635141219478100538,-0.812402722251045,-5.84683777377646,336.433200069175
738297.54635150264948606491,-0.787784457940408,-5.80991037731051,336.457818333486
738297.54635159298777580261,-0.775475325785089,-5.80991037731051,336.445509201331
738297.54635168344248086214,-0.775475325785089,-5.80991037731051,336.408581804865
738297.54635177389718592167,-0.76316619362977,-5.79760124515519,336.445509201331
738297.54635186423547565937,-0.750857061474451,-5.77298298084455,336.457818333486
738297.54635195469018071890,-0.750857061474451,-5.79760124515519,336.359345276243
738297.54635204514488577843,-0.750857061474451,-5.77298298084455,336.445509201331
738297.54635213559959083796,-0.738547929319132,-5.77298298084455,336.359345276243
738297.54635222593788057566,-0.750857061474451,-5.78529211299987,336.371654408399
738297.54635231639258563519,-0.775475325785089,-5.79760124515519,336.457818333486
738297.54635240684729069471,-0.738547929319132,-5.76067384868923,336.470127465641
738297.54635249730199575424,-0.787784457940408,-5.82221950946582,336.371654408399
738297.54635258764028549194,-0.76316619362977,-5.78529211299987,336.457818333486
738297.54635267809499055147,-0.775475325785089,-5.82221950946582,336.482436597797
738297.54635276854969561100,-0.726238797163813,-5.76067384868923,336.445509201331
738297.54635285900440067053,-0.76316619362977,-5.80991037731051,336.445509201331
738297.54635294934269040823,-0.750857061474451,-5.78529211299987,336.507054862107
738297.54635303979739546776,-0.750857061474451,-5.80991037731051,336.494745729952
738297.54635313025210052729,-0.738547929319132,-5.80991037731051,336.359345276243
738297.54635322070680558681,-0.750857061474451,-5.83452864162114,336.408581804865
738297.54635331104509532452,-0.701620532853175,-5.79760124515519,336.396272672709
738297.54635340149980038404,-0.713929665008494,-5.78529211299987,336.371654408399
738297.54635349195450544357,-0.713929665008494,-5.77298298084455,336.383963540554
738297.54635358240921050310,-0.726238797163813,-5.78529211299987,336.310108747622
738297.54635367274750024080,-0.750857061474451,-5.82221950946582,336.383963540554
738297.54635376320220530033,-0.76316619362977,-5.80991037731051,336.408581804865
738297.54635385365691035986,-0.775475325785089,-5.80991037731051,336.383963540554
738297.54635394411161541939,-0.800093590095726,-5.82221950946582,336.396272672709
738297.54635403444990515709,-0.824711854406364,-5.84683777377646,336.383963540554
738297.54635412490461021662,-0.800093590095726,-5.82221950946582,336.470127465641
738297.54635421535931527615,-0.824711854406364,-5.84683777377646,336.445509201331
738297.54635430581402033567,-0.812402722251045,-5.83452864162114,336.482436597797
738297.54635439615231007338,-0.812402722251045,-5.82221950946582,336.507054862107
738297.54635448660701513290,-0.800093590095726,-5.80991037731051,336.396272672709
738297.54635457706172019243,-0.824711854406364,-5.82221950946582,336.494745729952
738297.54635466751642525196,-0.837020986561683,-5.83452864162114,336.42089093702
738297.54635475785471498966,-0.726238797163813,-5.71143732006795,336.531673126418
738297.54635484830942004919,-0.43081962543616,-5.14521724092329,336.543982258573
738297.54635493876412510872,-0.0123091321553189,-4.38205104729352,336.371654408399
738297.54635502921883016825,0.22156437879574,-4.32050538651692,335.953143915118
738297.54635511955711990595,-0.270800907417015,-4.86210720135095,335.940834782963
738297.54635521001182496548,-1.29245887630848,-6.15456607765943,336.063926104516
738297.54635530046653002501,-1.48940499079358,-6.48691264585304,336.088544368826
738297.54635539092123508453,-1.20629495122125,-6.21611173843603,336.273181351156
738297.54635548125952482224,-0.997039704580828,-6.00685649179561,336.322417879777
738297.54635557171422988176,-0.824711854406364,-5.85914690593178,336.470127465641
738297.54635566216893494129,-0.800093590095726,-5.82221950946582,336.507054862107
738297.54635575262364000082,-0.787784457940408,-5.82221950946582,336.371654408399
738297.54635584296192973852,-0.775475325785089,-5.82221950946582,336.457818333486
738297.54635593341663479805,-0.76316619362977,-5.80991037731051,336.470127465641
738297.54635602387133985758,-0.750857061474451,-5.78529211299987,336.396272672709
738297.54635611432604491711,-0.750857061474451,-5.78529211299987,336.482436597797
738297.54635620466433465481,-0.738547929319132,-5.78529211299987,336.482436597797
738297.54635629511903971434,-0.726238797163813,-5.78529211299987,336.457818333486
738297.54635638557374477386,-0.726238797163813,-5.77298298084455,336.470127465641
738297.54635647602844983339,-0.689311400697857,-5.73605558437859,336.482436597797
738297.54635656636673957109,-0.689311400697857,-5.73605558437859,336.482436597797
738297.54635665682144463062,-0.701620532853175,-5.73605558437859,336.470127465641
738297.54635674727614969015,-0.664693136387219,-5.69912818791264,336.507054862107
738297.54635683773085474968,-0.6523840042319,-5.68681905575732,336.531673126418
738297.54635692806914448738,-0.640074872076581,-5.68681905575732,336.457818333486
738297.54635701852384954691,-0.603147475610625,-5.64989165929136,336.543982258573
738297.54635710897855460644,-0.615456607765943,-5.66220079144668,336.507054862107
738297.54635719943325966597,-0.615456607765943,-5.66220079144668,336.470127465641
738297.54635728977154940367,-0.603147475610625,-5.674509923602,336.494745729952
738297.54635738022625446320,-0.590838343455306,-5.674509923602,336.482436597797
738297.54635747068095952272,-0.590838343455306,-5.66220079144668,336.482436597797
738297.54635756113566458225,-0.627765739921262,-5.71143732006795,336.494745729952
738297.54635765147395431995,-0.627765739921262,-5.71143732006795,336.433200069175
738297.54635774192865937948,-0.627765739921262,-5.69912818791264,336.457818333486
738297.54635783238336443901,-0.677002268542538,-5.74836471653391,336.42089093702
738297.54635792283806949854,-0.677002268542538,-5.73605558437859,336.408581804865
738297.54635801317635923624,-0.689311400697857,-5.74836471653391,336.433200069175
738297.54635810363106429577,-0.726238797163813,-5.78529211299987,336.396272672709
738297.54635819408576935530,-0.713929665008494,-5.77298298084455,336.187017426069
738297.54635828454047441483,-0.726238797163813,-5.78529211299987,336.248563086845
738297.54635837487876415253,-0.713929665008494,-5.77298298084455,336.408581804865
738297.54635846533346921206,-0.726238797163813,-5.78529211299987,336.445509201331
738297.54635855578817427158,-0.738547929319132,-5.79760124515519,336.457818333486
738297.54635864624287933111,-0.738547929319132,-5.78529211299987,336.396272672709
738297.54635873658116906881,-0.713929665008494,-5.77298298084455,336.482436597797
738297.54635882703587412834,-0.726238797163813,-5.79760124515519,336.470127465641
738297.54635891749057918787,-0.726238797163813,-5.77298298084455,336.408581804865
738297.54635900794528424740,-0.713929665008494,-5.77298298084455,336.383963540554
738297.54635909828357398510,-0.713929665008494,-5.77298298084455,336.445509201331
738297.54635918873827904463,-0.713929665008494,-5.77298298084455,336.470127465641
738297.54635927919298410416,-0.701620532853175,-5.76067384868923,336.396272672709
738297.54635936964768916368,-0.713929665008494,-5.76067384868923,336.383963540554
738297.54635945998597890139,-0.713929665008494,-5.78529211299987,336.396272672709
738297.54635955044068396091,-0.689311400697857,-5.74836471653391,336.396272672709
738297.54635964089538902044,-0.713929665008494,-5.77298298084455,336.383963540554
738297.54635973135009407997,-0.713929665008494,-5.76067384868923,336.396272672709
738297.54635982168838381767,-0.701620532853175,-5.76067384868923,336.396272672709
738297.54635991214308887720,-0.701620532853175,-5.76067384868923,336.297799615467
738297.54636000259779393673,-0.713929665008494,-5.77298298084455,336.322417879777
738297.54636009305249899626,-0.701620532853175,-5.74836471653391,336.322417879777
738297.54636018339078873396,-0.713929665008494,-5.77298298084455,336.285490483311
738297.54636027384549379349,-0.713929665008494,-5.77298298084455,336.334727011933
738297.54636036430019885302,-0.713929665008494,-5.78529211299987,336.334727011933
738297.54636045475490391254,-0.689311400697857,-5.76067384868923,336.347036144088
738297.54636054509319365025,-0.689311400697857,-5.77298298084455,336.273181351156
738297.54636063554789870977,-0.689311400697857,-5.78529211299987,336.371654408399
738297.54636072600260376930,-0.701620532853175,-5.80991037731051,336.371654408399
738297.54636081645730882883,-0.677002268542538,-5.78529211299987,336.371654408399
738297.54636090679559856653,-0.677002268542538,-5.79760124515519,336.260872219001
738297.54636099725030362606,-0.6523840042319,-5.78529211299987,336.334727011933
738297.54636108770500868559,-0.6523840042319,-5.74836471653391,336.347036144088
738297.54636117815971374512,-0.640074872076581,-5.73605558437859,336.297799615467
738297.54636126849800348282,-0.640074872076581,-5.73605558437859,336.359345276243
738297.54636135895270854235,-0.689311400697857,-5.78529211299987,336.383963540554
738297.54636144940741360188,-0.713929665008494,-5.77298298084455,336.383963540554
738297.54636153986211866140,-0.738547929319132,-5.79760124515519,336.371654408399
738297.54636163020040839911,-0.738547929319132,-5.79760124515519,336.359345276243
738297.54636172065511345863,-0.76316619362977,-5.82221950946582,336.248563086845
738297.54636181110981851816,-0.76316619362977,-5.80991037731051,336.199326558224
738297.54636190156452357769,-0.750857061474451,-5.80991037731051,336.371654408399
738297.54636199190281331539,-0.750857061474451,-5.78529211299987,336.396272672709
738297.54636208235751837492,-0.738547929319132,-5.79760124515519,336.396272672709
738297.54636217281222343445,-0.750857061474451,-5.78529211299987,336.383963540554
738297.54636226326692849398,-0.775475325785089,-5.80991037731051,336.470127465641
738297.54636235360521823168,-0.6523840042319,-5.68681905575732,336.568600522884
738297.54636244405992329121,-0.43081962543616,-5.20676290169988,336.482436597797
738297.54636253451462835073,-0.0123091321553189,-4.40666931160415,336.42089093702
738297.54636262496933341026,0.332346568193609,-4.00046795047863,336.297799615467
738297.54636271530762314796,0.307728303882972,-4.16048666849778,335.879289122186
738297.54636280576232820749,-0.406201361125523,-4.94827112643818,335.891598254341
738297.54636289621703326702,-1.42785933001699,-6.43767611723177,336.014689575894
738297.54636298667173832655,-1.18167668691061,-6.24073000274667,336.174708293914
738297.54636307701002806425,-0.984730572425509,-6.03147475610625,336.223944822535
738297.54636316746473312378,-0.738547929319132,-5.78529211299987,336.383963540554
738297.54636325791943818331,-0.750857061474451,-5.79760124515519,336.359345276243
738297.54636334825772792101,-0.787784457940408,-5.83452864162114,336.347036144088
738297.54636343871243298054,-0.713929665008494,-5.77298298084455,336.359345276243
738297.54636352916713804007,-0.738547929319132,-5.79760124515519,336.383963540554
738297.54636361962184309959,-0.713929665008494,-5.76067384868923,336.371654408399
738297.54636370996013283730,-0.689311400697857,-5.73605558437859,336.371654408399
738297.54636380041483789682,-0.664693136387219,-5.71143732006795,336.457818333486
738297.54636389086954295635,-0.750857061474451,-5.78529211299987,336.470127465641
738297.54636398132424801588,-0.689311400697857,-5.72374645222327,336.383963540554
738297.54636407166253775358,-0.627765739921262,-5.674509923602,336.482436597797
738297.54636416211724281311,-0.689311400697857,-5.72374645222327,336.482436597797
738297.54636425257194787264,-0.726238797163813,-5.74836471653391,336.470127465641
738297.54636434302665293217,-0.627765739921262,-5.64989165929136,336.507054862107
738297.54636443336494266987,-0.664693136387219,-5.71143732006795,336.519363994263
738297.54636452381964772940,-0.640074872076581,-5.674509923602,336.531673126418
738297.54636461427435278893,-0.627765739921262,-5.64989165929136,336.482436597797
738297.54636470472905784845,-0.627765739921262,-5.674509923602,336.568600522884
738297.54636479506734758615,-0.578529211299987,-5.6129642628254,336.568600522884
738297.54636488552205264568,-0.603147475610625,-5.66220079144668,336.531673126418
738297.54636497597675770521,-0.603147475610625,-5.66220079144668,336.556291390728
738297.54636506643146276474,-0.603147475610625,-5.674509923602,336.556291390728
738297.54636515676975250244,-0.615456607765943,-5.69912818791264,336.543982258573
738297.54636524722445756197,-0.640074872076581,-5.71143732006795,336.347036144088
738297.54636533767916262150,-0.615456607765943,-5.69912818791264,336.347036144088
738297.54636542813386768103,-0.689311400697857,-5.77298298084455,336.445509201331
738297.54636551847215741873,-0.664693136387219,-5.73605558437859,336.433200069175
738297.54636560892686247826,-0.726238797163813,-5.78529211299987,336.408581804865
738297.54636569938156753778,-0.750857061474451,-5.80991037731051,336.371654408399
738297.54636578983627259731,-0.76316619362977,-5.83452864162114,336.359345276243
738297.54636588017456233501,-0.775475325785089,-5.83452864162114,336.42089093702
738297.54636597062926739454,-0.738547929319132,-5.80991037731051,336.347036144088
738297.54636606108397245407,-0.76316619362977,-5.83452864162114,336.310108747622
738297.54636615153867751360,-0.812402722251045,-5.8714560380871,336.310108747622
738297.54636624187696725130,-0.750857061474451,-5.82221950946582,336.359345276243
738297.54636633233167231083,-0.76316619362977,-5.83452864162114,336.396272672709
