time_dn,ecg_projection_ll_ra_mV,ecg_projection_la_ra_mV,ecg_projection_vx_rl_mV
738546.47322998545132577419,-21.3532670064394,-14.1893520920438,-301.299859614856
738546.47323007590603083372,-21.288644062624,-14.1247291482284,-301.309091463973
738546.47323016636073589325,-21.307107760857,-14.1339609973449,-301.355250709555
738546.47323025681544095278,-21.3255714590899,-14.1339609973449,-301.336787011322
738546.47323034727014601231,-21.2147892696921,-14.0324106570635,-301.346018860439
738546.47323043760843575001,-21.288644062624,-14.0693380535295,-301.346018860439
738546.47323052806314080954,-21.1593981749931,-13.9493240150151,-301.281395916623
738546.47323061851784586906,-21.2240211188086,-13.9677877132481,-301.281395916623
738546.47323070897255092859,-21.0855433820612,-13.8385418256172,-301.216772972808
738546.47323079942725598812,-21.1409344767602,-13.8570055238502,-301.216772972808
738546.47323088988196104765,-21.0024567400128,-13.7369914853359,-301.226004821925
738546.47323098033666610718,-21.0578478347118,-13.7554551835688,-301.189077425459
738546.47323107067495584488,-20.9378337961974,-13.6631366924039,-301.216772972808
738546.47323116112966090441,-20.9932248908963,-13.7000640888699,-301.207541123691
738546.47323125158436596394,-20.9101382488479,-13.644672994171,-301.253700369274
738546.47323134203907102346,-20.9747611926634,-13.7092959379864,-301.189077425459
738546.47323143249377608299,-20.9562974944304,-13.7185277871029,-301.189077425459
738546.47323152294848114252,-21.0209204382458,-13.8016144291513,-301.189077425459
738546.47323161340318620205,-21.0486159855953,-13.8570055238502,-301.216772972808
738546.47323170385789126158,-21.1040070802942,-13.9308603167821,-301.226004821925
738546.47323179419618099928,-21.1686300241096,-13.9954832605976,-301.281395916623
738546.47323188465088605881,-21.1870937223426,-14.0324106570635,-301.152150028993
738546.47323197510559111834,-21.251716666158,-14.1062654499954,-301.272164067507
738546.47323206556029617786,-21.233252967925,-14.0970336008789,-301.364482558672
738546.47323215601500123739,-21.3163396099734,-14.1616565446944,-301.281395916623
738546.47323224646970629692,-21.2609485152745,-14.1247291482284,-301.364482558672
738546.47323233692441135645,-21.3348033082064,-14.1801202429273,-301.327555162206
738546.47323242726270109415,-21.288644062624,-14.1431928464614,-301.346018860439
738546.47323251771740615368,-21.3440351573229,-14.1893520920438,-301.318323313089
738546.47323260817211121321,-21.2978759117405,-14.1524246955779,-301.382946256905
738546.47323269862681627274,-21.3348033082064,-14.1801202429273,-301.336787011322
738546.47323278908152133226,-21.3163396099734,-14.1616565446944,-301.318323313089
738546.47323287953622639179,-21.3163396099734,-14.1708883938108,-301.373714407788
738546.47323296999093145132,-21.3163396099734,-14.1708883938108,-301.346018860439
738546.47323306032922118902,-21.2978759117405,-14.1616565446944,-301.382946256905
738546.47323315078392624855,-21.3348033082064,-14.1801202429273,-301.327555162206
738546.47323324123863130808,-21.2978759117405,-14.1524246955779,-301.235236671041
738546.47323333169333636761,-21.3532670064394,-14.1893520920438,-301.26293221839
738546.47323342214804142714,-21.2794122135075,-14.1431928464614,-301.327555162206
738546.47323351260274648666,-21.3532670064394,-14.1985839411603,-301.355250709555
738546.47323360305745154619,-21.288644062624,-14.1339609973449,-301.346018860439
738546.47323369339574128389,-21.3717307046724,-14.1985839411603,-301.309091463973
738546.47323378385044634342,-21.2978759117405,-14.1431928464614,-301.336787011322
738546.47323387430515140295,-21.3809625537889,-14.2170476393933,-301.373714407788
738546.47323396475985646248,-21.3348033082064,-14.1708883938108,-301.327555162206
738546.47323405521456152201,-21.3348033082064,-14.1893520920438,-301.346018860439
738546.47323414566926658154,-21.3440351573229,-14.1893520920438,-301.346018860439
738546.47323423612397164106,-21.3348033082064,-14.1801202429273,-301.364482558672
738546.47323432646226137877,-21.3717307046724,-14.2078157902768,-301.253700369274
738546.47323441691696643829,-21.3255714590899,-14.1801202429273,-301.336787011322
738546.47323450737167149782,-21.3901944029054,-14.2262794885098,-301.364482558672
738546.47323459782637655735,-21.3255714590899,-14.1801202429273,-301.355250709555
738546.47323468828108161688,-21.4086581011383,-14.2355113376263,-301.346018860439
738546.47323477873578667641,-21.3348033082064,-14.1801202429273,-301.392178106021
738546.47323486919049173594,-21.4271217993713,-14.2447431867428,-301.382946256905
738546.47323495964519679546,-21.3255714590899,-14.1801202429273,-301.327555162206
738546.47323504998348653316,-21.4271217993713,-14.2539750358592,-301.355250709555
738546.47323514043819159269,-21.3255714590899,-14.1801202429273,-301.401409955138
738546.47323523089289665222,-21.4271217993713,-14.2539750358592,-301.29062776574
738546.47323532134760171175,-21.3255714590899,-14.1801202429273,-301.355250709555
738546.47323541180230677128,-21.4178899502548,-14.2632068849757,-301.142918179876
738546.47323550225701183081,-21.3348033082064,-14.1893520920438,-301.216772972808
738546.47323559271171689034,-21.4271217993713,-14.2539750358592,-301.346018860439
738546.47323568305000662804,-21.3532670064394,-14.1985839411603,-301.29062776574
738546.47323577350471168756,-21.4178899502548,-14.2539750358592,-301.281395916623
738546.47323586395941674709,-21.4271217993713,-14.2539750358592,-301.244468520157
738546.47323595441412180662,-21.3440351573229,-14.1985839411603,-301.281395916623
738546.47323604486882686615,-21.4363536484878,-14.2632068849757,-301.281395916623
738546.47323613532353192568,-21.3532670064394,-14.1893520920438,-301.244468520157
738546.47323622577823698521,-21.4363536484878,-14.2632068849757,-301.346018860439
738546.47323631611652672291,-21.3532670064394,-14.1893520920438,-301.346018860439
738546.47323640657123178244,-21.4548173467208,-14.2632068849757,-301.364482558672
738546.47323649702593684196,-21.3532670064394,-14.1893520920438,-301.336787011322
738546.47323658748064190149,-21.4548173467208,-14.2632068849757,-301.346018860439
738546.47323667793534696102,-21.3440351573229,-14.1801202429273,-301.382946256905
738546.47323676839005202055,-21.4363536484878,-14.2539750358592,-301.346018860439
738546.47323685884475708008,-21.3624988555559,-14.1985839411603,-301.392178106021
738546.47323694918304681778,-21.4455854976043,-14.2539750358592,-301.382946256905
738546.47323703963775187731,-21.3809625537889,-14.1985839411603,-301.327555162206
738546.47323713009245693684,-21.4363536484878,-14.2447431867428,-301.355250709555
738546.47323722054716199636,-21.3901944029054,-14.2078157902768,-301.373714407788
738546.47323731100186705589,-21.4086581011383,-14.2355113376263,-301.29062776574
738546.47323740145657211542,-21.3901944029054,-14.2170476393933,-301.272164067507
738546.47323749191127717495,-21.3901944029054,-14.2170476393933,-301.309091463973
738546.47323758224956691265,-21.3717307046724,-14.1985839411603,-301.336787011322
738546.47323767270427197218,-21.3532670064394,-14.1985839411603,-301.364482558672
738546.47323776315897703171,-21.4178899502548,-14.2355113376263,-301.364482558672
738546.47323785361368209124,-21.3255714590899,-14.1339609973449,-301.309091463973
738546.47323794406838715076,-21.3624988555559,-14.1524246955779,-301.299859614856
738546.47323803452309221029,-21.2424848170415,-14.0693380535295,-301.253700369274
738546.47323812497779726982,-21.3440351573229,-14.1431928464614,-301.272164067507
738546.47323821543250232935,-21.3348033082064,-14.1154972991119,-301.318323313089
738546.47323830577079206705,-21.4178899502548,-14.1801202429273,-301.281395916623
738546.47323839622549712658,-21.3809625537889,-14.1708883938108,-301.29062776574
738546.47323848668020218611,-21.4271217993713,-14.2355113376263,-301.281395916623
738546.47323857713490724564,-21.4455854976043,-14.2262794885098,-301.336787011322
738546.47323866758961230516,-21.4732810449538,-14.2447431867428,-301.364482558672
738546.47323875804431736469,-21.4732810449538,-14.2355113376263,-301.281395916623
738546.47323884849902242422,-21.4455854976043,-14.2355113376263,-301.327555162206
738546.47323893883731216192,-21.4732810449538,-14.2539750358592,-301.189077425459
738546.47323902929201722145,-21.4548173467208,-14.2262794885098,-301.216772972808
738546.47323911974672228098,-21.4917447431867,-14.2632068849757,-301.327555162206
738546.47323921020142734051,-21.4455854976043,-14.2170476393933,-301.364482558672
738546.47323930065613240004,-21.6486861781671,-14.2724387340922,-301.401409955138
738546.47323939111083745956,-21.5748313852351,-14.1524246955779,-301.226004821925
738546.47323948156554251909,-21.3809625537889,-13.8570055238502,-301.26293221839
738546.47323957190383225679,-21.0024567400128,-13.5523545030061,-301.226004821925
738546.47323966235853731632,-20.1623584704123,-13.1830805383465,-301.069063386944
738546.47323975281324237585,-19.7099978637043,-13.4969634083071,-301.032135990478
738546.47323984326794743538,-20.6885738700522,-14.1154972991119,-301.281395916623
738546.47323993372265249491,-21.3255714590899,-14.2355113376263,-301.401409955138
738546.47324002417735755444,-21.5286721396527,-14.1247291482284,-301.327555162206
738546.47324011463206261396,-21.5009765923032,-14.1062654499954,-301.346018860439
738546.47324020497035235167,-21.4178899502548,-14.1431928464614,-301.373714407788
738546.47324029542505741119,-21.4640491958373,-14.2262794885098,-301.355250709555
738546.47324038587976247072,-21.4086581011383,-14.1985839411603,-301.336787011322
738546.47324047633446753025,-21.4732810449538,-14.2447431867428,-301.410641804254
738546.47324056678917258978,-21.3994262520219,-14.1985839411603,-301.392178106021
738546.47324065724387764931,-21.4640491958373,-14.2355113376263,-301.327555162206
738546.47324074769858270884,-21.3901944029054,-14.1801202429273,-301.382946256905
738546.47324083803687244654,-21.4640491958373,-14.2262794885098,-301.355250709555
738546.47324092849157750607,-21.3717307046724,-14.1708883938108,-301.327555162206
738546.47324101894628256559,-21.4455854976043,-14.2262794885098,-301.410641804254
738546.47324110940098762512,-21.3348033082064,-14.1524246955779,-301.346018860439
738546.47324119985569268465,-21.4178899502548,-14.1985839411603,-301.318323313089
738546.47324129031039774418,-21.307107760857,-14.1154972991119,-301.336787011322
738546.47324138076510280371,-21.3809625537889,-14.1616565446944,-301.318323313089
738546.47324147121980786324,-21.3624988555559,-14.1247291482284,-301.327555162206
738546.47324156155809760094,-21.2978759117405,-14.060106204413,-301.26293221839
738546.47324165201280266047,-21.3255714590899,-14.060106204413,-301.235236671041
738546.47324174246750771999,-21.233252967925,-13.9677877132481,-301.226004821925
738546.47324183292221277952,-21.2609485152745,-13.9677877132481,-301.226004821925
738546.47324192337691783905,-21.1501663258766,-13.8662373729667,-301.216772972808
738546.47324201383162289858,-21.1870937223426,-13.8662373729667,-301.235236671041
738546.47324210428632795811,-21.0578478347118,-13.7646870326853,-301.179845576342
738546.47324219462461769581,-21.1132389294107,-13.7739188818018,-301.161381878109
738546.47324228507932275534,-20.9839930417798,-13.6816003906369,-301.161381878109
738546.47324237553402781487,-21.0486159855953,-13.7092959379864,-301.179845576342
738546.47324246598873287439,-20.9470656453139,-13.644672994171,-301.078295236061
738546.47324255644343793392,-21.0116885891293,-13.7092959379864,-301.078295236061
738546.47324264689814299345,-20.9470656453139,-13.6816003906369,-301.207541123691
738546.47324273735284805298,-21.0578478347118,-13.7739188818018,-301.161381878109
738546.47324282769113779068,-21.0301522873623,-13.8016144291513,-301.26293221839
738546.47324291814584285021,-21.1409344767602,-13.9123966185491,-301.272164067507
738546.47324300860054790974,-21.1224707785272,-13.9400921658986,-301.244468520157
738546.47324309905525296926,-21.2240211188086,-14.0139469588305,-301.207541123691
738546.47324318950995802879,-21.2424848170415,-14.0324106570635,-301.207541123691
738546.47324327996466308832,-21.233252967925,-14.04164250618,-301.207541123691
738546.47324337041936814785,-21.3532670064394,-14.1247291482284,-301.216772972808
738546.47324346075765788555,-21.2978759117405,-14.0970336008789,-301.26293221839
738546.47324355121236294508,-21.4086581011383,-14.1616565446944,-301.253700369274
738546.47324364166706800461,-21.3255714590899,-14.1154972991119,-301.309091463973
738546.47324373212177306414,-21.4271217993713,-14.1801202429273,-301.244468520157
738546.47324382257647812366,-21.3440351573229,-14.1339609973449,-301.26293221839
738546.47324391303118318319,-21.4271217993713,-14.1801202429273,-301.327555162206
738546.47324400348588824272,-21.3532670064394,-14.1339609973449,-301.281395916623
738546.47324409382417798042,-21.4178899502548,-14.1708883938108,-301.336787011322
738546.47324418427888303995,-21.3624988555559,-14.1339609973449,-301.373714407788
738546.47324427473358809948,-21.4086581011383,-14.1616565446944,-301.318323313089
738546.47324436518829315901,-21.3809625537889,-14.1339609973449,-301.309091463973
738546.47324445564299821854,-21.3994262520219,-14.1616565446944,-301.346018860439
738546.47324454609770327806,-21.3809625537889,-14.1524246955779,-301.346018860439
738546.47324463655240833759,-21.3994262520219,-14.1524246955779,-301.272164067507
738546.47324472700711339712,-21.4086581011383,-14.1616565446944,-301.355250709555
738546.47324481734540313482,-21.3717307046724,-14.1431928464614,-301.336787011322
738546.47324490780010819435,-21.4086581011383,-14.1708883938108,-301.272164067507
738546.47324499825481325388,-21.3717307046724,-14.1524246955779,-301.318323313089
738546.47324508870951831341,-21.4363536484878,-14.1708883938108,-301.355250709555
738546.47324517916422337294,-21.3624988555559,-14.1431928464614,-301.336787011322
738546.47324526961892843246,-21.4363536484878,-14.1893520920438,-301.26293221839
738546.47324536007363349199,-21.3809625537889,-14.1524246955779,-301.346018860439
738546.47324545041192322969,-21.4455854976043,-14.1985839411603,-301.327555162206
738546.47324554086662828922,-21.4086581011383,-14.1801202429273,-301.272164067507
738546.47324563132133334875,-21.4455854976043,-14.2078157902768,-301.336787011322
738546.47324572177603840828,-21.4363536484878,-14.1893520920438,-301.373714407788
738546.47324581223074346781,-21.4455854976043,-14.1985839411603,-301.309091463973
738546.47324590268544852734,-21.4640491958373,-14.2078157902768,-301.336787011322
738546.47324599314015358686,-21.4455854976043,-14.1893520920438,-301.244468520157
738546.47324608347844332457,-21.4917447431867,-14.2078157902768,-301.235236671041
738546.47324617393314838409,-21.4455854976043,-14.1893520920438,-301.299859614856
738546.47324626438785344362,-21.4917447431867,-14.2170476393933,-301.364482558672
738546.47324635484255850315,-21.4363536484878,-14.1893520920438,-301.382946256905
738546.47324644529726356268,-21.5009765923032,-14.2262794885098,-301.226004821925
738546.47324653575196862221,-21.4271217993713,-14.1893520920438,-301.336787011322
738546.47324662620667368174,-21.5286721396527,-14.2355113376263,-301.281395916623
738546.47324671654496341944,-21.4271217993713,-14.1893520920438,-301.26293221839
738546.47324680699966847897,-21.5286721396527,-14.2355113376263,-301.281395916623
738546.47324689745437353849,-21.4363536484878,-14.1893520920438,-301.244468520157
738546.47324698790907859802,-21.5471358378857,-14.2447431867428,-301.26293221839
738546.47324707836378365755,-21.5009765923032,-14.2262794885098,-301.26293221839
738546.47324716881848871708,-21.4825128940703,-14.2170476393933,-301.26293221839
738546.47324725927319377661,-21.5009765923032,-14.2262794885098,-301.29062776574
738546.47324734961148351431,-21.4732810449538,-14.2078157902768,-301.299859614856
738546.47324744006618857384,-21.5194402905362,-14.2262794885098,-301.299859614856
738546.47324753052089363337,-21.4548173467208,-14.1985839411603,-301.309091463973
738546.47324762097559869289,-21.5286721396527,-14.2355113376263,-301.318323313089
738546.47324771143030375242,-21.4640491958373,-14.1985839411603,-301.299859614856
738546.47324780188500881195,-21.5379039887692,-14.2447431867428,-301.355250709555
738546.47324789233971387148,-21.4363536484878,-14.1893520920438,-301.318323313089
738546.47324798279441893101,-21.5009765923032,-14.2262794885098,-301.336787011322
738546.47324807313270866871,-21.3901944029054,-14.1893520920438,-301.327555162206
738546.47324816358741372824,-21.5194402905362,-14.2355113376263,-301.327555162206
738546.47324825404211878777,-21.4178899502548,-14.1431928464614,-301.309091463973
738546.47324834449682384729,-21.4640491958373,-14.1616565446944,-301.373714407788
738546.47324843495152890682,-21.3348033082064,-14.0970336008789,-301.346018860439
738546.47324852540623396635,-21.4548173467208,-14.1708883938108,-301.299859614856
738546.47324861586093902588,-21.4178899502548,-14.1339609973449,-301.336787011322
738546.47324870619922876358,-21.5102084414197,-14.1893520920438,-301.346018860439
738546.47324879665393382311,-21.4548173467208,-14.1801202429273,-301.373714407788
738546.47324888710863888264,-21.4548173467208,-14.1893520920438,-301.309091463973
738546.47324897756334394217,-21.5563676870022,-14.2539750358592,-301.373714407788
738546.47324906801804900169,-21.4825128940703,-14.2262794885098,-301.392178106021
738546.47324915847275406122,-21.5655995361187,-14.2816705832087,-301.318323313089
738546.47324924892745912075,-21.4640491958373,-14.2262794885098,-301.364482558672
738546.47324933926574885845,-21.5840632343516,-14.2816705832087,-301.364482558672
738546.47324942972045391798,-21.4732810449538,-14.2262794885098,-301.346018860439
738546.47324952017515897751,-21.5748313852351,-14.2724387340922,-301.29062776574
738546.47324961062986403704,-21.4825128940703,-14.2262794885098,-301.281395916623
738546.47324970108456909657,-21.6948454237495,-14.2909024323252,-301.336787011322
738546.47324979153927415609,-21.6671498764,-14.1893520920438,-301.346018860439
738546.47324988199397921562,-21.5655995361187,-13.9954832605976,-301.318323313089
738546.47324997233226895332,-20.8455153050325,-13.4692678609577,-301.189077425459
738546.47325006278697401285,-19.9407940916166,-13.192312387463,-301.041367839595
738546.47325015324167907238,-19.8761711478011,-13.7000640888699,-301.152150028993
738546.47325024369638413191,-20.9470656453139,-14.2539750358592,-301.309091463973
738546.47325033415108919144,-21.4640491958373,-14.2447431867428,-301.327555162206
738546.47325042460579425097,-21.5932950834681,-14.0970336008789,-301.373714407788
738546.47325051506049931049,-21.5563676870022,-14.1062654499954,-301.26293221839
738546.47325060539878904819,-21.5102084414197,-14.1708883938108,-301.272164067507
738546.47325069585349410772,-21.5102084414197,-14.2078157902768,-301.272164067507
738546.47325078630819916725,-21.4640491958373,-14.1708883938108,-301.272164067507
738546.47325087676290422678,-21.5009765923032,-14.1893520920438,-301.281395916623
738546.47325096721760928631,-21.3994262520219,-14.1339609973449,-301.299859614856
738546.47325105767231434584,-21.4825128940703,-14.1893520920438,-301.29062776574
738546.47325114812701940536,-21.4917447431867,-14.1985839411603,-301.253700369274
738546.47325123858172446489,-21.5286721396527,-14.2078157902768,-301.253700369274
738546.47325132892001420259,-21.4086581011383,-14.1247291482284,-301.253700369274
738546.47325141937471926212,-21.5194402905362,-14.2355113376263,-301.253700369274
738546.47325150982942432165,-21.5379039887692,-14.2539750358592,-301.244468520157
738546.47325160028412938118,-21.5286721396527,-14.2262794885098,-301.26293221839
738546.47325169073883444071,-21.5009765923032,-14.1801202429273,-301.309091463973
738546.47325178119353950024,-21.4363536484878,-14.1154972991119,-301.272164067507
738546.47325187164824455976,-21.3901944029054,-14.060106204413,-301.281395916623
738546.47325196198653429747,-21.3163396099734,-14.004715109714,-301.309091463973
738546.47325205244123935699,-21.3901944029054,-14.04164250618,-301.26293221839
738546.47325214289594441652,-21.307107760857,-13.9862514114811,-301.226004821925
738546.47325223335064947605,-21.3348033082064,-13.9677877132481,-301.235236671041
738546.47325232380535453558,-21.2147892696921,-13.8570055238502,-301.235236671041
738546.47325241426005959511,-21.2147892696921,-13.8200781273843,-301.272164067507
738546.47325250471476465464,-21.0947752311777,-13.7185277871029,-301.272164067507
738546.47325259505305439234,-21.1132389294107,-13.7185277871029,-301.244468520157
738546.47325268550775945187,-21.0486159855953,-13.6539048432875,-301.253700369274
738546.47325277596246451139,-21.0578478347118,-13.6631366924039,-301.244468520157
738546.47325286641716957092,-21.0670796838282,-13.6816003906369,-301.244468520157
738546.47325295687187463045,-21.0301522873623,-13.644672994171,-301.244468520157
738546.47325304732657968998,-21.0486159855953,-13.6908322397534,-301.152150028993
738546.47325313778128474951,-21.0209204382458,-13.6908322397534,-301.152150028993
738546.47325322811957448721,-21.1132389294107,-13.7831507309183,-301.29062776574
738546.47325331857427954674,-21.1409344767602,-13.8385418256172,-301.29062776574
738546.47325340902898460627,-21.2240211188086,-13.9216284676656,-301.281395916623
738546.47325349948368966579,-21.2055574205756,-13.9585558641316,-301.309091463973
738546.47325358993839472532,-21.2794122135075,-13.9954832605976,-301.346018860439
738546.47325368039309978485,-21.2978759117405,-14.023178807947,-301.309091463973
738546.47325377084780484438,-21.5102084414197,-14.1985839411603,-301.382946256905
738546.47325386118609458208,-21.3994262520219,-14.1431928464614,-301.373714407788
738546.47325395164079964161,-21.4548173467208,-14.1616565446944,-301.318323313089
738546.47325404209550470114,-21.3809625537889,-14.1154972991119,-301.346018860439
738546.47325413255020976067,-21.4732810449538,-14.1801202429273,-301.392178106021
738546.47325422300491482019,-21.3809625537889,-14.1247291482284,-301.382946256905
738546.47325431345961987972,-21.4548173467208,-14.1616565446944,-301.346018860439
738546.47325440391432493925,-21.3994262520219,-14.1339609973449,-301.299859614856
738546.47325449436902999878,-21.3717307046724,-14.1154972991119,-301.281395916623
738546.47325458470731973648,-21.4548173467208,-14.1616565446944,-301.272164067507
738546.47325467516202479601,-21.3809625537889,-14.1247291482284,-301.26293221839
738546.47325476561672985554,-21.4548173467208,-14.1801202429273,-301.272164067507
738546.47325485607143491507,-21.4086581011383,-14.1431928464614,-301.281395916623
738546.47325494652613997459,-21.5379039887692,-14.2355113376263,-301.29062776574
738546.47325503698084503412,-21.3532670064394,-14.078569902646,-301.226004821925
738546.47325512743555009365,-21.4271217993713,-14.0970336008789,-301.235236671041
738546.47325521777383983135,-21.4640491958373,-14.1801202429273,-301.253700369274
738546.47325530822854489088,-21.5194402905362,-14.2170476393933,-301.244468520157
738546.47325539868324995041,-21.4732810449538,-14.1893520920438,-301.253700369274
738546.47325548913795500994,-21.5194402905362,-14.1985839411603,-301.281395916623
738546.47325557959266006947,-21.4178899502548,-14.1247291482284,-301.272164067507
738546.47325567004736512899,-21.5009765923032,-14.1893520920438,-301.281395916623
738546.47325576050207018852,-21.5009765923032,-14.1985839411603,-301.299859614856
738546.47325585084035992622,-21.5471358378857,-14.2170476393933,-301.29062776574
738546.47325594129506498575,-21.4363536484878,-14.1154972991119,-301.29062776574
738546.47325603174977004528,-21.5194402905362,-14.2078157902768,-301.281395916623
738546.47325612220447510481,-21.4825128940703,-14.1431928464614,-301.336787011322
738546.47325621265918016434,-21.5102084414197,-14.1985839411603,-301.355250709555
738546.47325630311388522387,-21.5102084414197,-14.1893520920438,-301.327555162206
738546.47325639356859028339,-21.4548173467208,-14.1431928464614,-301.272164067507
738546.47325648390688002110,-21.5932950834681,-14.2539750358592,-301.336787011322
738546.47325657436158508062,-21.4271217993713,-14.1339609973449,-301.26293221839
738546.47325666481629014015,-21.5840632343516,-14.2539750358592,-301.170613727226
738546.47325675527099519968,-21.5102084414197,-14.1801202429273,-301.327555162206
738546.47325684572570025921,-21.5286721396527,-14.2078157902768,-301.355250709555
738546.47325693618040531874,-21.4640491958373,-14.1708883938108,-301.346018860439
738546.47325702663511037827,-21.5655995361187,-14.2355113376263,-301.318323313089
738546.47325711697340011597,-21.5563676870022,-14.2170476393933,-301.346018860439
738546.47325720742810517550,-21.5286721396527,-14.1801202429273,-301.346018860439
738546.47325729788281023502,-21.4640491958373,-14.1247291482284,-301.299859614856
738546.47325738833751529455,-21.5840632343516,-14.2447431867428,-301.355250709555
738546.47325747879222035408,-21.4825128940703,-14.1616565446944,-301.382946256905
738546.47325756924692541361,-21.4732810449538,-14.1431928464614,-301.253700369274
738546.47325765970163047314,-21.5379039887692,-14.1893520920438,-301.336787011322
738546.47325775003992021084,-21.5748313852351,-14.2078157902768,-301.346018860439
738546.47325784049462527037,-21.5286721396527,-14.1801202429273,-301.336787011322
738546.47325793094933032990,-21.4917447431867,-14.1708883938108,-301.355250709555
738546.47325802140403538942,-21.5655995361187,-14.2078157902768,-301.364482558672
738546.47325811185874044895,-21.4548173467208,-14.1154972991119,-301.355250709555
738546.47325820231344550848,-21.5563676870022,-14.2170476393933,-301.272164067507
738546.47325829276815056801,-21.3994262520219,-14.0970336008789,-301.336787011322
738546.47325838322285562754,-21.5194402905362,-14.2078157902768,-301.346018860439
738546.47325847356114536524,-21.5471358378857,-14.1985839411603,-301.327555162206
738546.47325856401585042477,-21.5009765923032,-14.1524246955779,-301.373714407788
738546.47325865447055548429,-21.3809625537889,-14.04164250618,-301.346018860439
738546.47325874492526054382,-21.4271217993713,-14.078569902646,-301.346018860439
738546.47325883537996560335,-21.5471358378857,-14.1893520920438,-301.309091463973
738546.47325892583467066288,-21.4548173467208,-14.0970336008789,-301.327555162206
738546.47325901628937572241,-21.5194402905362,-14.1616565446944,-301.281395916623
738546.47325910662766546011,-21.5194402905362,-14.1801202429273,-301.235236671041
738546.47325919708237051964,-21.6209906308176,-14.2539750358592,-301.253700369274
738546.47325928753707557917,-21.5286721396527,-14.2078157902768,-301.272164067507
738546.47325937799178063869,-21.6117587817011,-14.2539750358592,-301.29062776574
738546.47325946844648569822,-21.4732810449538,-14.1247291482284,-301.235236671041
738546.47325955890119075775,-21.5655995361187,-14.1893520920438,-301.299859614856
738546.47325964935589581728,-21.6117587817011,-14.2539750358592,-301.346018860439
738546.47325973969418555498,-21.6948454237495,-14.3001342814417,-301.29062776574
738546.47325983014889061451,-21.5379039887692,-14.1801202429273,-301.346018860439
738546.47325992060359567404,-21.7502365184484,-14.2262794885098,-301.419873653371
738546.47326001105830073357,-21.7133091219825,-14.1247291482284,-301.401409955138
738546.47326010151300579309,-21.6763817255165,-13.9954832605976,-301.309091463973
738546.47326019196771085262,-21.1686300241096,-13.4877315591906,-301.041367839595
738546.47326028242241591215,-20.2177495651112,-13.0169072542497,-301.059831537828
738546.47326037276070564985,-19.8854029969176,-13.4046449171422,-301.161381878109
738546.47326046321541070938,-20.7993560594501,-14.0693380535295,-301.226004821925
738546.47326055367011576891,-21.6025269325846,-14.3555253761406,-301.382946256905
738546.47326064412482082844,-21.685613574633,-14.1154972991119,-301.382946256905
738546.47326073457952588797,-21.7502365184484,-14.1247291482284,-301.272164067507
738546.47326082503423094749,-21.5655995361187,-14.0970336008789,-301.272164067507
738546.47326091548893600702,-21.6671498764,-14.2539750358592,-301.29062776574
738546.47326100582722574472,-21.5655995361187,-14.1893520920438,-301.29062776574
738546.47326109628193080425,-21.6486861781671,-14.2447431867428,-301.355250709555
738546.47326118673663586378,-21.5379039887692,-14.1893520920438,-301.355250709555
738546.47326127719134092331,-21.5840632343516,-14.2078157902768,-301.373714407788
738546.47326136764604598284,-21.4455854976043,-14.1154972991119,-301.327555162206
738546.47326145810075104237,-21.6763817255165,-14.2909024323252,-301.364482558672
738546.47326154855545610189,-21.5748313852351,-14.2262794885098,-301.410641804254
738546.47326163901016116142,-21.6025269325846,-14.2355113376263,-301.336787011322
738546.47326172934845089912,-21.4917447431867,-14.1431928464614,-301.382946256905
738546.47326181980315595865,-21.5840632343516,-14.1985839411603,-301.355250709555
738546.47326191025786101818,-21.5748313852351,-14.1893520920438,-301.355250709555
738546.47326200071256607771,-21.4917447431867,-14.1247291482284,-301.318323313089
738546.47326209116727113724,-21.5840632343516,-14.1524246955779,-301.346018860439
738546.47326218162197619677,-21.4086581011383,-13.9954832605976,-301.346018860439
738546.47326227207668125629,-21.5379039887692,-14.060106204413,-301.253700369274
738546.47326236241497099400,-21.4178899502548,-13.9585558641316,-301.272164067507
738546.47326245286967605352,-21.5102084414197,-13.9770195623646,-301.336787011322
738546.47326254332438111305,-21.3717307046724,-13.8662373729667,-301.29062776574
738546.47326263377908617258,-21.3348033082064,-13.7739188818018,-301.216772972808
738546.47326272423379123211,-21.233252967925,-13.6723685415204,-301.198309274575
738546.47326281468849629164,-21.3348033082064,-13.7185277871029,-301.198309274575
738546.47326290514320135117,-21.1778618732261,-13.5800500503555,-301.161381878109
738546.47326299548149108887,-21.2609485152745,-13.626209295938,-301.152150028993
738546.47326308593619614840,-21.1593981749931,-13.5615863521226,-301.189077425459
738546.47326317639090120792,-21.233252967925,-13.6169774468215,-301.189077425459
738546.47326326684560626745,-21.2147892696921,-13.6539048432875,-301.179845576342
738546.47326335730031132698,-21.270180364391,-13.7277596362194,-301.189077425459
738546.47326344775501638651,-21.3255714590899,-13.8108462782678,-301.170613727226
738546.47326353820972144604,-21.3532670064394,-13.8754692220832,-301.198309274575
738546.47326362854801118374,-21.4178899502548,-13.9400921658986,-301.032135990478
738546.47326371900271624327,-21.4086581011383,-13.9677877132481,-301.069063386944
738546.47326380945742130280,-21.5102084414197,-14.0508743552965,-301.216772972808
738546.47326389991212636232,-21.4917447431867,-14.078569902646,-301.207541123691
738546.47326399036683142185,-21.6025269325846,-14.1524246955779,-301.207541123691
738546.47326408082153648138,-21.4917447431867,-14.0970336008789,-301.244468520157
738546.47326417127624154091,-21.6486861781671,-14.2170476393933,-301.29062776574
738546.47326426161453127861,-21.5932950834681,-14.1801202429273,-301.281395916623
738546.47326435206923633814,-21.6117587817011,-14.1893520920438,-301.355250709555
738546.47326444252394139767,-21.5932950834681,-14.1801202429273,-301.336787011322
738546.47326453297864645720,-21.6486861781671,-14.2262794885098,-301.26293221839
738546.47326462343335151672,-21.6117587817011,-14.1801202429273,-301.272164067507
738546.47326471388805657625,-21.5655995361187,-14.1524246955779,-301.272164067507
738546.47326480434276163578,-21.6486861781671,-14.2262794885098,-301.26293221839
738546.47326489479746669531,-21.6117587817011,-14.1893520920438,-301.244468520157
738546.47326498513575643301,-21.6209906308176,-14.1708883938108,-301.299859614856
738546.47326507559046149254,-21.6117587817011,-14.1893520920438,-301.26293221839
738546.47326516604516655207,-21.6671498764,-14.2078157902768,-301.299859614856
738546.47326525649987161160,-21.5932950834681,-14.1616565446944,-301.29062776574
738546.47326534695457667112,-21.6579180272835,-14.1985839411603,-301.281395916623
738546.47326543740928173065,-21.5655995361187,-14.1431928464614,-301.29062776574
738546.47326552786398679018,-21.6486861781671,-14.1801202429273,-301.318323313089
738546.47326561820227652788,-21.5471358378857,-14.0970336008789,-301.336787011322
738546.47326570865698158741,-21.5932950834681,-14.1339609973449,-301.226004821925
738546.47326579911168664694,-21.6117587817011,-14.1431928464614,-301.318323313089
738546.47326588956639170647,-21.6486861781671,-14.1801202429273,-301.29062776574
738546.47326598002109676600,-21.6579180272835,-14.1985839411603,-301.281395916623
738546.47326607047580182552,-21.6302224799341,-14.1801202429273,-301.309091463973
738546.47326616093050688505,-21.685613574633,-14.2262794885098,-301.346018860439
738546.47326625126879662275,-21.6209906308176,-14.1801202429273,-301.281395916623
738546.47326634172350168228,-21.6763817255165,-14.2262794885098,-301.29062776574
738546.47326643217820674181,-21.6209906308176,-14.1801202429273,-301.318323313089
738546.47326652263291180134,-21.6671498764,-14.2078157902768,-301.318323313089
738546.47326661308761686087,-21.5655995361187,-14.1524246955779,-301.272164067507
738546.47326670354232192039,-21.722540971099,-14.2632068849757,-301.327555162206
738546.47326679399702697992,-21.6025269325846,-14.1708883938108,-301.327555162206
738546.47326688433531671762,-21.704077272866,-14.2355113376263,-301.253700369274
738546.47326697479002177715,-21.6302224799341,-14.2170476393933,-301.327555162206
738546.47326706524472683668,-21.7594683675649,-14.2816705832087,-301.318323313089
738546.47326715569943189621,-21.6302224799341,-14.1985839411603,-301.142918179876
738546.47326724615413695574,-21.7502365184484,-14.2816705832087,-301.26293221839
738546.47326733660884201527,-21.6486861781671,-14.2078157902768,-301.346018860439
738546.47326742706354707479,-21.7133091219825,-14.2447431867428,-301.364482558672
738546.47326751740183681250,-21.685613574633,-14.2170476393933,-301.364482558672
738546.47326760785654187202,-21.6025269325846,-14.1708883938108,-301.346018860439
738546.47326769831124693155,-21.7317728202155,-14.2539750358592,-301.309091463973
738546.47326778876595199108,-21.6486861781671,-14.2170476393933,-301.355250709555
738546.47326787922065705061,-21.7502365184484,-14.2724387340922,-301.355250709555
738546.47326796967536211014,-21.5840632343516,-14.1616565446944,-301.309091463973
738546.47326806013006716967,-21.6486861781671,-14.1893520920438,-301.346018860439
738546.47326815058477222919,-21.6025269325846,-14.1893520920438,-301.299859614856
738546.47326824092306196690,-21.6671498764,-14.1893520920438,-301.253700369274
738546.47326833137776702642,-21.5748313852351,-14.1062654499954,-301.235236671041
738546.47326842183247208595,-21.6671498764,-14.1708883938108,-301.244468520157
738546.47326851228717714548,-21.5194402905362,-14.060106204413,-301.281395916623
738546.47326860274188220501,-21.6579180272835,-14.1708883938108,-301.235236671041
738546.47326869319658726454,-21.5932950834681,-14.1431928464614,-301.253700369274
738546.47326878365129232407,-21.704077272866,-14.2170476393933,-301.244468520157
738546.47326887398958206177,-21.6579180272835,-14.2355113376263,-301.272164067507
738546.47326896444428712130,-21.7594683675649,-14.3370616779077,-301.299859614856
738546.47326905489899218082,-21.7317728202155,-14.3370616779077,-301.309091463973
738546.47326914535369724035,-21.7687002166814,-14.3739890743736,-301.318323313089
738546.47326923580840229988,-21.7871639149144,-14.4016846217231,-301.336787011322
738546.47326932626310735941,-21.7871639149144,-14.4109164708396,-301.346018860439
738546.47326941671781241894,-21.8333231604968,-14.4293801690725,-301.29062776574
738546.47326950705610215664,-21.6579180272835,-14.2816705832087,-301.29062776574
738546.47326959751080721617,-21.8148594622639,-14.4016846217231,-301.336787011322
738546.47326968796551227570,-21.704077272866,-14.3093661305582,-301.382946256905
738546.47326977842021733522,-21.9533371990112,-14.4016846217231,-301.355250709555
738546.47326986887492239475,-21.8702505569628,-14.2539750358592,-301.346018860439
738546.47326995932962745428,-21.7133091219825,-13.9123966185491,-301.26293221839
738546.47327004978433251381,-20.9101382488479,-13.2661671803949,-301.096758934294
738546.47327014012262225151,-20.0977355265969,-13.17384868923,-300.94904934843
738546.47327023057732731104,-20.5224005859554,-13.8570055238502,-301.198309274575
738546.47327032103203237057,-21.4640491958373,-14.4201483199561,-301.346018860439
738546.47327041148673743010,-21.7687002166814,-14.2909024323252,-301.327555162206
738546.47327050194144248962,-21.8240913113804,-14.1524246955779,-301.336787011322
738546.47327059239614754915,-21.7502365184484,-14.1431928464614,-301.336787011322
738546.47327068285085260868,-21.741004669332,-14.2539750358592,-301.170613727226
738546.47327077318914234638,-21.741004669332,-14.2632068849757,-301.26293221839
738546.47327086364384740591,-21.7133091219825,-14.2632068849757,-301.336787011322
738546.47327095409855246544,-21.722540971099,-14.2632068849757,-301.364482558672
738546.47327104455325752497,-21.7133091219825,-14.2632068849757,-301.299859614856
738546.47327113500796258450,-21.7963957640309,-14.3278298287912,-301.392178106021
738546.47327122546266764402,-21.722540971099,-14.2816705832087,-301.346018860439
738546.47327131591737270355,-21.7502365184484,-14.2816705832087,-301.336787011322
738546.47327140637207776308,-21.6671498764,-14.2078157902768,-301.318323313089
738546.47327149671036750078,-21.704077272866,-14.2355113376263,-301.382946256905
738546.47327158716507256031,-21.6486861781671,-14.1985839411603,-301.355250709555
738546.47327167761977761984,-21.704077272866,-14.2170476393933,-301.318323313089
738546.47327176807448267937,-21.6763817255165,-14.1893520920438,-301.336787011322
738546.47327185852918773890,-21.6302224799341,-14.1524246955779,-301.207541123691
738546.47327194898389279842,-21.6763817255165,-14.1616565446944,-301.226004821925
738546.47327203943859785795,-21.6394543290506,-14.1247291482284,-301.26293221839
738546.47327212977688759565,-21.6394543290506,-14.078569902646,-301.272164067507
738546.47327222023159265518,-21.5471358378857,-13.9954832605976,-301.244468520157
738546.47327231068629771471,-21.5655995361187,-13.9585558641316,-301.253700369274
738546.47327240114100277424,-21.4825128940703,-13.8754692220832,-301.216772972808
738546.47327249159570783377,-21.5102084414197,-13.8385418256172,-301.226004821925
738546.47327258205041289330,-21.3901944029054,-13.7369914853359,-301.170613727226
738546.47327267250511795282,-21.4548173467208,-13.7462233344523,-301.207541123691
738546.47327276284340769053,-21.3163396099734,-13.6354411450545,-301.170613727226
738546.47327285329811275005,-21.3901944029054,-13.6816003906369,-301.216772972808
738546.47327294375281780958,-21.307107760857,-13.6539048432875,-301.226004821925
738546.47327303420752286911,-21.4271217993713,-13.7646870326853,-301.226004821925
738546.47327312466222792864,-21.3809625537889,-13.7554551835688,-301.179845576342
738546.47327321511693298817,-21.3348033082064,-13.7554551835688,-301.235236671041
738546.47327330557163804770,-21.4455854976043,-13.8754692220832,-301.235236671041
738546.47327339590992778540,-21.4455854976043,-13.9123966185491,-301.281395916623
738546.47327348636463284492,-21.5379039887692,-13.9862514114811,-301.26293221839
738546.47327357681933790445,-21.4917447431867,-14.004715109714,-301.281395916623
738546.47327366727404296398,-21.6302224799341,-14.1154972991119,-301.26293221839
738546.47327375772874802351,-21.5748313852351,-14.0970336008789,-301.29062776574
738546.47327384818345308304,-21.6763817255165,-14.1524246955779,-301.318323313089
738546.47327393863815814257,-21.5748313852351,-14.1154972991119,-301.244468520157
738546.47327402897644788027,-21.7133091219825,-14.1985839411603,-301.244468520157
738546.47327411943115293980,-21.6302224799341,-14.1524246955779,-301.26293221839
738546.47327420988585799932,-21.722540971099,-14.2078157902768,-301.13368633076
738546.47327430034056305885,-21.6209906308176,-14.1524246955779,-301.216772972808
738546.47327439079526811838,-21.7133091219825,-14.2170476393933,-301.309091463973
738546.47327448124997317791,-21.6394543290506,-14.1616565446944,-301.336787011322
738546.47327457170467823744,-21.722540971099,-14.2078157902768,-301.336787011322
738546.47327466215938329697,-21.6394543290506,-14.1524246955779,-301.327555162206
738546.47327475249767303467,-21.6948454237495,-14.2170476393933,-301.299859614856
738546.47327484295237809420,-21.6394543290506,-14.1708883938108,-301.355250709555
738546.47327493340708315372,-21.704077272866,-14.1985839411603,-301.309091463973
738546.47327502386178821325,-21.722540971099,-14.2170476393933,-301.318323313089
738546.47327511431649327278,-21.6209906308176,-14.1616565446944,-301.318323313089
738546.47327520477119833231,-21.7133091219825,-14.2078157902768,-301.346018860439
738546.47327529522590339184,-21.6025269325846,-14.1524246955779,-301.346018860439
738546.47327538556419312954,-21.7133091219825,-14.2078157902768,-301.309091463973
738546.47327547601889818907,-21.6209906308176,-14.1616565446944,-301.355250709555
738546.47327556647360324860,-21.7133091219825,-14.2078157902768,-301.336787011322
738546.47327565692830830812,-21.6302224799341,-14.1524246955779,-301.318323313089
738546.47327574738301336765,-21.722540971099,-14.2078157902768,-301.364482558672
738546.47327583783771842718,-21.6302224799341,-14.1708883938108,-301.364482558672
738546.47327592829242348671,-21.704077272866,-14.2170476393933,-301.272164067507
738546.47327601863071322441,-21.6579180272835,-14.1893520920438,-301.336787011322
738546.47327610908541828394,-21.7133091219825,-14.2170476393933,-301.364482558672
738546.47327619954012334347,-21.685613574633,-14.1985839411603,-301.336787011322
738546.47327628999482840300,-21.7133091219825,-14.2170476393933,-301.346018860439
738546.47327638044953346252,-21.6948454237495,-14.2170476393933,-301.373714407788
738546.47327647090423852205,-21.6948454237495,-14.2170476393933,-301.189077425459
738546.47327656135894358158,-21.704077272866,-14.2262794885098,-301.281395916623
738546.47327665169723331928,-21.6763817255165,-14.2170476393933,-301.272164067507
738546.47327674215193837881,-21.7317728202155,-14.2447431867428,-301.281395916623
738546.47327683260664343834,-21.6579180272835,-14.2170476393933,-301.26293221839
738546.47327692306134849787,-21.7317728202155,-14.2632068849757,-301.327555162206
738546.47327701351605355740,-21.6763817255165,-14.2170476393933,-301.336787011322
738546.47327710397075861692,-21.7502365184484,-14.2632068849757,-301.309091463973
738546.47327719442546367645,-21.6763817255165,-14.2170476393933,-301.336787011322
738546.47327728476375341415,-21.7317728202155,-14.2539750358592,-301.373714407788
738546.47327737521845847368,-21.6671498764,-14.2262794885098,-301.309091463973
738546.47327746567316353321,-21.6948454237495,-14.2355113376263,-301.309091463973
738546.47327755612786859274,-21.6579180272835,-14.2170476393933,-301.336787011322
738546.47327764658257365227,-21.6486861781671,-14.2170476393933,-301.26293221839
738546.47327773703727871180,-21.6579180272835,-14.1893520920438,-301.170613727226
738546.47327782749198377132,-21.5748313852351,-14.1247291482284,-301.152150028993
738546.47327791794668883085,-21.5655995361187,-14.1154972991119,-301.198309274575
738546.47327800828497856855,-21.5655995361187,-14.1154972991119,-301.198309274575
738546.47327809873968362808,-21.6579180272835,-14.1801202429273,-301.272164067507
738546.47327818919438868761,-21.6209906308176,-14.1524246955779,-301.272164067507
738546.47327827964909374714,-21.7502365184484,-14.2170476393933,-301.309091463973
738546.47327837010379880667,-21.685613574633,-14.2078157902768,-301.355250709555
738546.47327846055850386620,-21.7779320657979,-14.2724387340922,-301.364482558672
738546.47327855101320892572,-21.704077272866,-14.2170476393933,-301.382946256905
738546.47327864135149866343,-21.8056276131474,-14.3001342814417,-301.355250709555
738546.47327873180620372295,-21.7594683675649,-14.2632068849757,-301.327555162206
738546.47327882226090878248,-21.7779320657979,-14.2724387340922,-301.392178106021
738546.47327891271561384201,-21.7779320657979,-14.2724387340922,-301.346018860439
738546.47327900317031890154,-21.7594683675649,-14.2632068849757,-301.309091463973
738546.47327909362502396107,-21.7871639149144,-14.2724387340922,-301.382946256905
738546.47327918407972902060,-21.8148594622639,-14.2632068849757,-301.419873653371
738546.47327927441801875830,-21.9810327463607,-14.2632068849757,-301.346018860439
738546.47327936487272381783,-21.8148594622639,-14.0508743552965,-301.327555162206
738546.47327945532742887735,-21.3440351573229,-13.6354411450545,-301.226004821925
738546.47327954578213393688,-20.4300820947905,-13.1830805383465,-301.004440443129
738546.47327963623683899641,-20.1161992248299,-13.589281899472,-301.032135990478
738546.47327972669154405594,-21.0393841364788,-14.2078157902768,-301.244468520157
738546.47327981714624911547,-21.7133091219825,-14.3647572252571,-301.346018860439
738546.47327990748453885317,-21.8240913113804,-14.1524246955779,-301.318323313089
738546.47327999793924391270,-21.9071779534288,-14.1431928464614,-301.299859614856
738546.47328008839394897223,-21.7317728202155,-14.1431928464614,-301.299859614856
738546.47328017884865403175,-21.7963957640309,-14.2539750358592,-301.318323313089
738546.47328026930335909128,-21.704077272866,-14.1985839411603,-301.318323313089
738546.47328035975806415081,-21.8056276131474,-14.2539750358592,-301.346018860439
738546.47328045021276921034,-21.7133091219825,-14.2078157902768,-301.346018860439
738546.47328054055105894804,-21.7133091219825,-14.2078157902768,-301.355250709555
738546.47328063100576400757,-21.7779320657979,-14.2539750358592,-301.382946256905
738546.47328072146046906710,-21.685613574633,-14.1801202429273,-301.29062776574
738546.47328081191517412663,-21.7779320657979,-14.2355113376263,-301.336787011322
738546.47328090236987918615,-21.6763817255165,-14.1801202429273,-301.373714407788
738546.47328099282458424568,-21.7502365184484,-14.2262794885098,-301.346018860439
738546.47328108327928930521,-21.6394543290506,-14.1524246955779,-301.336787011322
738546.47328117373399436474,-21.741004669332,-14.1985839411603,-301.373714407788
738546.47328126407228410244,-21.6486861781671,-14.1247291482284,-301.216772972808
738546.47328135452698916197,-21.7133091219825,-14.1431928464614,-301.216772972808
738546.47328144498169422150,-21.6117587817011,-14.078569902646,-301.318323313089
738546.47328153543639928102,-21.6579180272835,-14.0878017517624,-301.281395916623
738546.47328162589110434055,-21.5563676870022,-14.004715109714,-301.309091463973
738546.47328171634580940008,-21.6025269325846,-14.004715109714,-301.299859614856
738546.47328180680051445961,-21.5102084414197,-13.9031647694327,-301.318323313089
738546.47328189713880419731,-21.5379039887692,-13.9031647694327,-301.309091463973
738546.47328198759350925684,-21.4455854976043,-13.8108462782678,-301.226004821925
738546.47328207804821431637,-21.4732810449538,-13.8108462782678,-301.29062776574
738546.47328216850291937590,-21.4178899502548,-13.7646870326853,-301.281395916623
738546.47328225895762443542,-21.4086581011383,-13.7462233344523,-301.226004821925
738546.47328234941232949495,-21.4086581011383,-13.7462233344523,-301.235236671041
738546.47328243986703455448,-21.3532670064394,-13.7092959379864,-301.281395916623
738546.47328253020532429218,-21.4455854976043,-13.7923825800348,-301.309091463973
738546.47328262066002935171,-21.3717307046724,-13.7739188818018,-301.226004821925
738546.47328271111473441124,-21.4917447431867,-13.8939329203162,-301.29062776574
738546.47328280156943947077,-21.4640491958373,-13.9031647694327,-301.299859614856
738546.47328289202414453030,-21.5655995361187,-14.004715109714,-301.336787011322
738546.47328298247884958982,-21.5286721396527,-14.023178807947,-301.26293221839
738546.47328307293355464935,-21.6394543290506,-14.0970336008789,-301.373714407788
738546.47328316327184438705,-21.6302224799341,-14.1154972991119,-301.346018860439
738546.47328325372654944658,-21.685613574633,-14.1616565446944,-301.29062776574
738546.47328334418125450611,-21.685613574633,-14.1801202429273,-301.299859614856
738546.47328343463595956564,-21.7133091219825,-14.1893520920438,-301.299859614856
738546.47328352509066462517,-21.704077272866,-14.1985839411603,-301.299859614856
738546.47328361554536968470,-21.704077272866,-14.1985839411603,-301.281395916623
738546.47328370600007474422,-21.7317728202155,-14.2078157902768,-301.355250709555
738546.47328379633836448193,-21.6948454237495,-14.1893520920438,-301.382946256905
738546.47328388679306954145,-21.7317728202155,-14.2170476393933,-301.364482558672
738546.47328397724777460098,-21.685613574633,-14.1708883938108,-301.401409955138
738546.47328406770247966051,-21.741004669332,-14.2078157902768,-301.401409955138
738546.47328415815718472004,-21.6579180272835,-14.1431928464614,-301.346018860439
738546.47328424861188977957,-21.7317728202155,-14.2078157902768,-301.346018860439
738546.47328433906659483910,-21.6671498764,-14.1616565446944,-301.401409955138
738546.47328442940488457680,-21.722540971099,-14.1893520920438,-301.382946256905
738546.47328451985958963633,-21.685613574633,-14.1616565446944,-301.309091463973
738546.47328461031429469585,-21.6948454237495,-14.1708883938108,-301.382946256905
738546.47328470076899975538,-21.6948454237495,-14.1708883938108,-301.419873653371
738546.47328479122370481491,-21.6948454237495,-14.1616565446944,-301.244468520157
738546.47328488167840987444,-21.7133091219825,-14.1893520920438,-301.226004821925
738546.47328497213311493397,-21.6948454237495,-14.1616565446944,-301.355250709555
738546.47328506258781999350,-21.7502365184484,-14.2078157902768,-301.336787011322
738546.47328515292610973120,-21.704077272866,-14.1708883938108,-301.318323313089
738546.47328524338081479073,-21.7687002166814,-14.2170476393933,-301.336787011322
738546.47328533383551985025,-21.6948454237495,-14.1708883938108,-301.355250709555
738546.47328542429022490978,-21.7779320657979,-14.2355113376263,-301.355250709555
738546.47328551474492996931,-21.6948454237495,-14.1801202429273,-301.327555162206
738546.47328560519963502884,-21.7963957640309,-14.2447431867428,-301.382946256905
738546.47328569565434008837,-21.704077272866,-14.1893520920438,-301.309091463973
738546.47328578599262982607,-21.7963957640309,-14.2632068849757,-301.392178106021
738546.47328587644733488560,-21.7133091219825,-14.1985839411603,-301.355250709555
738546.47328596690203994513,-21.8148594622639,-14.2724387340922,-301.336787011322
738546.47328605735674500465,-21.722540971099,-14.2078157902768,-301.336787011322
738546.47328614781145006418,-21.741004669332,-14.2355113376263,-301.355250709555
738546.47328623826615512371,-21.7779320657979,-14.2539750358592,-301.392178106021
738546.47328632872086018324,-21.7317728202155,-14.2355113376263,-301.336787011322
738546.47328641905914992094,-21.8056276131474,-14.2816705832087,-301.336787011322
738546.47328650951385498047,-21.7317728202155,-14.2262794885098,-301.392178106021
738546.47328659996856004000,-21.7963957640309,-14.2909024323252,-301.373714407788
738546.47328669042326509953,-21.6671498764,-14.2170476393933,-301.429105502487
738546.47328678087797015905,-21.7502365184484,-14.2816705832087,-301.438337351604
738546.47328687133267521858,-21.685613574633,-14.2078157902768,-301.364482558672
738546.47328696178738027811,-21.7502365184484,-14.2355113376263,-301.401409955138
738546.47328705212567001581,-21.6025269325846,-14.1062654499954,-301.392178106021
738546.47328714258037507534,-21.6948454237495,-14.1801202429273,-301.382946256905
738546.47328723303508013487,-21.6394543290506,-14.1247291482284,-301.355250709555
738546.47328732348978519440,-21.7594683675649,-14.2078157902768,-301.410641804254
738546.47328741394449025393,-21.6948454237495,-14.1524246955779,-301.392178106021
738546.47328750439919531345,-21.7963957640309,-14.2355113376263,-301.373714407788
738546.47328759485390037298,-21.7687002166814,-14.2170476393933,-301.401409955138
738546.47328768519219011068,-21.8610187078463,-14.2816705832087,-301.44756920072
738546.47328777564689517021,-21.7963957640309,-14.2447431867428,-301.392178106021
738546.47328786610160022974,-21.8517868587298,-14.3001342814417,-301.410641804254
738546.47328795655630528927,-21.8056276131474,-14.2632068849757,-301.410641804254
738546.47328804701101034880,-21.7687002166814,-14.2355113376263,-301.44756920072
738546.47328813746571540833,-21.8794824060793,-14.3001342814417,-301.382946256905
738546.47328822792042046785,-21.7779320657979,-14.2262794885098,-301.382946256905
738546.47328831837512552738,-21.8887142551958,-14.3001342814417,-301.299859614856
738546.47328840871341526508,-21.9164098025452,-14.2262794885098,-301.179845576342
738546.47328849916812032461,-21.9902645954772,-14.2078157902768,-301.299859614856
738546.47328858962282538414,-21.6117587817011,-13.7739188818018,-301.198309274575
738546.47328868007753044367,-21.0116885891293,-13.3400219733268,-301.096758934294
738546.47328877053223550320,-20.0515762810144,-13.229239783929,-301.059831537828
738546.47328886098694056273,-20.6516464735862,-13.9216284676656,-301.216772972808
738546.47328895144164562225,-21.4178899502548,-14.2724387340922,-301.346018860439
738546.47328904177993535995,-21.8887142551958,-14.2447431867428,-301.373714407788
738546.47328913223464041948,-21.8794824060793,-14.0878017517624,-301.382946256905
738546.47328922268934547901,-21.8148594622639,-14.1247291482284,-301.327555162206
738546.47328931314405053854,-21.7871639149144,-14.1801202429273,-301.346018860439
738546.47328940359875559807,-21.7779320657979,-14.1985839411603,-301.410641804254
738546.47328949405346065760,-21.7963957640309,-14.2078157902768,-301.419873653371
738546.47328958450816571712,-21.7687002166814,-14.1985839411603,-301.429105502487
738546.47328967484645545483,-21.7871639149144,-14.2170476393933,-301.419873653371
738546.47328976530116051435,-21.7502365184484,-14.1893520920438,-301.355250709555
738546.47328985575586557388,-21.8148594622639,-14.2355113376263,-301.364482558672
738546.47328994621057063341,-21.722540971099,-14.1708883938108,-301.336787011322
738546.47329003666527569294,-21.7871639149144,-14.1985839411603,-301.346018860439
738546.47329012711998075247,-21.722540971099,-14.1616565446944,-301.382946256905
738546.47329021757468581200,-21.7502365184484,-14.1893520920438,-301.373714407788
738546.47329030791297554970,-21.704077272866,-14.1524246955779,-301.382946256905
738546.47329039836768060923,-21.7317728202155,-14.1524246955779,-301.382946256905
738546.47329048882238566875,-21.685613574633,-14.1247291482284,-301.392178106021
738546.47329057927709072828,-21.6671498764,-14.0970336008789,-301.392178106021
738546.47329066973179578781,-21.6763817255165,-14.0508743552965,-301.373714407788
738546.47329076018650084734,-21.6117587817011,-14.004715109714,-301.327555162206
738546.47329085064120590687,-21.6209906308176,-13.9677877132481,-301.392178106021
738546.47329094097949564457,-21.5286721396527,-13.8847010711997,-301.364482558672
738546.47329103143420070410,-21.5471358378857,-13.8662373729667,-301.364482558672
738546.47329112188890576363,-21.4548173467208,-13.7739188818018,-301.318323313089
738546.47329121234361082315,-21.5102084414197,-13.7739188818018,-301.364482558672
738546.47329130279831588268,-21.3901944029054,-13.6723685415204,-301.336787011322
738546.47329139325302094221,-21.4548173467208,-13.7092959379864,-301.29062776574
738546.47329148370772600174,-21.3348033082064,-13.626209295938,-301.318323313089
738546.47329157416243106127,-21.4271217993713,-13.6908322397534,-301.309091463973
738546.47329166450072079897,-21.3348033082064,-13.6631366924039,-301.336787011322
738546.47329175495542585850,-21.3901944029054,-13.7185277871029,-301.318323313089
738546.47329184541013091803,-21.4363536484878,-13.7739188818018,-301.299859614856
738546.47329193586483597755,-21.4640491958373,-13.8385418256172,-301.226004821925
738546.47329202631954103708,-21.5194402905362,-13.9123966185491,-301.336787011322
738546.47329211677424609661,-21.5286721396527,-13.9585558641316,-301.382946256905
738546.47329220722895115614,-21.6302224799341,-14.0508743552965,-301.410641804254
738546.47329229756724089384,-21.6025269325846,-14.060106204413,-301.392178106021
738546.47329238802194595337,-21.6948454237495,-14.1524246955779,-301.410641804254
738546.47329247847665101290,-21.6486861781671,-14.1247291482284,-301.438337351604
738546.47329256893135607243,-21.7502365184484,-14.2078157902768,-301.456801049837
738546.47329265938606113195,-21.6763817255165,-14.1431928464614,-301.410641804254
738546.47329274984076619148,-21.7779320657979,-14.2078157902768,-301.364482558672
738546.47329284029547125101,-21.6948454237495,-14.1431928464614,-301.336787011322
738546.47329293063376098871,-21.7963957640309,-14.2170476393933,-301.364482558672
738546.47329302108846604824,-21.7133091219825,-14.1524246955779,-301.327555162206
738546.47329311154317110777,-21.8056276131474,-14.2170476393933,-301.364482558672
738546.47329320199787616730,-21.7133091219825,-14.1524246955779,-301.309091463973
738546.47329329245258122683,-21.7963957640309,-14.2078157902768,-301.318323313089
738546.47329338290728628635,-21.7133091219825,-14.1524246955779,-301.327555162206
738546.47329347336199134588,-21.7687002166814,-14.2078157902768,-301.336787011322
738546.47329356370028108358,-21.704077272866,-14.1616565446944,-301.327555162206
738546.47329365415498614311,-21.6948454237495,-14.1524246955779,-301.373714407788
738546.47329374460969120264,-21.7779320657979,-14.2170476393933,-301.336787011322
738546.47329383506439626217,-21.685613574633,-14.1524246955779,-301.346018860439
738546.47329392551910132170,-21.7779320657979,-14.2262794885098,-301.346018860439
738546.47329401597380638123,-21.685613574633,-14.1616565446944,-301.401409955138
738546.47329410642851144075,-21.7871639149144,-14.2447431867428,-301.401409955138
738546.47329419676680117846,-21.6948454237495,-14.1708883938108,-301.346018860439
738546.47329428722150623798,-21.7963957640309,-14.2447431867428,-301.382946256905
738546.47329437767621129751,-21.704077272866,-14.1801202429273,-301.382946256905
738546.47329446813091635704,-21.7871639149144,-14.2539750358592,-301.410641804254
738546.47329455858562141657,-21.722540971099,-14.1985839411603,-301.401409955138
738546.47329464904032647610,-21.7963957640309,-14.2447431867428,-301.373714407788
738546.47329473949503153563,-21.7317728202155,-14.2078157902768,-301.392178106021
738546.47329482994973659515,-21.7963957640309,-14.2447431867428,-301.401409955138
738546.47329492028802633286,-21.7502365184484,-14.2170476393933,-301.392178106021
738546.47329501074273139238,-21.7963957640309,-14.2355113376263,-301.364482558672
738546.47329510119743645191,-21.7779320657979,-14.2170476393933,-301.419873653371
738546.47329519165214151144,-21.7871639149144,-14.2262794885098,-301.429105502487
738546.47329528210684657097,-21.7871639149144,-14.2262794885098,-301.410641804254
738546.47329537256155163050,-21.7779320657979,-14.2262794885098,-301.216772972808
738546.47329546301625669003,-21.8425550096133,-14.2632068849757,-301.299859614856
738546.47329555335454642773,-21.741004669332,-14.1985839411603,-301.429105502487
738546.47329564380925148726,-21.8240913113804,-14.2539750358592,-301.382946256905
738546.47329573426395654678,-21.704077272866,-14.1708883938108,-301.438337351604
738546.47329582471866160631,-21.7687002166814,-14.2262794885098,-301.44756920072
738546.47329591517336666584,-21.722540971099,-14.1708883938108,-301.419873653371
738546.47329600562807172537,-21.7963957640309,-14.2170476393933,-301.401409955138
738546.47329609608277678490,-21.6763817255165,-14.1154972991119,-301.401409955138
738546.47329618642106652260,-21.6763817255165,-14.0970336008789,-301.318323313089
738546.47329627687577158213,-21.6763817255165,-14.0878017517624,-301.29062776574
738546.47329636733047664165,-21.7133091219825,-14.1339609973449,-301.318323313089
738546.47329645778518170118,-21.7502365184484,-14.1524246955779,-301.336787011322
738546.47329654823988676071,-21.7687002166814,-14.1616565446944,-301.29062776574
738546.47329663869459182024,-21.8056276131474,-14.2078157902768,-301.401409955138
738546.47329672914929687977,-21.8056276131474,-14.2078157902768,-301.44756920072
738546.47329681948758661747,-21.8702505569628,-14.2632068849757,-301.355250709555
738546.47329690994229167700,-21.8148594622639,-14.2170476393933,-301.410641804254
738546.47329700039699673653,-21.8702505569628,-14.2724387340922,-301.438337351604
738546.47329709085170179605,-21.8056276131474,-14.2170476393933,-301.401409955138
738546.47329718130640685558,-21.8794824060793,-14.2816705832087,-301.419873653371
738546.47329727176111191511,-21.7963957640309,-14.2078157902768,-301.429105502487
738546.47329736221581697464,-21.8517868587298,-14.2632068849757,-301.438337351604
738546.47329745255410671234,-21.8425550096133,-14.2355113376263,-301.456801049837
738546.47329754300881177187,-21.9994964445936,-14.2355113376263,-301.410641804254
738546.47329763346351683140,-21.9256416516617,-14.0878017517624,-301.410641804254
738546.47329772391822189093,-21.5379039887692,-13.607745597705,-301.26293221839
738546.47329781437292695045,-20.7993560594501,-13.1830805383465,-301.10599078341
738546.47329790482763200998,-20.1438947721793,-13.3769493697928,-301.069063386944
738546.47329799528233706951,-21.0855433820612,-14.1062654499954,-301.26293221839
738546.47329808573704212904,-21.6394543290506,-14.2816705832087,-301.373714407788
738546.47329817607533186674,-21.9810327463607,-14.2170476393933,-301.364482558672
738546.47329826653003692627,-21.8702505569628,-14.060106204413,-301.346018860439
738546.47329835698474198580,-21.8702505569628,-14.1524246955779,-301.392178106021
738546.47329844743944704533,-21.7687002166814,-14.1616565446944,-301.346018860439
738546.47329853789415210485,-21.8517868587298,-14.2355113376263,-301.364482558672
738546.47329862834885716438,-21.7687002166814,-14.1893520920438,-301.373714407788
738546.47329871880356222391,-21.8610187078463,-14.2816705832087,-301.364482558672
738546.47329880914185196161,-21.7594683675649,-14.1893520920438,-301.364482558672
738546.47329889959655702114,-21.8610187078463,-14.2632068849757,-301.198309274575
738546.47329899005126208067,-21.7502365184484,-14.1801202429273,-301.309091463973
738546.47329908050596714020,-21.8517868587298,-14.2355113376263,-301.382946256905
738546.47329917096067219973,-21.8148594622639,-14.2078157902768,-301.382946256905
738546.47329926141537725925,-21.7594683675649,-14.1616565446944,-301.382946256905
738546.47329935187008231878,-21.8240913113804,-14.1893520920438,-301.373714407788
738546.47329944220837205648,-21.7317728202155,-14.1154972991119,-301.410641804254
738546.47329953266307711601,-21.7963957640309,-14.1524246955779,-301.382946256905
738546.47329962311778217554,-21.6948454237495,-14.060106204413,-301.392178106021
738546.47329971357248723507,-21.7687002166814,-14.0970336008789,-301.346018860439
738546.47329980402719229460,-21.6486861781671,-13.9862514114811,-301.373714407788
738546.47329989448189735413,-21.7133091219825,-14.023178807947,-301.392178106021
738546.47329998493660241365,-21.6025269325846,-13.8939329203162,-301.281395916623
738546.47330007527489215136,-21.6671498764,-13.9031647694327,-301.355250709555
738546.47330016572959721088,-21.5379039887692,-13.7739188818018,-301.327555162206
738546.47330025618430227041,-21.6025269325846,-13.7923825800348,-301.253700369274
738546.47330034663900732994,-21.4825128940703,-13.6723685415204,-301.309091463973
738546.47330043709371238947,-21.5471358378857,-13.7000640888699,-301.346018860439
738546.47330052754841744900,-21.4455854976043,-13.607745597705,-301.29062776574
738546.47330061800312250853,-21.4917447431867,-13.6631366924039,-301.29062776574
738546.47330070834141224623,-21.4271217993713,-13.626209295938,-301.29062776574
738546.47330079879611730576,-21.4917447431867,-13.7000640888699,-301.299859614856
738546.47330088925082236528,-21.4917447431867,-13.7369914853359,-301.198309274575
738546.47330097970552742481,-21.5379039887692,-13.8108462782678,-301.299859614856
738546.47330107016023248434,-21.5932950834681,-13.8754692220832,-301.373714407788
738546.47330116061493754387,-21.5379039887692,-13.8662373729667,-301.364482558672
738546.47330125106964260340,-21.6763817255165,-14.004715109714,-301.299859614856
738546.47330134152434766293,-21.6117587817011,-13.9862514114811,-301.364482558672
738546.47330143186263740063,-21.7502365184484,-14.0878017517624,-301.382946256905
738546.47330152231734246016,-21.6763817255165,-14.0693380535295,-301.346018860439
738546.47330161277204751968,-21.7779320657979,-14.1524246955779,-301.392178106021
738546.47330170322675257921,-21.722540971099,-14.1062654499954,-301.355250709555
738546.47330179368145763874,-21.8056276131474,-14.1524246955779,-301.382946256905
738546.47330188413616269827,-21.7502365184484,-14.1247291482284,-301.346018860439
738546.47330197459086775780,-21.7963957640309,-14.1616565446944,-301.355250709555
738546.47330206492915749550,-21.7594683675649,-14.1339609973449,-301.392178106021
738546.47330215538386255503,-21.7871639149144,-14.1524246955779,-301.401409955138
738546.47330224583856761456,-21.7779320657979,-14.1431928464614,-301.346018860439
738546.47330233629327267408,-21.7779320657979,-14.1524246955779,-301.355250709555
738546.47330242674797773361,-21.7871639149144,-14.1524246955779,-301.189077425459
738546.47330251720268279314,-21.7594683675649,-14.1339609973449,-301.272164067507
738546.47330260765738785267,-21.7871639149144,-14.1616565446944,-301.382946256905
738546.47330269799567759037,-21.741004669332,-14.1247291482284,-301.355250709555
738546.47330278845038264990,-21.7871639149144,-14.1708883938108,-301.401409955138
738546.47330287890508770943,-21.741004669332,-14.1247291482284,-301.392178106021
738546.47330296935979276896,-21.8056276131474,-14.1708883938108,-301.410641804254
738546.47330305981449782848,-21.741004669332,-14.1339609973449,-301.327555162206
738546.47330315026920288801,-21.7963957640309,-14.1801202429273,-301.401409955138
738546.47330324072390794754,-21.7594683675649,-14.1524246955779,-301.401409955138
738546.47330333106219768524,-21.8056276131474,-14.1801202429273,-301.327555162206
738546.47330342151690274477,-21.7871639149144,-14.1524246955779,-301.346018860439
738546.47330351197160780430,-21.7963957640309,-14.1708883938108,-301.346018860439
738546.47330360242631286383,-21.8056276131474,-14.1801202429273,-301.382946256905
738546.47330369288101792336,-21.7871639149144,-14.1616565446944,-301.410641804254
738546.47330378333572298288,-21.8333231604968,-14.1985839411603,-301.429105502487
738546.47330387379042804241,-21.7963957640309,-14.1708883938108,-301.373714407788
738546.47330396412871778011,-21.8517868587298,-14.2170476393933,-301.410641804254
738546.47330405458342283964,-21.7963957640309,-14.1708883938108,-301.429105502487
738546.47330414503812789917,-21.8610187078463,-14.2262794885098,-301.401409955138
738546.47330423549283295870,-21.7779320657979,-14.1708883938108,-301.429105502487
738546.47330432594753801823,-21.8794824060793,-14.2355113376263,-301.419873653371
738546.47330441640224307775,-21.7963957640309,-14.1708883938108,-301.410641804254
738546.47330450685694813728,-21.8979461043123,-14.2447431867428,-301.410641804254
738546.47330459731165319681,-21.7963957640309,-14.1708883938108,-301.438337351604
738546.47330468764994293451,-21.8979461043123,-14.2447431867428,-301.456801049837
738546.47330477810464799404,-21.8517868587298,-14.2170476393933,-301.44756920072
738546.47330486855935305357,-21.8425550096133,-14.2078157902768,-301.364482558672
738546.47330495901405811310,-21.8702505569628,-14.2262794885098,-301.364482558672
738546.47330504946876317263,-21.8240913113804,-14.1985839411603,-301.355250709555
738546.47330513992346823215,-21.8517868587298,-14.2262794885098,-301.336787011322
738546.47330523037817329168,-21.7871639149144,-14.1801202429273,-301.355250709555
738546.47330532071646302938,-21.8610187078463,-14.2262794885098,-301.401409955138
738546.47330541117116808891,-21.7963957640309,-14.1708883938108,-301.419873653371
738546.47330550162587314844,-21.8425550096133,-14.1985839411603,-301.410641804254
738546.47330559208057820797,-21.6948454237495,-14.0693380535295,-301.336787011322
738546.47330568253528326750,-21.7963957640309,-14.1431928464614,-301.281395916623
738546.47330577298998832703,-21.7317728202155,-14.0970336008789,-301.299859614856
738546.47330586344469338655,-21.8517868587298,-14.1893520920438,-301.382946256905
738546.47330595378298312426,-21.7963957640309,-14.1339609973449,-301.244468520157
738546.47330604423768818378,-21.9071779534288,-14.2355113376263,-301.281395916623
738546.47330613469239324331,-21.8517868587298,-14.1893520920438,-301.392178106021
738546.47330622514709830284,-21.9625690481277,-14.2724387340922,-301.438337351604
738546.47330631560180336237,-21.8794824060793,-14.2078157902768,-301.44756920072
738546.47330640605650842190,-21.9625690481277,-14.2724387340922,-301.373714407788
738546.47330649651121348143,-21.8887142551958,-14.2170476393933,-301.401409955138
738546.47330658684950321913,-21.9441053498947,-14.2724387340922,-301.429105502487
738546.47330667730420827866,-21.9533371990112,-14.2816705832087,-301.410641804254
738546.47330676775891333818,-21.8794824060793,-14.2078157902768,-301.401409955138
738546.47330685821361839771,-21.9902645954772,-14.2724387340922,-301.429105502487
738546.47330694866832345724,-22.0087282937101,-14.2170476393933,-301.456801049837
738546.47330703912302851677,-22.0918149357585,-14.2078157902768,-301.355250709555
738546.47330712957773357630,-21.7133091219825,-13.7462233344523,-301.29062776574
738546.47330721991602331400,-21.0947752311777,-13.2846308786279,-301.161381878109
738546.47330731037072837353,-20.1715903195288,-13.17384868923,-301.087527085177
738546.47330740082543343306,-20.8639790032655,-13.9585558641316,-301.226004821925
738546.47330749128013849258,-21.5840632343516,-14.2909024323252,-301.355250709555
738546.47330758173484355211,-22.0456556901761,-14.3001342814417,-301.382946256905
738546.47330767218954861164,-21.9994964445936,-14.0878017517624,-301.355250709555
738546.47330776264425367117,-21.9533371990112,-14.1339609973449,-301.401409955138
738546.47330785309895873070,-21.8887142551958,-14.1708883938108,-301.419873653371
738546.47330794343724846840,-21.9164098025452,-14.2262794885098,-301.401409955138
738546.47330803389195352793,-21.8887142551958,-14.2078157902768,-301.419873653371
738546.47330812434665858746,-21.9071779534288,-14.2170476393933,-301.401409955138
738546.47330821480136364698,-21.8979461043123,-14.2170476393933,-301.429105502487
738546.47330830525606870651,-21.8887142551958,-14.2078157902768,-301.466032898953
738546.47330839571077376604,-21.8887142551958,-14.2078157902768,-301.401409955138
738546.47330848616547882557,-21.8240913113804,-14.1616565446944,-301.429105502487
738546.47330857650376856327,-21.9164098025452,-14.2170476393933,-301.410641804254
738546.47330866695847362280,-21.8240913113804,-14.1431928464614,-301.438337351604
738546.47330875741317868233,-21.8979461043123,-14.1893520920438,-301.410641804254
738546.47330884786788374186,-21.8240913113804,-14.1339609973449,-301.429105502487
738546.47330893832258880138,-21.8702505569628,-14.1616565446944,-301.419873653371
738546.47330902877729386091,-21.8056276131474,-14.0970336008789,-301.382946256905
738546.47330911923199892044,-21.8148594622639,-14.0970336008789,-301.429105502487
738546.47330920957028865814,-21.7779320657979,-14.04164250618,-301.382946256905
738546.47330930002499371767,-21.7779320657979,-14.023178807947,-301.346018860439
738546.47330939047969877720,-21.741004669332,-13.9677877132481,-301.364482558672
738546.47330948093440383673,-21.7133091219825,-13.9123966185491,-301.226004821925
738546.47330957138910889626,-21.6948454237495,-13.8754692220832,-301.179845576342
738546.47330966184381395578,-21.6394543290506,-13.7923825800348,-301.216772972808
738546.47330975229851901531,-21.6486861781671,-13.7923825800348,-301.272164067507
738546.47330984263680875301,-21.5840632343516,-13.7185277871029,-301.179845576342
738546.47330993309151381254,-21.6209906308176,-13.7369914853359,-301.189077425459
738546.47331002354621887207,-21.5379039887692,-13.6723685415204,-301.253700369274
738546.47331011400092393160,-21.6025269325846,-13.7369914853359,-301.244468520157
738546.47331020445562899113,-21.5194402905362,-13.6908322397534,-301.272164067507
738546.47331029491033405066,-21.6302224799341,-13.8016144291513,-301.235236671041
738546.47331038536503911018,-21.5932950834681,-13.7831507309183,-301.318323313089
738546.47331047570332884789,-21.6486861781671,-13.8570055238502,-301.26293221839
738546.47331056615803390741,-21.6671498764,-13.9123966185491,-301.336787011322
738546.47331065661273896694,-21.704077272866,-13.9770195623646,-301.318323313089
738546.47331074706744402647,-21.7502365184484,-14.0324106570635,-301.355250709555
738546.47331083752214908600,-21.7502365184484,-14.060106204413,-301.364482558672
738546.47331092797685414553,-21.8148594622639,-14.1154972991119,-301.373714407788
738546.47331101843155920506,-21.7871639149144,-14.0970336008789,-301.346018860439
738546.47331110876984894276,-21.8702505569628,-14.1616565446944,-301.346018860439
738546.47331119922455400229,-21.8056276131474,-14.1247291482284,-301.336787011322
738546.47331128967925906181,-21.8979461043123,-14.1801202429273,-301.336787011322
738546.47331138013396412134,-21.8148594622639,-14.1247291482284,-301.355250709555
738546.47331147058866918087,-21.9071779534288,-14.1985839411603,-301.355250709555
738546.47331156104337424040,-21.8056276131474,-14.1247291482284,-301.355250709555
738546.47331165149807929993,-21.9071779534288,-14.1893520920438,-301.401409955138
738546.47331174195278435946,-21.8148594622639,-14.1062654499954,-301.429105502487
738546.47331183229107409716,-21.8979461043123,-14.1893520920438,-301.410641804254
738546.47331192274577915668,-21.8056276131474,-14.1154972991119,-301.401409955138
738546.47331201320048421621,-21.8979461043123,-14.1801202429273,-301.401409955138
738546.47331210365518927574,-21.8056276131474,-14.1154972991119,-301.419873653371
738546.47331219410989433527,-21.9071779534288,-14.1893520920438,-301.419873653371
738546.47331228456459939480,-21.8887142551958,-14.1801202429273,-301.364482558672
738546.47331237501930445433,-21.8240913113804,-14.1247291482284,-301.382946256905
738546.47331246535759419203,-21.8979461043123,-14.1893520920438,-301.419873653371
738546.47331255581229925156,-21.8240913113804,-14.1339609973449,-301.364482558672
738546.47331264626700431108,-21.9071779534288,-14.1985839411603,-301.401409955138
738546.47331273672170937061,-21.8148594622639,-14.1339609973449,-301.438337351604
738546.47331282717641443014,-21.9164098025452,-14.2078157902768,-301.419873653371
738546.47331291763111948967,-21.8425550096133,-14.1431928464614,-301.355250709555
738546.47331300808582454920,-21.9441053498947,-14.2262794885098,-301.318323313089
738546.47331309842411428690,-21.8425550096133,-14.1431928464614,-301.318323313089
738546.47331318887881934643,-21.9441053498947,-14.2262794885098,-301.401409955138
738546.47331327933352440596,-21.8517868587298,-14.1616565446944,-301.410641804254
738546.47331336978822946548,-21.9441053498947,-14.2262794885098,-301.44756920072
738546.47331346024293452501,-21.8794824060793,-14.1708883938108,-301.401409955138
738546.47331355069763958454,-21.9441053498947,-14.2262794885098,-301.401409955138
738546.47331364115234464407,-21.8887142551958,-14.1801202429273,-301.456801049837
738546.47331373149063438177,-21.9348735007782,-14.2262794885098,-301.438337351604
738546.47331382194533944130,-21.9071779534288,-14.1985839411603,-301.373714407788
738546.47331391240004450083,-21.9348735007782,-14.2078157902768,-301.419873653371
738546.47331400285474956036,-21.9256416516617,-14.1985839411603,-301.410641804254
738546.47331409330945461988,-21.8794824060793,-14.1708883938108,-301.410641804254
738546.47331418376415967941,-21.9810327463607,-14.2447431867428,-301.392178106021
738546.47331427421886473894,-21.8702505569628,-14.1708883938108,-301.336787011322
738546.47331436455715447664,-21.9256416516617,-14.2262794885098,-301.364482558672
738546.47331445501185953617,-21.8425550096133,-14.1616565446944,-301.364482558672
738546.47331454546656459570,-21.9533371990112,-14.2355113376263,-301.373714407788
738546.47331463592126965523,-21.8517868587298,-14.1431928464614,-301.364482558672
738546.47331472637597471476,-21.8610187078463,-14.1431928464614,-301.336787011322
738546.47331481683067977428,-21.7871639149144,-14.078569902646,-301.373714407788
738546.47331490728538483381,-21.8702505569628,-14.1247291482284,-301.392178106021
738546.47331499774008989334,-21.8425550096133,-14.1339609973449,-301.382946256905
738546.47331508807837963104,-21.9164098025452,-14.1708883938108,-301.392178106021
738546.47331517853308469057,-21.9256416516617,-14.1801202429273,-301.355250709555
738546.47331526898778975010,-21.9533371990112,-14.2170476393933,-301.355250709555
738546.47331535944249480963,-21.9902645954772,-14.2355113376263,-301.355250709555
738546.47331544989719986916,-21.9810327463607,-14.2355113376263,-301.364482558672
738546.47331554035190492868,-22.0087282937101,-14.2539750358592,-301.364482558672
738546.47331563080660998821,-21.9810327463607,-14.2262794885098,-301.327555162206
738546.47331572114489972591,-22.0271919919431,-14.2724387340922,-301.410641804254
738546.47331581159960478544,-21.9625690481277,-14.2262794885098,-301.373714407788
738546.47331590205430984497,-22.0456556901761,-14.2724387340922,-301.364482558672
738546.47331599250901490450,-21.9810327463607,-14.2262794885098,-301.401409955138
738546.47331608296371996403,-22.119510483108,-14.2724387340922,-301.382946256905
738546.47331617341842502356,-22.1287423322245,-14.1893520920438,-301.382946256905
738546.47331626387313008308,-21.9902645954772,-13.9493240150151,-301.318323313089
738546.47331635421141982079,-21.3717307046724,-13.4415723136082,-301.189077425459
738546.47331644466612488031,-20.4854731894894,-13.17384868923,-301.142918179876
738546.47331653512082993984,-20.5131687368389,-13.6908322397534,-301.142918179876
738546.47331662557553499937,-21.5194402905362,-14.2355113376263,-301.281395916623
738546.47331671603024005890,-22.0364238410596,-14.2909024323252,-301.44756920072
738546.47331680648494511843,-22.082583086642,-14.0878017517624,-301.456801049837
738546.47331689693965017796,-22.0733512375256,-14.1154972991119,-301.429105502487
738546.47331698727793991566,-21.9625690481277,-14.1339609973449,-301.401409955138
738546.47331707773264497519,-22.0271919919431,-14.2262794885098,-301.47526474807
738546.47331716818735003471,-21.9441053498947,-14.1708883938108,-301.438337351604
738546.47331725864205509424,-22.0364238410596,-14.2355113376263,-301.382946256905
738546.47331734909676015377,-21.9533371990112,-14.1708883938108,-301.429105502487
738546.47331743955146521330,-22.0271919919431,-14.2355113376263,-301.47526474807
738546.47331753000617027283,-21.9348735007782,-14.1616565446944,-301.373714407788
738546.47331762034446001053,-22.0271919919431,-14.2170476393933,-301.429105502487
738546.47331771079916507006,-21.9256416516617,-14.1431928464614,-301.438337351604
738546.47331780125387012959,-21.9625690481277,-14.1708883938108,-301.456801049837
738546.47331789170857518911,-21.9625690481277,-14.1708883938108,-301.382946256905
738546.47331798216328024864,-21.9256416516617,-14.1339609973449,-301.438337351604
738546.47331807261798530817,-21.9625690481277,-14.1524246955779,-301.47526474807
738546.47331816307269036770,-21.8887142551958,-14.0878017517624,-301.327555162206
738546.47331825352739542723,-21.9348735007782,-14.1154972991119,-301.346018860439
738546.47331834386568516493,-21.8425550096133,-14.0324106570635,-301.346018860439
738546.47331843432039022446,-21.8979461043123,-14.060106204413,-301.327555162206
738546.47331852477509528399,-21.7871639149144,-13.9493240150151,-301.318323313089
738546.47331861522980034351,-21.8517868587298,-13.9770195623646,-301.299859614856
738546.47331870568450540304,-21.722540971099,-13.8570055238502,-301.318323313089
738546.47331879613921046257,-21.7779320657979,-13.8662373729667,-301.299859614856
738546.47331888659391552210,-21.6579180272835,-13.7462233344523,-301.272164067507
738546.47331897693220525980,-21.741004669332,-13.7831507309183,-301.29062776574
738546.47331906738691031933,-21.6117587817011,-13.6816003906369,-301.327555162206
738546.47331915784161537886,-21.6948454237495,-13.7369914853359,-301.336787011322
738546.47331924829632043839,-21.6025269325846,-13.6816003906369,-301.364482558672
738546.47331933875102549791,-21.6763817255165,-13.7554551835688,-301.309091463973
738546.47331942920573055744,-21.6394543290506,-13.7462233344523,-301.336787011322
738546.47331951966043561697,-21.7317728202155,-13.8385418256172,-301.327555162206
738546.47331960999872535467,-21.722540971099,-13.8662373729667,-301.309091463973
738546.47331970045343041420,-21.7133091219825,-13.8754692220832,-301.327555162206
738546.47331979090813547373,-21.8425550096133,-14.004715109714,-301.346018860439
738546.47331988136284053326,-21.7963957640309,-13.9954832605976,-301.364482558672
738546.47331997181754559278,-21.9256416516617,-14.1062654499954,-301.373714407788
738546.47332006227225065231,-21.8517868587298,-14.0693380535295,-301.336787011322
738546.47332015272695571184,-21.9625690481277,-14.1616565446944,-301.272164067507
738546.47332024306524544954,-21.8794824060793,-14.1062654499954,-301.355250709555
738546.47332033351995050907,-21.9810327463607,-14.1801202429273,-301.392178106021
738546.47332042397465556860,-21.9071779534288,-14.1339609973449,-301.392178106021
738546.47332051442936062813,-21.9902645954772,-14.1893520920438,-301.382946256905
738546.47332060488406568766,-21.9164098025452,-14.1339609973449,-301.410641804254
738546.47332069533877074718,-21.9718008972442,-14.1801202429273,-301.456801049837
738546.47332078579347580671,-21.9071779534288,-14.1339609973449,-301.419873653371
738546.47332087613176554441,-21.9625690481277,-14.1708883938108,-301.382946256905
738546.47332096658647060394,-21.9256416516617,-14.1431928464614,-301.438337351604
738546.47332105704117566347,-21.9441053498947,-14.1524246955779,-301.438337351604
738546.47332114749588072300,-21.9348735007782,-14.1524246955779,-301.429105502487
738546.47332123795058578253,-21.9256416516617,-14.1339609973449,-301.410641804254
738546.47332132840529084206,-21.9441053498947,-14.1524246955779,-301.419873653371
738546.47332141885999590158,-21.9164098025452,-14.1339609973449,-301.419873653371
738546.47332150931470096111,-21.9533371990112,-14.1616565446944,-301.401409955138
738546.47332159965299069881,-21.8979461043123,-14.1154972991119,-301.429105502487
738546.47332169010769575834,-21.9810327463607,-14.1801202429273,-301.44756920072
738546.47332178056240081787,-21.9164098025452,-14.1339609973449,-301.466032898953
738546.47332187101710587740,-21.9810327463607,-14.1893520920438,-301.419873653371
738546.47332196147181093693,-21.9348735007782,-14.1524246955779,-301.456801049837
738546.47332205192651599646,-21.9902645954772,-14.1893520920438,-301.44756920072
738546.47332214238122105598,-21.9625690481277,-14.1708883938108,-301.419873653371
738546.47332223271951079369,-21.9810327463607,-14.1893520920438,-301.466032898953
738546.47332232317421585321,-21.9810327463607,-14.1801202429273,-301.355250709555
738546.47332241362892091274,-21.9810327463607,-14.1893520920438,-301.364482558672
738546.47332250408362597227,-21.9902645954772,-14.1985839411603,-301.382946256905
738546.47332259453833103180,-21.9718008972442,-14.1801202429273,-301.373714407788
738546.47332268499303609133,-22.0179601428266,-14.2170476393933,-301.401409955138
738546.47332277544774115086,-21.9718008972442,-14.1801202429273,-301.410641804254
738546.47332286578603088856,-22.0364238410596,-14.2262794885098,-301.382946256905
738546.47332295624073594809,-21.9810327463607,-14.1801202429273,-301.392178106021
738546.47332304669544100761,-22.0456556901761,-14.2355113376263,-301.401409955138
738546.47332313715014606714,-21.9625690481277,-14.1708883938108,-301.382946256905
738546.47332322760485112667,-22.0641193884091,-14.2447431867428,-301.401409955138
738546.47332331805955618620,-21.9810327463607,-14.1708883938108,-301.419873653371
738546.47332340851426124573,-22.0271919919431,-14.2078157902768,-301.429105502487
738546.47332349885255098343,-22.0179601428266,-14.2078157902768,-301.410641804254
738546.47332358930725604296,-22.0271919919431,-14.2078157902768,-301.410641804254
738546.47332367976196110249,-22.0364238410596,-14.2078157902768,-301.309091463973
738546.47332377021666616201,-22.0087282937101,-14.1985839411603,-301.392178106021
738546.47332386067137122154,-22.0456556901761,-14.2262794885098,-301.392178106021
738546.47332395112607628107,-21.9994964445936,-14.1893520920438,-301.346018860439
738546.47332404158078134060,-22.0456556901761,-14.2262794885098,-301.382946256905
738546.47332413191907107830,-21.9625690481277,-14.1616565446944,-301.382946256905
738546.47332422237377613783,-22.0179601428266,-14.2262794885098,-301.336787011322
738546.47332431282848119736,-21.9533371990112,-14.1708883938108,-301.401409955138
738546.47332440328318625689,-22.0456556901761,-14.2078157902768,-301.382946256905
738546.47332449373789131641,-21.9071779534288,-14.0878017517624,-301.382946256905
738546.47332458419259637594,-21.9718008972442,-14.1339609973449,-301.373714407788
738546.47332467464730143547,-21.8887142551958,-14.0693380535295,-301.392178106021
738546.47332476510200649500,-22.0364238410596,-14.1893520920438,-301.373714407788
738546.47332485544029623270,-21.9533371990112,-14.1154972991119,-301.392178106021
738546.47332494589500129223,-22.0733512375256,-14.2078157902768,-301.466032898953
738546.47332503634970635176,-21.9902645954772,-14.1708883938108,-301.438337351604
738546.47332512680441141129,-22.119510483108,-14.2539750358592,-301.419873653371
738546.47332521725911647081,-22.0548875392926,-14.2170476393933,-301.419873653371
738546.47332530771382153034,-22.0456556901761,-14.2262794885098,-301.44756920072
738546.47332539816852658987,-22.119510483108,-14.2724387340922,-301.466032898953
738546.47332548850681632757,-22.0641193884091,-14.2170476393933,-301.429105502487
738546.47332557896152138710,-22.137974181341,-14.2816705832087,-301.466032898953
738546.47332566941622644663,-22.0548875392926,-14.2170476393933,-301.466032898953
738546.47332575987093150616,-22.1472060304575,-14.2909024323252,-301.419873653371
738546.47332585032563656569,-22.101046784875,-14.2170476393933,-301.392178106021
738546.47332594078034162521,-22.3041474654378,-14.2724387340922,-301.521423993652
738546.47332603123504668474,-22.0918149357585,-14.04164250618,-301.429105502487
738546.47332612157333642244,-21.7133091219825,-13.6539048432875,-301.253700369274
738546.47332621202804148197,-20.7531968138676,-13.229239783929,-301.179845576342
738546.47332630248274654150,-20.420850245674,-13.5708182012391,-301.198309274575
738546.47332639293745160103,-21.307107760857,-14.0324106570635,-301.336787011322
738546.47332648339215666056,-22.0271919919431,-14.2447431867428,-301.466032898953
738546.47332657384686172009,-22.156437879574,-14.0970336008789,-301.466032898953
738546.47332666430156677961,-22.1472060304575,-14.1154972991119,-301.438337351604
738546.47332675463985651731,-22.0548875392926,-14.1339609973449,-301.382946256905
738546.47332684509456157684,-22.101046784875,-14.2078157902768,-301.438337351604
738546.47332693554926663637,-22.0918149357585,-14.2078157902768,-301.484496597186
738546.47332702600397169590,-22.101046784875,-14.2170476393933,-301.373714407788
738546.47332711645867675543,-22.1472060304575,-14.2539750358592,-301.410641804254
738546.47332720691338181496,-22.0456556901761,-14.1708883938108,-301.327555162206
738546.47332729736808687449,-22.137974181341,-14.2447431867428,-301.438337351604
738546.47332738770637661219,-22.0456556901761,-14.1708883938108,-301.382946256905
738546.47332747816108167171,-22.1287423322245,-14.2262794885098,-301.44756920072
738546.47332756861578673124,-22.0364238410596,-14.1616565446944,-301.456801049837
738546.47332765907049179077,-22.0918149357585,-14.1985839411603,-301.373714407788
738546.47332774952519685030,-22.0179601428266,-14.1339609973449,-301.438337351604
738546.47332783997990190983,-22.0641193884091,-14.1616565446944,-301.382946256905
738546.47332793043460696936,-22.0087282937101,-14.1062654499954,-301.382946256905
738546.47332802088931202888,-22.0179601428266,-14.1062654499954,-301.346018860439
738546.47332811122760176659,-21.9810327463607,-14.060106204413,-301.346018860439
738546.47332820168230682611,-21.9625690481277,-14.0324106570635,-301.309091463973
738546.47332829213701188564,-21.9348735007782,-13.9954832605976,-301.336787011322
738546.47332838259171694517,-21.8887142551958,-13.9400921658986,-301.318323313089
738546.47332847304642200470,-21.8794824060793,-13.8939329203162,-301.272164067507
738546.47332856350112706423,-21.8056276131474,-13.8200781273843,-301.327555162206
738546.47332865395583212376,-21.8240913113804,-13.8016144291513,-301.355250709555
738546.47332874429412186146,-21.7317728202155,-13.7185277871029,-301.29062776574
738546.47332883474882692099,-21.7779320657979,-13.7369914853359,-301.336787011322
738546.47332892520353198051,-21.6671498764,-13.644672994171,-301.346018860439
738546.47332901565823704004,-21.7317728202155,-13.6908322397534,-301.327555162206
738546.47332910611294209957,-21.6763817255165,-13.6539048432875,-301.272164067507
738546.47332919656764715910,-21.7133091219825,-13.7092959379864,-301.355250709555
738546.47332928702235221863,-21.704077272866,-13.7369914853359,-301.392178106021
738546.47332937736064195633,-21.741004669332,-13.8016144291513,-301.346018860439
738546.47332946781534701586,-21.7779320657979,-13.8662373729667,-301.373714407788
738546.47332955827005207539,-21.8148594622639,-13.9216284676656,-301.392178106021
738546.47332964872475713491,-21.8887142551958,-13.9954832605976,-301.410641804254
738546.47332973917946219444,-21.8979461043123,-14.023178807947,-301.419873653371
738546.47332982963416725397,-21.9718008972442,-14.0970336008789,-301.47526474807
738546.47332992008887231350,-21.9441053498947,-14.078569902646,-301.466032898953
738546.47333001042716205120,-22.0271919919431,-14.1431928464614,-301.410641804254
738546.47333010088186711073,-21.9718008972442,-14.1154972991119,-301.44756920072
738546.47333019133657217026,-22.0548875392926,-14.1801202429273,-301.484496597186
738546.47333028179127722979,-21.9810327463607,-14.1154972991119,-301.401409955138
738546.47333037224598228931,-22.0733512375256,-14.1985839411603,-301.466032898953
738546.47333046270068734884,-21.9902645954772,-14.1154972991119,-301.44756920072
738546.47333055315539240837,-22.082583086642,-14.1893520920438,-301.419873653371
738546.47333064349368214607,-21.9810327463607,-14.1154972991119,-301.410641804254
738546.47333073394838720560,-22.082583086642,-14.1893520920438,-301.364482558672
738546.47333082440309226513,-22.0456556901761,-14.1708883938108,-301.382946256905
738546.47333091485779732466,-22.0087282937101,-14.1431928464614,-301.327555162206
738546.47333100531250238419,-22.0456556901761,-14.1801202429273,-301.382946256905
738546.47333109576720744371,-21.9994964445936,-14.1339609973449,-301.401409955138
738546.47333118622191250324,-22.0641193884091,-14.1893520920438,-301.438337351604
738546.47333127667661756277,-21.9902645954772,-14.1339609973449,-301.373714407788
738546.47333136701490730047,-22.0641193884091,-14.1893520920438,-301.419873653371
738546.47333145746961236000,-21.9810327463607,-14.1247291482284,-301.438337351604
738546.47333154792431741953,-22.0733512375256,-14.1985839411603,-301.382946256905
738546.47333163837902247906,-21.9810327463607,-14.1339609973449,-301.410641804254
738546.47333172883372753859,-22.0918149357585,-14.2170476393933,-301.456801049837
738546.47333181928843259811,-21.9994964445936,-14.1431928464614,-301.410641804254
738546.47333190974313765764,-22.0918149357585,-14.2078157902768,-301.382946256905
738546.47333200008142739534,-22.0087282937101,-14.1431928464614,-301.382946256905
738546.47333209053613245487,-22.101046784875,-14.2262794885098,-301.392178106021
738546.47333218099083751440,-22.0271919919431,-14.1524246955779,-301.410641804254
738546.47333227144554257393,-22.101046784875,-14.2262794885098,-301.373714407788
738546.47333236190024763346,-22.0456556901761,-14.1708883938108,-301.382946256905
738546.47333245235495269299,-22.1102786339915,-14.2355113376263,-301.392178106021
738546.47333254280965775251,-22.0548875392926,-14.1801202429273,-301.401409955138
738546.47333263314794749022,-22.0918149357585,-14.2170476393933,-301.392178106021
738546.47333272360265254974,-22.119510483108,-14.2447431867428,-301.382946256905
738546.47333281405735760927,-22.0364238410596,-14.1708883938108,-301.373714407788
738546.47333290451206266880,-22.1287423322245,-14.2447431867428,-301.364482558672
738546.47333299496676772833,-22.0456556901761,-14.1708883938108,-301.419873653371
738546.47333308542147278786,-22.137974181341,-14.2539750358592,-301.401409955138
738546.47333317587617784739,-22.0456556901761,-14.1801202429273,-301.392178106021
738546.47333326621446758509,-22.137974181341,-14.2539750358592,-301.419873653371
738546.47333335666917264462,-22.0548875392926,-14.1893520920438,-301.392178106021
738546.47333344712387770414,-22.137974181341,-14.2539750358592,-301.438337351604
738546.47333353757858276367,-22.0641193884091,-14.1985839411603,-301.429105502487
738546.47333362803328782320,-22.1287423322245,-14.2539750358592,-301.410641804254
738546.47333371848799288273,-22.0733512375256,-14.2078157902768,-301.438337351604
738546.47333380894269794226,-22.119510483108,-14.2447431867428,-301.466032898953
738546.47333389928098767996,-22.082583086642,-14.2170476393933,-301.456801049837
738546.47333398973569273949,-22.1102786339915,-14.2355113376263,-301.419873653371
738546.47333408019039779902,-22.0918149357585,-14.2262794885098,-301.466032898953
738546.47333417064510285854,-22.0918149357585,-14.2262794885098,-301.29062776574
738546.47333426109980791807,-22.1102786339915,-14.2262794885098,-301.355250709555
738546.47333435155451297760,-22.0918149357585,-14.2170476393933,-301.484496597186
738546.47333444200921803713,-22.119510483108,-14.2355113376263,-301.456801049837
738546.47333453246392309666,-22.0641193884091,-14.1985839411603,-301.466032898953
738546.47333462280221283436,-22.1287423322245,-14.2539750358592,-301.456801049837
738546.47333471325691789389,-22.0179601428266,-14.1893520920438,-301.466032898953
738546.47333480371162295341,-22.0733512375256,-14.2355113376263,-301.456801049837
738546.47333489416632801294,-22.0364238410596,-14.1893520920438,-301.410641804254
738546.47333498462103307247,-22.082583086642,-14.2078157902768,-301.44756920072
738546.47333507507573813200,-21.9718008972442,-14.1154972991119,-301.438337351604
738546.47333516553044319153,-21.9718008972442,-14.1154972991119,-301.392178106021
738546.47333525586873292923,-22.0087282937101,-14.1247291482284,-301.456801049837
738546.47333534632343798876,-22.0179601428266,-14.1616565446944,-301.456801049837
738546.47333543677814304829,-22.0733512375256,-14.1801202429273,-301.438337351604
738546.47333552723284810781,-22.0733512375256,-14.1985839411603,-301.438337351604
738546.47333561768755316734,-22.137974181341,-14.2447431867428,-301.456801049837
738546.47333570814225822687,-22.1102786339915,-14.2262794885098,-301.466032898953
738546.47333579859696328640,-22.1656697286904,-14.2816705832087,-301.44756920072
738546.47333588893525302410,-22.119510483108,-14.2355113376263,-301.466032898953
738546.47333597938995808363,-22.2025971251564,-14.3001342814417,-301.466032898953
738546.47333606984466314316,-22.119510483108,-14.2447431867428,-301.429105502487
738546.47333616029936820269,-22.1933652760399,-14.3001342814417,-301.456801049837
738546.47333625075407326221,-22.1102786339915,-14.2170476393933,-301.392178106021
738546.47333634120877832174,-22.2579882198553,-14.3093661305582,-301.410641804254
738546.47333643166348338127,-22.2764519180883,-14.2632068849757,-301.419873653371
738546.47333652200177311897,-22.2856837672048,-14.2078157902768,-301.373714407788
738546.47333661245647817850,-22.0271919919431,-13.8847010711997,-301.364482558672
738546.47333670291118323803,-21.3163396099734,-13.3954130680258,-301.281395916623
738546.47333679336588829756,-20.439313943907,-13.3492538224433,-301.179845576342
738546.47333688382059335709,-20.9193700979644,-13.8200781273843,-301.244468520157
738546.47333697427529841661,-21.7963957640309,-14.2262794885098,-301.438337351604
738546.47333706473000347614,-22.1933652760399,-14.1708883938108,-301.502960295419
738546.47333715506829321384,-22.2395245216224,-14.1339609973449,-301.382946256905
738546.47333724552299827337,-22.0918149357585,-14.0970336008789,-301.44756920072
738546.47333733597770333290,-22.1656697286904,-14.2355113376263,-301.44756920072
738546.47333742643240839243,-22.0918149357585,-14.1893520920438,-301.382946256905
738546.47333751688711345196,-22.2025971251564,-14.2632068849757,-301.44756920072
738546.47333760734181851149,-22.0918149357585,-14.1985839411603,-301.44756920072
738546.47333769779652357101,-22.1841334269234,-14.2632068849757,-301.281395916623
738546.47333778813481330872,-22.0918149357585,-14.1893520920438,-301.336787011322
738546.47333787858951836824,-22.1841334269234,-14.2539750358592,-301.401409955138
738546.47333796904422342777,-22.082583086642,-14.1708883938108,-301.401409955138
738546.47333805949892848730,-22.1656697286904,-14.2262794885098,-301.355250709555
738546.47333814995363354683,-22.0733512375256,-14.1616565446944,-301.382946256905
738546.47333824040833860636,-22.137974181341,-14.1985839411603,-301.382946256905
738546.47333833086304366589,-22.137974181341,-14.1985839411603,-301.438337351604
738546.47333842131774872541,-22.0364238410596,-14.1247291482284,-301.382946256905
738546.47333851165603846312,-22.1102786339915,-14.1524246955779,-301.438337351604
738546.47333860211074352264,-21.9994964445936,-14.060106204413,-301.419873653371
738546.47333869256544858217,-22.0733512375256,-14.1062654499954,-301.382946256905
738546.47333878302015364170,-21.9441053498947,-13.9954832605976,-301.410641804254
738546.47333887347485870123,-22.0087282937101,-14.023178807947,-301.419873653371
738546.47333896392956376076,-21.8887142551958,-13.9031647694327,-301.392178106021
738546.47333905438426882029,-21.9533371990112,-13.9308603167821,-301.382946256905
738546.47333914472255855799,-21.8148594622639,-13.8016144291513,-301.373714407788
738546.47333923517726361752,-21.8794824060793,-13.8293099765007,-301.364482558672
738546.47333932563196867704,-21.7594683675649,-13.7277596362194,-301.318323313089
738546.47333941608667373657,-21.8056276131474,-13.7462233344523,-301.336787011322
738546.47333950654137879610,-21.722540971099,-13.6723685415204,-301.346018860439
738546.47333959699608385563,-21.7502365184484,-13.7092959379864,-301.253700369274
738546.47333968745078891516,-21.7133091219825,-13.7000640888699,-301.309091463973
738546.47333977778907865286,-21.7687002166814,-13.7646870326853,-301.309091463973
738546.47333986824378371239,-21.7687002166814,-13.7923825800348,-301.318323313089
738546.47333995869848877192,-21.8240913113804,-13.8754692220832,-301.336787011322
738546.47334004915319383144,-21.8610187078463,-13.9400921658986,-301.346018860439
738546.47334013960789889097,-21.8333231604968,-13.9216284676656,-301.346018860439
738546.47334023006260395050,-21.9718008972442,-14.0508743552965,-301.373714407788
738546.47334032051730901003,-21.9164098025452,-14.0139469588305,-301.392178106021
738546.47334041085559874773,-22.0364238410596,-14.1339609973449,-301.392178106021
738546.47334050131030380726,-21.9810327463607,-14.0970336008789,-301.401409955138
738546.47334059176500886679,-22.0733512375256,-14.1708883938108,-301.419873653371
738546.47334068221971392632,-22.0179601428266,-14.1247291482284,-301.410641804254
738546.47334077267441898584,-22.082583086642,-14.1801202429273,-301.410641804254
738546.47334086312912404537,-22.0364238410596,-14.1431928464614,-301.429105502487
738546.47334095358382910490,-22.0733512375256,-14.1708883938108,-301.419873653371
738546.47334104392211884260,-22.0456556901761,-14.1524246955779,-301.410641804254
738546.47334113437682390213,-22.0641193884091,-14.1616565446944,-301.419873653371
738546.47334122483152896166,-22.0641193884091,-14.1616565446944,-301.29062776574
738546.47334131528623402119,-22.0456556901761,-14.1524246955779,-301.373714407788
738546.47334140574093908072,-22.0733512375256,-14.1708883938108,-301.512192144536
738546.47334149619564414024,-22.0364238410596,-14.1431928464614,-301.484496597186
738546.47334158665034919977,-22.0733512375256,-14.1801202429273,-301.438337351604
738546.47334167710505425930,-22.0271919919431,-14.1339609973449,-301.410641804254
738546.47334176744334399700,-22.0918149357585,-14.1893520920438,-301.502960295419
738546.47334185789804905653,-22.0179601428266,-14.1339609973449,-301.484496597186
738546.47334194835275411606,-22.1102786339915,-14.1985839411603,-301.392178106021
738546.47334203880745917559,-22.0456556901761,-14.1524246955779,-301.438337351604
738546.47334212926216423512,-22.0918149357585,-14.1801202429273,-301.493728446303
738546.47334221971686929464,-22.0548875392926,-14.1708883938108,-301.466032898953
738546.47334231017157435417,-22.0733512375256,-14.1801202429273,-301.392178106021
738546.47334240050986409187,-22.0733512375256,-14.1801202429273,-301.47526474807
738546.47334249096456915140,-22.082583086642,-14.1893520920438,-301.493728446303
738546.47334258141927421093,-22.101046784875,-14.1985839411603,-301.410641804254
738546.47334267187397927046,-22.0733512375256,-14.1893520920438,-301.47526474807
738546.47334276232868432999,-22.1287423322245,-14.2170476393933,-301.44756920072
738546.47334285278338938951,-22.0733512375256,-14.1893520920438,-301.401409955138
738546.47334294323809444904,-22.1472060304575,-14.2262794885098,-301.382946256905
738546.47334303357638418674,-22.0733512375256,-14.1801202429273,-301.410641804254
738546.47334312403108924627,-22.1472060304575,-14.2447431867428,-301.419873653371
738546.47334321448579430580,-22.0733512375256,-14.1801202429273,-301.373714407788
738546.47334330494049936533,-22.156437879574,-14.2447431867428,-301.466032898953
738546.47334339539520442486,-22.0733512375256,-14.1801202429273,-301.484496597186
738546.47334348584990948439,-22.1656697286904,-14.2539750358592,-301.44756920072
738546.47334357630461454391,-22.0733512375256,-14.1708883938108,-301.47526474807
738546.47334366664290428162,-22.156437879574,-14.2539750358592,-301.47526474807
738546.47334375709760934114,-22.0733512375256,-14.1801202429273,-301.47526474807
738546.47334384755231440067,-22.1656697286904,-14.2447431867428,-301.401409955138
738546.47334393800701946020,-22.1472060304575,-14.2355113376263,-301.47526474807
738546.47334402846172451973,-22.082583086642,-14.1893520920438,-301.410641804254
738546.47334411891642957926,-22.137974181341,-14.2447431867428,-301.401409955138
738546.47334420937113463879,-22.082583086642,-14.1985839411603,-301.429105502487
738546.47334429970942437649,-22.1656697286904,-14.2539750358592,-301.466032898953
738546.47334439016412943602,-22.082583086642,-14.1893520920438,-301.429105502487
738546.47334448061883449554,-22.1749015778069,-14.2632068849757,-301.401409955138
738546.47334457107353955507,-22.0733512375256,-14.1893520920438,-301.419873653371
738546.47334466152824461460,-22.1749015778069,-14.2632068849757,-301.466032898953
738546.47334475198294967413,-22.0733512375256,-14.1893520920438,-301.26293221839
738546.47334484243765473366,-22.1749015778069,-14.2724387340922,-301.382946256905
738546.47334493289235979319,-22.0733512375256,-14.1893520920438,-301.493728446303
738546.47334502323064953089,-22.1656697286904,-14.2539750358592,-301.456801049837
738546.47334511368535459042,-22.082583086642,-14.1893520920438,-301.47526474807
738546.47334520414005964994,-22.156437879574,-14.2447431867428,-301.493728446303
738546.47334529459476470947,-22.0641193884091,-14.1801202429273,-301.456801049837
738546.47334538504946976900,-22.1472060304575,-14.2539750358592,-301.429105502487
738546.47334547550417482853,-22.0548875392926,-14.1893520920438,-301.502960295419
738546.47334556595887988806,-22.0641193884091,-14.2078157902768,-301.502960295419
738546.47334565629716962576,-22.0918149357585,-14.2170476393933,-301.410641804254
738546.47334574675187468529,-22.0733512375256,-14.2078157902768,-301.44756920072
738546.47334583720657974482,-22.1287423322245,-14.2262794885098,-301.47526474807
738546.47334592766128480434,-21.9441053498947,-14.0693380535295,-301.438337351604
738546.47334601811598986387,-22.0641193884091,-14.1524246955779,-301.373714407788
738546.47334610857069492340,-22.0271919919431,-14.1431928464614,-301.484496597186
738546.47334619902539998293,-22.137974181341,-14.2262794885098,-301.502960295419
738546.47334628936368972063,-22.082583086642,-14.1708883938108,-301.44756920072
738546.47334637981839478016,-22.1841334269234,-14.2632068849757,-301.484496597186
738546.47334647027309983969,-22.119510483108,-14.2170476393933,-301.47526474807
738546.47334656072780489922,-22.2025971251564,-14.2909024323252,-301.456801049837
738546.47334665118250995874,-22.1472060304575,-14.2447431867428,-301.512192144536
738546.47334674163721501827,-22.2025971251564,-14.2816705832087,-301.493728446303
738546.47334683209192007780,-22.137974181341,-14.2355113376263,-301.410641804254
738546.47334692243020981550,-22.1749015778069,-14.2539750358592,-301.392178106021
738546.47334701288491487503,-22.1749015778069,-14.2632068849757,-301.410641804254
738546.47334710333961993456,-22.2025971251564,-14.2632068849757,-301.401409955138
738546.47334719379432499409,-22.3410748619037,-14.2816705832087,-301.392178106021
738546.47334728424903005362,-22.3226111636708,-14.1985839411603,-301.47526474807
738546.47334737470373511314,-22.0548875392926,-13.8570055238502,-301.392178106021
738546.47334746515844017267,-21.251716666158,-13.3400219733268,-301.26293221839
738546.47334755549672991037,-20.4670094912564,-13.3861812189093,-301.226004821925
738546.47334764595143496990,-20.5593279824213,-13.589281899472,-301.235236671041
738546.47334773640614002943,-21.5932950834681,-14.1801202429273,-301.410641804254
738546.47334782686084508896,-22.101046784875,-14.2078157902768,-301.521423993652
738546.47334791731555014849,-22.2764519180883,-14.1247291482284,-301.47526474807
738546.47334800777025520802,-22.1749015778069,-14.0970336008789,-301.484496597186
738546.47334809822496026754,-22.1841334269234,-14.1801202429273,-301.44756920072
738546.47334818867966532707,-22.1749015778069,-14.2262794885098,-301.382946256905
738546.47334827901795506477,-22.1841334269234,-14.2262794885098,-301.318323313089
738546.47334836947266012430,-22.1749015778069,-14.2170476393933,-301.336787011322
738546.47334845992736518383,-22.156437879574,-14.2078157902768,-301.419873653371
738546.47334855038207024336,-22.2025971251564,-14.2447431867428,-301.438337351604
738546.47334864083677530289,-22.156437879574,-14.2078157902768,-301.429105502487
738546.47334873129148036242,-22.2025971251564,-14.2447431867428,-301.484496597186
738546.47334882174618542194,-22.1287423322245,-14.1801202429273,-301.512192144536
738546.47334891208447515965,-22.1841334269234,-14.2170476393933,-301.466032898953
738546.47334900253918021917,-22.101046784875,-14.1524246955779,-301.438337351604
738546.47334909299388527870,-22.1749015778069,-14.1985839411603,-301.401409955138
738546.47334918344859033823,-22.0733512375256,-14.1062654499954,-301.401409955138
738546.47334927390329539776,-22.156437879574,-14.1708883938108,-301.466032898953
738546.47334936435800045729,-22.0271919919431,-14.0693380535295,-301.410641804254
738546.47334945481270551682,-22.0641193884091,-14.0970336008789,-301.392178106021
738546.47334954515099525452,-22.0364238410596,-14.060106204413,-301.401409955138
738546.47334963560570031404,-22.0087282937101,-14.0139469588305,-301.382946256905
738546.47334972606040537357,-21.9994964445936,-13.9770195623646,-301.355250709555
738546.47334981651511043310,-21.9256416516617,-13.8939329203162,-301.336787011322
738546.47334990696981549263,-21.9348735007782,-13.8754692220832,-301.355250709555
738546.47334999742452055216,-21.8517868587298,-13.7831507309183,-301.355250709555
738546.47335008787922561169,-21.8979461043123,-13.8016144291513,-301.364482558672
738546.47335017821751534939,-21.7963957640309,-13.7000640888699,-301.336787011322
738546.47335026867222040892,-21.8610187078463,-13.7369914853359,-301.346018860439
738546.47335035912692546844,-21.7502365184484,-13.6539048432875,-301.336787011322
738546.47335044958163052797,-21.8333231604968,-13.7277596362194,-301.392178106021
738546.47335054003633558750,-21.7317728202155,-13.6816003906369,-301.373714407788
738546.47335063049104064703,-21.8517868587298,-13.8108462782678,-301.364482558672
738546.47335072094574570656,-21.7963957640309,-13.7831507309183,-301.373714407788
738546.47335081128403544426,-21.9164098025452,-13.9123966185491,-301.410641804254
738546.47335090173874050379,-21.8702505569628,-13.9123966185491,-301.456801049837
738546.47335099219344556332,-21.9994964445936,-14.0324106570635,-301.410641804254
738546.47335108264815062284,-21.9718008972442,-14.023178807947,-301.44756920072
738546.47335117310285568237,-22.0641193884091,-14.1062654499954,-301.456801049837
738546.47335126355756074190,-22.0179601428266,-14.078569902646,-301.438337351604
738546.47335135401226580143,-22.0271919919431,-14.078569902646,-301.429105502487
738546.47335144446697086096,-22.1287423322245,-14.1708883938108,-301.466032898953
738546.47335153480526059866,-22.0548875392926,-14.1062654499954,-301.493728446303
738546.47335162525996565819,-22.137974181341,-14.1801202429273,-301.456801049837
738546.47335171571467071772,-22.0456556901761,-14.1062654499954,-301.466032898953
738546.47335180616937577724,-22.1472060304575,-14.1801202429273,-301.327555162206
738546.47335189662408083677,-22.0456556901761,-14.1062654499954,-301.272164067507
738546.47335198707878589630,-22.1472060304575,-14.1801202429273,-301.382946256905
738546.47335207753349095583,-22.0456556901761,-14.1062654499954,-301.382946256905
738546.47335216787178069353,-22.1287423322245,-14.1801202429273,-301.373714407788
738546.47335225832648575306,-22.0548875392926,-14.1062654499954,-301.456801049837
738546.47335234878119081259,-22.119510483108,-14.1616565446944,-301.484496597186
738546.47335243923589587212,-22.0641193884091,-14.1154972991119,-301.466032898953
738546.47335252969060093164,-22.1287423322245,-14.1616565446944,-301.392178106021
738546.47335262014530599117,-22.082583086642,-14.1339609973449,-301.364482558672
738546.47335271060001105070,-22.1102786339915,-14.1616565446944,-301.373714407788
738546.47335280093830078840,-22.082583086642,-14.1431928464614,-301.401409955138
738546.47335289139300584793,-22.1102786339915,-14.1616565446944,-301.382946256905
738546.47335298184771090746,-22.1102786339915,-14.1616565446944,-301.429105502487
738546.47335307230241596699,-22.101046784875,-14.1524246955779,-301.429105502487
738546.47335316275712102652,-22.1287423322245,-14.1801202429273,-301.456801049837
738546.47335325321182608604,-22.0733512375256,-14.1431928464614,-301.419873653371
738546.47335334366653114557,-22.1656697286904,-14.2078157902768,-301.44756920072
738546.47335343400482088327,-22.0918149357585,-14.1431928464614,-301.410641804254
738546.47335352445952594280,-22.1656697286904,-14.2078157902768,-301.484496597186
738546.47335361491423100233,-22.101046784875,-14.1524246955779,-301.502960295419
738546.47335370536893606186,-22.1656697286904,-14.2078157902768,-301.401409955138
738546.47335379582364112139,-22.119510483108,-14.1708883938108,-301.493728446303
738546.47335388627834618092,-22.156437879574,-14.1985839411603,-301.438337351604
738546.47335397673305124044,-22.137974181341,-14.1801202429273,-301.44756920072
738546.47335406707134097815,-22.156437879574,-14.1985839411603,-301.438337351604
738546.47335415752604603767,-22.1472060304575,-14.1985839411603,-301.44756920072
738546.47335424798075109720,-22.137974181341,-14.2078157902768,-301.466032898953
738546.47335433843545615673,-22.1656697286904,-14.2262794885098,-301.484496597186
738546.47335442889016121626,-22.137974181341,-14.1985839411603,-301.512192144536
738546.47335451934486627579,-22.1749015778069,-14.2355113376263,-301.466032898953
738546.47335460979957133532,-22.1287423322245,-14.1893520920438,-301.438337351604
738546.47335470025427639484,-22.1841334269234,-14.2355113376263,-301.502960295419
738546.47335479059256613255,-22.119510483108,-14.1801202429273,-301.484496597186
738546.47335488104727119207,-22.1841334269234,-14.2355113376263,-301.438337351604
738546.47335497150197625160,-22.1102786339915,-14.1708883938108,-301.47526474807
738546.47335506195668131113,-22.1749015778069,-14.2262794885098,-301.502960295419
738546.47335515241138637066,-22.1287423322245,-14.1985839411603,-301.466032898953
738546.47335524286609143019,-22.156437879574,-14.2078157902768,-301.364482558672
738546.47335533332079648972,-22.156437879574,-14.2078157902768,-301.373714407788
738546.47335542365908622742,-22.1472060304575,-14.1985839411603,-301.318323313089
738546.47335551411379128695,-22.1656697286904,-14.2170476393933,-301.392178106021
738546.47335560456849634647,-22.137974181341,-14.1985839411603,-301.419873653371
738546.47335569502320140600,-22.1841334269234,-14.2355113376263,-301.484496597186
738546.47335578547790646553,-22.1287423322245,-14.2078157902768,-301.456801049837
738546.47335587593261152506,-22.1841334269234,-14.2447431867428,-301.466032898953
738546.47335596638731658459,-22.1287423322245,-14.1893520920438,-301.502960295419
738546.47335605672560632229,-22.2025971251564,-14.2447431867428,-301.493728446303
738546.47335614718031138182,-22.082583086642,-14.1616565446944,-301.429105502487
738546.47335623763501644135,-22.156437879574,-14.2262794885098,-301.521423993652
738546.47335632808972150087,-22.0733512375256,-14.1524246955779,-301.484496597186
738546.47335641854442656040,-22.1749015778069,-14.2078157902768,-301.466032898953
738546.47335650899913161993,-22.0271919919431,-14.078569902646,-301.456801049837
738546.47335659945383667946,-22.0733512375256,-14.1154972991119,-301.456801049837
738546.47335668979212641716,-21.9994964445936,-14.0508743552965,-301.502960295419
738546.47335678024683147669,-22.1287423322245,-14.1616565446944,-301.47526474807
738546.47335687070153653622,-22.0733512375256,-14.1154972991119,-301.493728446303
738546.47335696115624159575,-22.101046784875,-14.1247291482284,-301.466032898953
738546.47335705161094665527,-22.1841334269234,-14.1985839411603,-301.419873653371
738546.47335714206565171480,-22.156437879574,-14.1801202429273,-301.438337351604
738546.47335723252035677433,-22.2579882198553,-14.2632068849757,-301.438337351604
738546.47335732285864651203,-22.1749015778069,-14.2078157902768,-301.429105502487
738546.47335741331335157156,-22.2672200689718,-14.2724387340922,-301.419873653371
738546.47335750376805663109,-22.1749015778069,-14.2078157902768,-301.44756920072
738546.47335759422276169062,-22.2764519180883,-14.2816705832087,-301.44756920072
738546.47335768467746675014,-22.1749015778069,-14.2170476393933,-301.410641804254
738546.47335777513217180967,-22.2856837672048,-14.2816705832087,-301.401409955138
738546.47335786558687686920,-22.2764519180883,-14.2170476393933,-301.456801049837
738546.47335795604158192873,-22.4610889004181,-14.2539750358592,-301.438337351604
738546.47335804637987166643,-22.2210608233894,-13.9216284676656,-301.382946256905
738546.47335813683457672596,-21.704077272866,-13.4692678609577,-301.26293221839
738546.47335822728928178549,-20.7439649647511,-13.1461531418805,-301.161381878109
738546.47335831774398684502,-20.8916745506149,-13.7739188818018,-301.318323313089
738546.47335840819869190454,-21.7687002166814,-14.2816705832087,-301.47526474807
738546.47335849865339696407,-22.2764519180883,-14.3093661305582,-301.392178106021
738546.47335858910810202360,-22.3041474654378,-14.0878017517624,-301.410641804254
738546.47335867944639176130,-22.2672200689718,-14.1062654499954,-301.401409955138
738546.47335876990109682083,-22.2764519180883,-14.1524246955779,-301.401409955138
738546.47335886035580188036,-22.1656697286904,-14.1431928464614,-301.419873653371
738546.47335895081050693989,-22.2764519180883,-14.2355113376263,-301.299859614856
738546.47335904126521199942,-22.1656697286904,-14.1616565446944,-301.410641804254
738546.47335913171991705894,-22.2672200689718,-14.2355113376263,-301.382946256905
738546.47335922217462211847,-22.1749015778069,-14.1616565446944,-301.419873653371
738546.47335931251291185617,-22.2579882198553,-14.2262794885098,-301.47526474807
738546.47335940296761691570,-22.156437879574,-14.1524246955779,-301.410641804254
738546.47335949342232197523,-22.2395245216224,-14.2078157902768,-301.47526474807
738546.47335958387702703476,-22.1656697286904,-14.1431928464614,-301.512192144536
738546.47335967433173209429,-22.2025971251564,-14.1708883938108,-301.429105502487
738546.47335976478643715382,-22.1472060304575,-14.1247291482284,-301.456801049837
738546.47335985524114221334,-22.1749015778069,-14.1339609973449,-301.47526474807
738546.47335994557943195105,-22.137974181341,-14.0970336008789,-301.438337351604
738546.47336003603413701057,-22.1287423322245,-14.078569902646,-301.410641804254
738546.47336012648884207010,-22.1102786339915,-14.0508743552965,-301.456801049837
738546.47336021694354712963,-22.0733512375256,-14.004715109714,-301.44756920072
738546.47336030739825218916,-22.082583086642,-13.9862514114811,-301.373714407788
738546.47336039785295724869,-22.0087282937101,-13.9031647694327,-301.429105502487
738546.47336048830766230822,-22.0271919919431,-13.8847010711997,-301.438337351604
738546.47336057864595204592,-21.9441053498947,-13.7831507309183,-301.429105502487
738546.47336066910065710545,-21.9902645954772,-13.8108462782678,-301.392178106021
738546.47336075955536216497,-21.9071779534288,-13.7185277871029,-301.410641804254
738546.47336085001006722450,-21.9441053498947,-13.7185277871029,-301.410641804254
738546.47336094046477228403,-21.8702505569628,-13.6539048432875,-301.327555162206
738546.47336103091947734356,-21.8794824060793,-13.6539048432875,-301.382946256905
738546.47336112137418240309,-21.8517868587298,-13.644672994171,-301.410641804254
738546.47336121182888746262,-21.8517868587298,-13.6631366924039,-301.309091463973
738546.47336130216717720032,-21.8702505569628,-13.7092959379864,-301.373714407788
738546.47336139262188225985,-21.8794824060793,-13.7554551835688,-301.392178106021
738546.47336148307658731937,-21.9441053498947,-13.8385418256172,-301.392178106021
738546.47336157353129237890,-21.9441053498947,-13.8754692220832,-301.382946256905
738546.47336166398599743843,-22.0271919919431,-13.9677877132481,-301.419873653371
738546.47336175444070249796,-22.0087282937101,-13.9770195623646,-301.392178106021
738546.47336184489540755749,-22.101046784875,-14.0693380535295,-301.382946256905
738546.47336193523369729519,-22.0548875392926,-14.0508743552965,-301.364482558672
738546.47336202568840235472,-22.1656697286904,-14.1339609973449,-301.47526474807
738546.47336211614310741425,-22.082583086642,-14.078569902646,-301.429105502487
738546.47336220659781247377,-22.1841334269234,-14.1524246955779,-301.392178106021
738546.47336229705251753330,-22.0918149357585,-14.0878017517624,-301.438337351604
738546.47336238750722259283,-22.1933652760399,-14.1616565446944,-301.226004821925
738546.47336247796192765236,-22.0918149357585,-14.078569902646,-301.26293221839
738546.47336256830021739006,-22.1287423322245,-14.1062654499954,-301.401409955138
