time_dn,ecg_projection_ll_ra_mV,ecg_projection_la_ra_mV,ecg_projection_vx_rl_mV
738546.42922889767214655876,-23.9843440046388,-12.0844904934843,-301.041367839595
738546.42922898812685161829,-23.9751121555223,-12.0567949461348,-301.032135990478
738546.42922907858155667782,-23.9474166081729,-12.0937223426008,-301.004440443129
738546.42922916903626173735,-23.9843440046388,-12.1029541917173,-301.050599688711
738546.42922925949096679688,-23.9843440046388,-12.1860408337657,-301.041367839595
738546.42922934994567185640,-24.0489669484542,-12.2137363811151,-301.032135990478
738546.42922944040037691593,-24.0581987975707,-12.3152867213965,-301.078295236061
738546.42922953073866665363,-24.1320535905026,-12.3522141178625,-301.078295236061
738546.42922962119337171316,-24.1412854396191,-12.4445326090274,-301.078295236061
738546.42922971164807677269,-24.215140232551,-12.4629963072604,-301.096758934294
738546.42922980210278183222,-24.215140232551,-12.5368511001923,-301.142918179876
738546.42922989255748689175,-24.2612994781335,-12.5276192510758,-301.096758934294
738546.42922998301219195127,-24.2428357799005,-12.5830103457747,-301.142918179876
738546.42923007346689701080,-24.288995025483,-12.5645466475417,-301.10599078341
738546.42923016392160207033,-24.27053132725,-12.6014740440077,-301.022904141362
738546.42923025425989180803,-24.288995025483,-12.5737784966582,-301.087527085177
738546.42923034471459686756,-24.27053132725,-12.6014740440077,-301.069063386944
738546.42923043516930192709,-24.2797631763665,-12.5737784966582,-301.050599688711
738546.42923052562400698662,-24.27053132725,-12.5830103457747,-301.059831537828
738546.42923061607871204615,-24.2612994781335,-12.5922421948912,-301.059831537828
738546.42923070653341710567,-24.2982268745994,-12.5553147984252,-301.069063386944
738546.42923079698812216520,-24.252067629017,-12.5830103457747,-301.013672292245
738546.42923088744282722473,-24.2797631763665,-12.5553147984252,-301.004440443129
738546.42923097778111696243,-24.252067629017,-12.5830103457747,-301.032135990478
738546.42923106823582202196,-24.288995025483,-12.5460829493088,-301.069063386944
738546.42923115869052708149,-24.252067629017,-12.5830103457747,-301.059831537828
738546.42923124914523214102,-24.288995025483,-12.5553147984252,-301.050599688711
738546.42923133959993720055,-24.2612994781335,-12.5922421948912,-301.032135990478
738546.42923143005464226007,-24.288995025483,-12.5553147984252,-301.10599078341
738546.42923152050934731960,-24.252067629017,-12.5922421948912,-301.069063386944
738546.42923161096405237913,-24.27053132725,-12.5737784966582,-301.050599688711
738546.42923170130234211683,-24.2612994781335,-12.5922421948912,-301.059831537828
738546.42923179175704717636,-24.288995025483,-12.5737784966582,-301.13368633076
738546.42923188221175223589,-24.2797631763665,-12.5922421948912,-301.078295236061
738546.42923197266645729542,-24.288995025483,-12.5922421948912,-301.087527085177
738546.42923206312116235495,-24.288995025483,-12.5922421948912,-300.930585650197
738546.42923215357586741447,-24.288995025483,-12.6014740440077,-301.004440443129
738546.42923224403057247400,-24.288995025483,-12.5922421948912,-301.096758934294
738546.42923233436886221170,-24.288995025483,-12.6107058931242,-301.115222632527
738546.42923242482356727123,-24.3074587237159,-12.6014740440077,-301.124454481643
738546.42923251527827233076,-24.288995025483,-12.6291695913572,-301.152150028993
738546.42923260573297739029,-24.3259224219489,-12.6107058931242,-301.041367839595
738546.42923269618768244982,-24.288995025483,-12.6384014404736,-301.142918179876
738546.42923278664238750935,-24.3074587237159,-12.6107058931242,-301.13368633076
738546.42923287709709256887,-24.2797631763665,-12.6291695913572,-301.096758934294
738546.42923296755179762840,-24.288995025483,-12.6107058931242,-301.124454481643
738546.42923305789008736610,-24.288995025483,-12.6291695913572,-301.124454481643
738546.42923314834479242563,-24.288995025483,-12.6107058931242,-301.115222632527
738546.42923323879949748516,-24.288995025483,-12.6199377422407,-301.115222632527
738546.42923332925420254469,-24.2797631763665,-12.6199377422407,-301.152150028993
738546.42923341970890760422,-24.3074587237159,-12.6199377422407,-301.142918179876
738546.42923351016361266375,-24.288995025483,-12.6199377422407,-301.10599078341
738546.42923360061831772327,-24.288995025483,-12.6014740440077,-301.142918179876
738546.42923369107302278280,-24.2797631763665,-12.6291695913572,-301.13368633076
738546.42923378141131252050,-24.2982268745994,-12.6014740440077,-301.10599078341
738546.42923387186601758003,-24.27053132725,-12.6291695913572,-301.161381878109
738546.42923396232072263956,-24.2982268745994,-12.6014740440077,-301.161381878109
738546.42923405277542769909,-24.2428357799005,-12.6291695913572,-301.087527085177
738546.42923414323013275862,-24.27053132725,-12.5922421948912,-301.115222632527
738546.42923423368483781815,-24.2428357799005,-12.6107058931242,-301.13368633076
738546.42923432413954287767,-24.27053132725,-12.5922421948912,-301.161381878109
738546.42923441459424793720,-24.2612994781335,-12.5922421948912,-301.10599078341
738546.42923450493253767490,-24.2428357799005,-12.5737784966582,-301.13368633076
738546.42923459538724273443,-24.233603930784,-12.5645466475417,-301.013672292245
738546.42923468584194779396,-24.2612994781335,-12.6014740440077,-301.059831537828
738546.42923477629665285349,-24.27053132725,-12.6014740440077,-301.069063386944
738546.42923486675135791302,-24.2612994781335,-12.6291695913572,-301.078295236061
738546.42923495720606297255,-24.2982268745994,-12.6199377422407,-301.069063386944
738546.42923504766076803207,-24.2612994781335,-12.6291695913572,-301.078295236061
738546.42923513811547309160,-24.288995025483,-12.6107058931242,-301.087527085177
738546.42923522845376282930,-24.2612994781335,-12.6291695913572,-301.087527085177
738546.42923531890846788883,-24.288995025483,-12.6014740440077,-301.124454481643
738546.42923540936317294836,-24.252067629017,-12.6199377422407,-301.078295236061
738546.42923549981787800789,-24.252067629017,-12.5645466475417,-301.059831537828
738546.42923559027258306742,-24.1689809869686,-12.5830103457747,-300.92135380108
738546.42923568072728812695,-24.1874446852016,-12.5368511001923,-300.995208594012
738546.42923577118199318647,-24.1505172887356,-12.5645466475417,-301.050599688711
738546.42923586152028292418,-24.1689809869686,-12.5276192510758,-301.078295236061
738546.42923595197498798370,-24.1043580431532,-12.5183874019593,-301.069063386944
738546.42923604242969304323,-24.1412854396191,-12.4999237037263,-301.059831537828
738546.42923613288439810276,-24.1597491378521,-12.5276192510758,-301.059831537828
738546.42923622333910316229,-24.1412854396191,-12.5368511001923,-301.069063386944
738546.42923631379380822182,-24.1874446852016,-12.5276192510758,-301.087527085177
738546.42923640424851328135,-24.1966765343181,-12.5645466475417,-301.078295236061
738546.42923649470321834087,-24.2428357799005,-12.5460829493088,-301.096758934294
738546.42923658504150807858,-24.233603930784,-12.5737784966582,-301.115222632527
738546.42923667549621313810,-24.252067629017,-12.5460829493088,-301.161381878109
738546.42923676595091819763,-24.1782128360851,-12.5276192510758,-301.161381878109
738546.42923685640562325716,-24.252067629017,-12.5368511001923,-301.078295236061
738546.42923694686032831669,-24.2612994781335,-12.6291695913572,-301.152150028993
738546.42923703731503337622,-24.2797631763665,-12.6014740440077,-301.179845576342
738546.42923712776973843575,-24.2243720816675,-12.6014740440077,-301.170613727226
738546.42923721822444349527,-24.3997772148808,-12.6014740440077,-301.10599078341
738546.42923730856273323298,-24.4182409131138,-12.5553147984252,-301.152150028993
738546.42923739901743829250,-24.233603930784,-12.1583452864162,-301.069063386944
738546.42923748947214335203,-23.5504470961638,-11.6598254341258,-300.930585650197
738546.42923757992684841156,-22.7011169774468,-11.6044343394269,-300.902890102847
738546.42923767038155347109,-23.0888546403394,-12.342982268746,-301.032135990478
738546.42923776083625853062,-23.8735618152409,-12.7122562334056,-301.13368633076
738546.42923785129096359015,-24.27053132725,-12.6107058931242,-301.152150028993
738546.42923794174566864967,-24.288995025483,-12.4445326090274,-301.142918179876
738546.42923803208395838737,-24.233603930784,-12.4629963072604,-301.179845576342
738546.42923812253866344690,-24.1966765343181,-12.5091555528428,-301.115222632527
738546.42923821299336850643,-24.1874446852016,-12.5645466475417,-301.161381878109
738546.42923830344807356596,-24.1228217413862,-12.5922421948912,-301.198309274575
738546.42923839390277862549,-24.215140232551,-12.6476332895901,-301.152150028993
738546.42923848435748368502,-24.215140232551,-12.7030243842891,-301.142918179876
738546.42923857481218874454,-24.2243720816675,-12.6937925351726,-301.050599688711
738546.42923866515047848225,-24.2243720816675,-12.758415478988,-301.115222632527
738546.42923875560518354177,-24.2428357799005,-12.8230384228034,-301.142918179876
738546.42923884605988860130,-24.2059083834346,-12.8691976683859,-301.124454481643
738546.42923893651459366083,-24.233603930784,-12.8876613666189,-301.124454481643
738546.42923902696929872036,-24.2059083834346,-12.8784295175024,-301.124454481643
738546.42923911742400377989,-24.233603930784,-12.8691976683859,-300.985976744896
738546.42923920787870883942,-24.233603930784,-12.8784295175024,-301.069063386944
738546.42923929833341389894,-24.1966765343181,-12.8599658192694,-301.142918179876
738546.42923938867170363665,-24.1782128360851,-12.8415021210364,-301.13368633076
738546.42923947912640869617,-24.1597491378521,-12.8415021210364,-301.13368633076
738546.42923956958111375570,-24.1412854396191,-12.8045747245705,-301.10599078341
738546.42923966003581881523,-24.0951261940367,-12.8045747245705,-301.124454481643
738546.42923975049052387476,-24.0674306466872,-12.7307199316385,-301.161381878109
738546.42923984094522893429,-23.9935758537553,-12.7030243842891,-301.142918179876
738546.42923993139993399382,-23.9751121555223,-12.6291695913572,-301.179845576342
738546.42924002185463905334,-23.9104892117069,-12.6014740440077,-301.041367839595
738546.42924011219292879105,-23.8735618152409,-12.5553147984252,-301.124454481643
738546.42924020264763385057,-23.8643299661245,-12.5460829493088,-301.041367839595
738546.42924029310233891010,-23.8458662678915,-12.5737784966582,-301.096758934294
738546.42924038355704396963,-23.836634418775,-12.5922421948912,-301.096758934294
738546.42924047401174902916,-23.818170720542,-12.5830103457747,-301.059831537828
738546.42924056446645408869,-23.8274025696585,-12.6014740440077,-301.069063386944
738546.42924065492115914822,-23.836634418775,-12.6291695913572,-301.087527085177
738546.42924074537586420774,-23.8827936643574,-12.6568651387066,-301.087527085177
738546.42924083571415394545,-23.8920255134739,-12.721488082522,-301.115222632527
738546.42924092616885900497,-23.9843440046388,-12.776879177221,-301.13368633076
738546.42924101662356406450,-24.0212714011048,-12.8691976683859,-301.124454481643
738546.42924110707826912403,-24.0766624958037,-12.8784295175024,-301.10599078341
738546.42924119753297418356,-24.0397350993377,-12.9153569139683,-301.069063386944
738546.42924128798767924309,-24.1320535905026,-12.9522843104343,-301.115222632527
738546.42924137844238430262,-24.1228217413862,-13.0076754051332,-301.10599078341
738546.42924146889708936214,-24.1689809869686,-12.9892117069002,-301.170613727226
738546.42924155923537909985,-24.1043580431532,-13.0076754051332,-301.161381878109
738546.42924164969008415937,-24.1597491378521,-12.9984435560167,-301.189077425459
738546.42924174014478921890,-24.1597491378521,-13.0538346507157,-301.216772972808
738546.42924183059949427843,-24.2059083834346,-13.0446028015992,-301.152150028993
738546.42924192105419933796,-24.1689809869686,-13.0446028015992,-301.198309274575
738546.42924201150890439749,-24.1043580431532,-13.0261391033662,-301.179845576342
738546.42924210196360945702,-24.1689809869686,-13.0169072542497,-301.198309274575
738546.42924219230189919472,-24.1320535905026,-13.0261391033662,-301.13368633076
738546.42924228275660425425,-24.1412854396191,-12.9707480086673,-301.189077425459
738546.42924237321130931377,-24.0489669484542,-12.9522843104343,-301.198309274575
738546.42924246366601437330,-24.1320535905026,-12.9522843104343,-301.152150028993
738546.42924255412071943283,-24.1043580431532,-13.0076754051332,-301.198309274575
738546.42924264457542449236,-24.1043580431532,-12.9430524613178,-301.087527085177
738546.42924273503012955189,-24.0489669484542,-12.9522843104343,-301.032135990478
738546.42924282548483461142,-24.1412854396191,-12.9707480086673,-301.10599078341
738546.42924291582312434912,-24.0951261940367,-12.9984435560167,-301.198309274575
738546.42924300627782940865,-24.1412854396191,-12.9615161595508,-301.244468520157
738546.42924309673253446817,-24.1228217413862,-13.0076754051332,-301.198309274575
738546.42924318718723952770,-24.1505172887356,-12.9338206122013,-301.142918179876
738546.42924327764194458723,-24.1505172887356,-12.9707480086673,-301.179845576342
738546.42924336809664964676,-24.2059083834346,-12.9615161595508,-301.235236671041
738546.42924345855135470629,-24.1320535905026,-12.9522843104343,-301.152150028993
738546.42924354900605976582,-24.1874446852016,-12.9799798577837,-301.179845576342
738546.42924363934434950352,-24.1689809869686,-12.9430524613178,-301.189077425459
738546.42924372979905456305,-24.215140232551,-12.9615161595508,-301.216772972808
738546.42924382025375962257,-24.233603930784,-12.9522843104343,-301.152150028993
738546.42924391070846468210,-24.215140232551,-13.0076754051332,-301.207541123691
738546.42924400116316974163,-24.2428357799005,-12.9522843104343,-301.207541123691
738546.42924409161787480116,-24.1874446852016,-12.9799798577837,-301.124454481643
738546.42924418207257986069,-24.2797631763665,-12.9799798577837,-301.152150028993
738546.42924427252728492022,-24.215140232551,-12.9707480086673,-301.13368633076
738546.42924436286557465792,-24.233603930784,-12.8968932157353,-301.142918179876
738546.42924445332027971745,-24.252067629017,-12.9707480086673,-301.142918179876
738546.42924454377498477697,-24.3259224219489,-12.9892117069002,-301.13368633076
738546.42924463422968983650,-24.288995025483,-12.9892117069002,-301.087527085177
738546.42924472468439489603,-24.288995025483,-12.9430524613178,-301.189077425459
738546.42924481513909995556,-24.2797631763665,-12.9245887630848,-301.189077425459
738546.42924490559380501509,-24.2982268745994,-12.9153569139683,-301.161381878109
738546.42924499604851007462,-24.27053132725,-12.8968932157353,-301.152150028993
738546.42924508638679981232,-24.2982268745994,-12.8784295175024,-301.189077425459
738546.42924517684150487185,-24.3443861201819,-12.8968932157353,-301.207541123691
738546.42924526729620993137,-24.3259224219489,-12.8784295175024,-301.124454481643
738546.42924535775091499090,-24.3351542710654,-12.8599658192694,-301.179845576342
738546.42924544820562005043,-24.3166905728324,-12.8691976683859,-301.216772972808
738546.42924553866032510996,-24.3628498184149,-12.8507339701529,-301.13368633076
738546.42924562911503016949,-24.3351542710654,-12.8784295175024,-301.152150028993
738546.42924571945331990719,-24.3720816675314,-12.8415021210364,-301.207541123691
738546.42924580990802496672,-24.3074587237159,-12.8415021210364,-301.198309274575
738546.42924590036273002625,-24.2982268745994,-12.795342875454,-301.10599078341
738546.42924599081743508577,-24.2982268745994,-12.8691976683859,-301.13368633076
738546.42924608127214014530,-24.3259224219489,-12.8507339701529,-301.10599078341
738546.42924617172684520483,-24.3166905728324,-12.8507339701529,-300.985976744896
738546.42924626218155026436,-24.288995025483,-12.8507339701529,-300.985976744896
738546.42924635263625532389,-24.288995025483,-12.8507339701529,-301.096758934294
738546.42924644297454506159,-24.3259224219489,-12.8968932157353,-301.115222632527
738546.42924653342925012112,-24.288995025483,-12.8691976683859,-301.152150028993
738546.42924662388395518064,-24.2797631763665,-12.9061250648518,-301.198309274575
738546.42924671433866024017,-24.2982268745994,-12.8784295175024,-301.198309274575
738546.42924680479336529970,-24.233603930784,-12.8691976683859,-301.13368633076
738546.42924689524807035923,-24.2243720816675,-12.8045747245705,-301.152150028993
738546.42924698570277541876,-24.1412854396191,-12.7861110263375,-301.170613727226
738546.42924707615748047829,-24.2428357799005,-12.739951780755,-301.10599078341
738546.42924716649577021599,-24.2059083834346,-12.776879177221,-301.179845576342
738546.42924725695047527552,-24.288995025483,-12.7307199316385,-301.13368633076
738546.42924734740518033504,-24.233603930784,-12.758415478988,-301.069063386944
738546.42924743785988539457,-24.3905453657643,-12.8045747245705,-301.13368633076
738546.42924752831459045410,-24.3628498184149,-12.8045747245705,-301.10599078341
738546.42924761876929551363,-24.3905453657643,-12.8507339701529,-301.142918179876
738546.42924770922400057316,-24.4274727622303,-12.8507339701529,-301.10599078341
738546.42924779967870563269,-24.3905453657643,-12.8415021210364,-301.115222632527
738546.42924789001699537039,-24.4182409131138,-12.795342875454,-301.069063386944
738546.42924798047170042992,-24.3720816675314,-12.758415478988,-301.096758934294
738546.42924807092640548944,-24.4090090639973,-12.7122562334056,-301.096758934294
738546.42924816138111054897,-24.4367046113468,-12.7491836298715,-301.078295236061
738546.42924825183581560850,-24.6213415936766,-12.6753288369396,-301.115222632527
738546.42924834229052066803,-24.5013275551622,-12.5645466475417,-301.069063386944
738546.42924843274522572756,-24.0951261940367,-12.0660267952513,-301.032135990478
738546.42924852308351546526,-23.2457960753197,-11.7521439252907,-300.838267159032
738546.42924861353822052479,-22.7288125247963,-12.0014038514359,-300.865962706381
738546.42924870399292558432,-23.5596789452803,-12.5830103457747,-301.022904141362
738546.42924879444763064384,-24.2612994781335,-12.7030243842891,-301.041367839595
738546.42924888490233570337,-24.4736320078127,-12.6199377422407,-301.059831537828
738546.42924897535704076290,-24.5013275551622,-12.5460829493088,-301.078295236061
738546.42924906581174582243,-24.3905453657643,-12.6107058931242,-301.059831537828
738546.42924915626645088196,-24.4182409131138,-12.6568651387066,-301.115222632527
738546.42924924660474061966,-24.3997772148808,-12.6937925351726,-301.059831537828
738546.42924933705944567919,-24.4459364604633,-12.6753288369396,-301.069063386944
738546.42924942751415073872,-24.4274727622303,-12.6384014404736,-301.069063386944
738546.42924951796885579824,-24.3720816675314,-12.6845606860561,-301.078295236061
738546.42924960842356085777,-24.4274727622303,-12.6568651387066,-301.078295236061
738546.42924969887826591730,-24.3905453657643,-12.6845606860561,-301.041367839595
738546.42924978933297097683,-24.4367046113468,-12.6568651387066,-301.013672292245
738546.42924987978767603636,-24.3443861201819,-12.6568651387066,-301.10599078341
738546.42924997012596577406,-24.3628498184149,-12.5737784966582,-301.115222632527
738546.42925006058067083359,-24.3074587237159,-12.6107058931242,-301.142918179876
738546.42925015103537589312,-24.3720816675314,-12.5922421948912,-301.10599078341
738546.42925024149008095264,-24.3074587237159,-12.6107058931242,-301.10599078341
738546.42925033194478601217,-24.2982268745994,-12.5368511001923,-301.124454481643
738546.42925042239949107170,-24.2612994781335,-12.5368511001923,-301.096758934294
738546.42925051285419613123,-24.288995025483,-12.5091555528428,-301.087527085177
738546.42925060330890119076,-24.2059083834346,-12.4445326090274,-301.050599688711
738546.42925069364719092846,-24.1966765343181,-12.4168370616779,-301.078295236061
738546.42925078410189598799,-24.1505172887356,-12.3891415143284,-301.069063386944
738546.42925087455660104752,-24.0858943449202,-12.3152867213965,-301.087527085177
738546.42925096501130610704,-24.0858943449202,-12.2783593249306,-301.069063386944
738546.42925105546601116657,-24.0489669484542,-12.2414319284646,-301.041367839595
738546.42925114592071622610,-24.0028077028718,-12.1860408337657,-301.032135990478
738546.42925123637542128563,-23.9381847590564,-12.1675771355327,-301.004440443129
738546.42925132683012634516,-23.9751121555223,-12.1398815881832,-301.032135990478
738546.42925141716841608286,-23.9197210608234,-12.1675771355327,-301.050599688711
738546.42925150762312114239,-23.9289529099399,-12.1214178899503,-301.078295236061
738546.42925159807782620192,-23.9381847590564,-12.2137363811151,-301.022904141362
738546.42925168853253126144,-24.0212714011048,-12.2691274758141,-301.087527085177
738546.42925177898723632097,-24.0305032502213,-12.3337504196295,-301.087527085177
738546.42925186944194138050,-24.0766624958037,-12.361445966979,-301.041367839595
738546.42925195989664644003,-24.1412854396191,-12.4537644581439,-301.087527085177
738546.42925205023493617773,-24.1782128360851,-12.4906918546098,-301.013672292245
738546.42925214068964123726,-24.1966765343181,-12.4999237037263,-301.050599688711
738546.42925223114434629679,-24.2059083834346,-12.5368511001923,-301.041367839595
738546.42925232159905135632,-24.2612994781335,-12.5737784966582,-301.032135990478
738546.42925241205375641584,-24.27053132725,-12.6014740440077,-301.041367839595
738546.42925250250846147537,-24.27053132725,-12.5645466475417,-301.050599688711
738546.42925259296316653490,-24.2428357799005,-12.5830103457747,-301.050599688711
738546.42925268341787159443,-24.2982268745994,-12.5737784966582,-301.059831537828
738546.42925277375616133213,-24.2612994781335,-12.6107058931242,-301.10599078341
738546.42925286421086639166,-24.2982268745994,-12.5645466475417,-301.059831537828
738546.42925295466557145119,-24.2797631763665,-12.6291695913572,-301.041367839595
738546.42925304512027651072,-24.2982268745994,-12.5645466475417,-301.069063386944
738546.42925313557498157024,-24.252067629017,-12.6107058931242,-301.078295236061
738546.42925322602968662977,-24.2797631763665,-12.6014740440077,-301.096758934294
738546.42925331648439168930,-24.27053132725,-12.5922421948912,-300.976744895779
738546.42925340693909674883,-24.2797631763665,-12.6014740440077,-301.10599078341
738546.42925349727738648653,-24.3166905728324,-12.6199377422407,-301.13368633076
738546.42925358773209154606,-24.2797631763665,-12.6107058931242,-301.050599688711
738546.42925367818679660559,-24.2982268745994,-12.6014740440077,-301.059831537828
738546.42925376864150166512,-24.27053132725,-12.6107058931242,-301.087527085177
738546.42925385909620672464,-24.288995025483,-12.5830103457747,-301.115222632527
738546.42925394955091178417,-24.2612994781335,-12.6107058931242,-301.10599078341
738546.42925404000561684370,-24.2982268745994,-12.5645466475417,-301.124454481643
738546.42925413046032190323,-24.252067629017,-12.6014740440077,-301.10599078341
738546.42925422079861164093,-24.3074587237159,-12.5737784966582,-301.115222632527
738546.42925431125331670046,-24.27053132725,-12.6291695913572,-301.050599688711
738546.42925440170802175999,-24.3259224219489,-12.5922421948912,-301.041367839595
738546.42925449216272681952,-24.2797631763665,-12.6384014404736,-301.041367839595
738546.42925458261743187904,-24.3443861201819,-12.6107058931242,-300.995208594012
738546.42925467307213693857,-24.27053132725,-12.6199377422407,-301.041367839595
738546.42925476352684199810,-24.3536179692984,-12.6199377422407,-301.10599078341
738546.42925485398154705763,-24.3166905728324,-12.6568651387066,-301.050599688711
738546.42925494431983679533,-24.3259224219489,-12.6014740440077,-301.124454481643
738546.42925503477454185486,-24.3166905728324,-12.5922421948912,-301.124454481643
738546.42925512522924691439,-24.3074587237159,-12.6384014404736,-301.142918179876
738546.42925521568395197392,-24.3536179692984,-12.6107058931242,-301.050599688711
738546.42925530613865703344,-24.2982268745994,-12.6384014404736,-301.124454481643
738546.42925539659336209297,-24.3905453657643,-12.6291695913572,-301.124454481643
738546.42925548704806715250,-24.3166905728324,-12.6568651387066,-301.050599688711
738546.42925557738635689020,-24.3536179692984,-12.6014740440077,-301.115222632527
738546.42925566784106194973,-24.3259224219489,-12.6568651387066,-301.059831537828
738546.42925575829576700926,-24.3905453657643,-12.6384014404736,-301.059831537828
738546.42925584875047206879,-24.3536179692984,-12.6845606860561,-301.078295236061
738546.42925593920517712831,-24.3813135166478,-12.6384014404736,-301.078295236061
738546.42925602965988218784,-24.2982268745994,-12.6476332895901,-301.115222632527
738546.42925612011458724737,-24.3628498184149,-12.6291695913572,-301.078295236061
738546.42925621056929230690,-24.3259224219489,-12.6568651387066,-301.10599078341
738546.42925630090758204460,-24.3628498184149,-12.6384014404736,-301.096758934294
738546.42925639136228710413,-24.3720816675314,-12.6753288369396,-301.13368633076
738546.42925648181699216366,-24.3351542710654,-12.6199377422407,-301.115222632527
738546.42925657227169722319,-24.3074587237159,-12.6107058931242,-301.041367839595
738546.42925666272640228271,-24.3074587237159,-12.6291695913572,-301.115222632527
738546.42925675318110734224,-24.3074587237159,-12.6753288369396,-300.912121951964
738546.42925684363581240177,-24.3074587237159,-12.6568651387066,-301.022904141362
738546.42925693409051746130,-24.3259224219489,-12.6014740440077,-301.115222632527
738546.42925702442880719900,-24.2612994781335,-12.6014740440077,-301.069063386944
738546.42925711488351225853,-24.2612994781335,-12.5460829493088,-301.059831537828
738546.42925720533821731806,-24.2243720816675,-12.5737784966582,-301.069063386944
738546.42925729579292237759,-24.288995025483,-12.5645466475417,-301.10599078341
738546.42925738624762743711,-24.2982268745994,-12.6291695913572,-301.124454481643
738546.42925747670233249664,-24.3351542710654,-12.5922421948912,-301.142918179876
738546.42925756715703755617,-24.2982268745994,-12.6199377422407,-301.087527085177
738546.42925765761174261570,-24.4090090639973,-12.6753288369396,-301.142918179876
738546.42925774795003235340,-24.3813135166478,-12.6753288369396,-301.152150028993
738546.42925783840473741293,-24.3905453657643,-12.6753288369396,-301.059831537828
738546.42925792885944247246,-24.3997772148808,-12.6937925351726,-301.124454481643
738546.42925801931414753199,-24.3997772148808,-12.6845606860561,-301.069063386944
738546.42925810976885259151,-24.3997772148808,-12.6845606860561,-301.069063386944
738546.42925820022355765104,-24.3905453657643,-12.7030243842891,-301.078295236061
738546.42925829067826271057,-24.4274727622303,-12.6845606860561,-301.152150028993
738546.42925838113296777010,-24.5474868007447,-12.6845606860561,-301.13368633076
738546.42925847147125750780,-24.5197912533952,-12.5460829493088,-301.069063386944
738546.42925856192596256733,-24.1412854396191,-12.2137363811151,-301.013672292245
738546.42925865238066762686,-23.3011871700186,-11.7613757744072,-300.893658253731
738546.42925874283537268639,-22.5257118442335,-12.0014038514359,-300.875194555498
738546.42925883329007774591,-22.8672902615436,-12.2229682302316,-300.856730857265
738546.42925892374478280544,-23.7350840784936,-12.6107058931242,-301.059831537828
738546.42925901419948786497,-24.3813135166478,-12.6199377422407,-301.13368633076
738546.42925910453777760267,-24.4274727622303,-12.5645466475417,-301.078295236061
738546.42925919499248266220,-24.3813135166478,-12.6107058931242,-301.096758934294
738546.42925928544718772173,-24.3628498184149,-12.6476332895901,-301.13368633076
738546.42925937590189278126,-24.3720816675314,-12.6845606860561,-301.13368633076
738546.42925946635659784079,-24.4090090639973,-12.6845606860561,-301.115222632527
738546.42925955681130290031,-24.3628498184149,-12.6845606860561,-301.115222632527
738546.42925964726600795984,-24.3905453657643,-12.6660969878231,-301.050599688711
738546.42925973772071301937,-24.3351542710654,-12.6753288369396,-301.013672292245
738546.42925982805900275707,-24.3813135166478,-12.6476332895901,-301.050599688711
738546.42925991851370781660,-24.3351542710654,-12.6753288369396,-301.022904141362
738546.42926000896841287613,-24.3628498184149,-12.6384014404736,-301.022904141362
738546.42926009942311793566,-24.288995025483,-12.6476332895901,-301.078295236061
738546.42926018987782299519,-24.3536179692984,-12.6384014404736,-301.069063386944
738546.42926028033252805471,-24.3074587237159,-12.6568651387066,-300.902890102847
738546.42926037078723311424,-24.3536179692984,-12.6199377422407,-300.985976744896
738546.42926046124193817377,-24.2797631763665,-12.6199377422407,-301.050599688711
738546.42926055158022791147,-24.2982268745994,-12.5553147984252,-301.069063386944
738546.42926064203493297100,-24.2243720816675,-12.5645466475417,-301.041367839595
738546.42926073248963803053,-24.215140232551,-12.5368511001923,-301.10599078341
738546.42926082294434309006,-24.1966765343181,-12.4629963072604,-301.087527085177
738546.42926091339904814959,-24.1228217413862,-12.4445326090274,-301.059831537828
738546.42926100385375320911,-24.1135898922697,-12.3522141178625,-301.069063386944
738546.42926109430845826864,-24.0212714011048,-12.3337504196295,-300.995208594012
738546.42926118476316332817,-24.0212714011048,-12.2506637775811,-300.985976744896
738546.42926127510145306587,-23.9381847590564,-12.2414319284646,-301.004440443129
738546.42926136555615812540,-23.9751121555223,-12.1952726828822,-300.995208594012
738546.42926145601086318493,-23.8827936643574,-12.2229682302316,-300.976744895779
738546.42926154646556824446,-23.9104892117069,-12.1675771355327,-301.013672292245
738546.42926163692027330399,-23.8735618152409,-12.2322000793481,-301.059831537828
738546.42926172737497836351,-23.9104892117069,-12.2137363811151,-300.958281197546
738546.42926181782968342304,-23.855098117008,-12.2598956266976,-301.022904141362
738546.42926190816797316074,-24.0489669484542,-12.3891415143284,-301.059831537828
738546.42926199862267822027,-24.0120395519883,-12.4353007599109,-301.050599688711
738546.42926208907738327980,-24.1135898922697,-12.4722281563768,-301.041367839595
738546.42926217953208833933,-24.1320535905026,-12.5645466475417,-301.069063386944
738546.42926226998679339886,-24.1966765343181,-12.5830103457747,-301.041367839595
738546.42926236044149845839,-24.2059083834346,-12.6291695913572,-301.032135990478
738546.42926245089620351791,-24.2059083834346,-12.5737784966582,-301.069063386944
738546.42926254135090857744,-24.1412854396191,-12.5460829493088,-301.10599078341
738546.42926263168919831514,-24.1135898922697,-12.5553147984252,-301.087527085177
738546.42926272214390337467,-24.215140232551,-12.5737784966582,-301.13368633076
738546.42926281259860843420,-24.1597491378521,-12.6014740440077,-301.096758934294
738546.42926290305331349373,-24.2428357799005,-12.6107058931242,-301.10599078341
738546.42926299350801855326,-24.1782128360851,-12.6107058931242,-301.124454481643
738546.42926308396272361279,-24.1874446852016,-12.5645466475417,-301.041367839595
738546.42926317441742867231,-24.1412854396191,-12.5922421948912,-301.096758934294
738546.42926326487213373184,-24.1966765343181,-12.5737784966582,-301.13368633076
738546.42926335521042346954,-24.1412854396191,-12.5737784966582,-301.022904141362
738546.42926344566512852907,-24.1874446852016,-12.5737784966582,-301.10599078341
738546.42926353611983358860,-24.1505172887356,-12.5737784966582,-301.124454481643
738546.42926362657453864813,-24.1597491378521,-12.5645466475417,-301.10599078341
738546.42926371702924370766,-24.1412854396191,-12.5460829493088,-301.087527085177
738546.42926380748394876719,-24.1782128360851,-12.5922421948912,-300.94904934843
738546.42926389793865382671,-24.1874446852016,-12.6014740440077,-301.013672292245
738546.42926398839335888624,-24.1505172887356,-12.5737784966582,-301.096758934294
738546.42926407873164862394,-24.1874446852016,-12.5830103457747,-301.13368633076
738546.42926416918635368347,-24.1782128360851,-12.6199377422407,-301.096758934294
738546.42926425964105874300,-24.1966765343181,-12.6014740440077,-301.050599688711
738546.42926435009576380253,-24.1505172887356,-12.6107058931242,-301.10599078341
738546.42926444055046886206,-24.1782128360851,-12.5737784966582,-301.078295236061
738546.42926453100517392159,-24.1228217413862,-12.5922421948912,-301.004440443129
738546.42926462145987898111,-24.1874446852016,-12.6014740440077,-300.995208594012
738546.42926471191458404064,-24.1874446852016,-12.6476332895901,-300.985976744896
738546.42926480225287377834,-24.1966765343181,-12.6199377422407,-300.995208594012
738546.42926489270757883787,-24.2059083834346,-12.6476332895901,-301.013672292245
738546.42926498316228389740,-24.1782128360851,-12.6199377422407,-301.004440443129
738546.42926507361698895693,-24.1689809869686,-12.6107058931242,-301.087527085177
738546.42926516407169401646,-24.1782128360851,-12.6291695913572,-301.087527085177
738546.42926525452639907598,-24.2059083834346,-12.6291695913572,-301.10599078341
738546.42926534498110413551,-24.1689809869686,-12.6291695913572,-301.078295236061
738546.42926543531939387321,-24.1689809869686,-12.6107058931242,-301.069063386944
738546.42926552577409893274,-24.1782128360851,-12.6660969878231,-301.032135990478
738546.42926561622880399227,-24.2243720816675,-12.6568651387066,-301.032135990478
738546.42926570668350905180,-24.1966765343181,-12.7030243842891,-301.022904141362
738546.42926579713821411133,-24.2428357799005,-12.6845606860561,-301.059831537828
738546.42926588759291917086,-24.1689809869686,-12.7030243842891,-301.078295236061
738546.42926597804762423038,-24.233603930784,-12.6845606860561,-301.069063386944
738546.42926606850232928991,-24.1689809869686,-12.721488082522,-301.096758934294
738546.42926615884061902761,-24.2243720816675,-12.6937925351726,-301.124454481643
738546.42926624929532408714,-24.1505172887356,-12.721488082522,-301.059831537828
738546.42926633975002914667,-24.1597491378521,-12.6937925351726,-301.032135990478
738546.42926643020473420620,-24.1874446852016,-12.7122562334056,-301.10599078341
738546.42926652065943926573,-24.1597491378521,-12.7122562334056,-301.096758934294
738546.42926661111414432526,-24.1966765343181,-12.7122562334056,-301.032135990478
738546.42926670156884938478,-24.2059083834346,-12.7676473281045,-301.115222632527
738546.42926679202355444431,-24.2428357799005,-12.758415478988,-301.142918179876
738546.42926688236184418201,-24.1689809869686,-12.7676473281045,-301.059831537828
738546.42926697281654924154,-24.1689809869686,-12.7122562334056,-301.087527085177
738546.42926706327125430107,-24.1412854396191,-12.7676473281045,-301.10599078341
738546.42926715372595936060,-24.1689809869686,-12.721488082522,-301.087527085177
738546.42926724418066442013,-24.1135898922697,-12.739951780755,-301.041367839595
738546.42926733463536947966,-24.1597491378521,-12.6568651387066,-300.967513046663
738546.42926742509007453918,-24.0397350993377,-12.6476332895901,-300.995208594012
738546.42926751554477959871,-24.0951261940367,-12.6291695913572,-300.976744895779
738546.42926760588306933641,-24.0766624958037,-12.6845606860561,-301.069063386944
738546.42926769633777439594,-24.1228217413862,-12.6568651387066,-301.013672292245
738546.42926778679247945547,-24.1043580431532,-12.7030243842891,-300.995208594012
738546.42926787724718451500,-24.1505172887356,-12.6937925351726,-300.995208594012
738546.42926796770188957453,-24.1874446852016,-12.776879177221,-301.013672292245
738546.42926805815659463406,-24.233603930784,-12.776879177221,-301.041367839595
738546.42926814861129969358,-24.1689809869686,-12.776879177221,-301.087527085177
738546.42926823906600475311,-24.1597491378521,-12.795342875454,-301.059831537828
738546.42926832940429449081,-24.2243720816675,-12.776879177221,-301.096758934294
738546.42926841985899955034,-24.1874446852016,-12.8322702719199,-301.10599078341
738546.42926851031370460987,-24.1966765343181,-12.758415478988,-301.124454481643
738546.42926860076840966940,-24.1689809869686,-12.8045747245705,-301.050599688711
738546.42926869122311472893,-24.233603930784,-12.7861110263375,-301.087527085177
738546.42926878167781978846,-24.3351542710654,-12.8415021210364,-301.13368633076
738546.42926887213252484798,-24.3259224219489,-12.7030243842891,-301.032135990478
738546.42926896247081458569,-23.9381847590564,-12.3706778160955,-300.958281197546
738546.42926905292551964521,-23.1165501876888,-11.890621662038,-300.819803460799
738546.42926914338022470474,-22.3318430127873,-12.0660267952513,-300.745948667867
738546.42926923383492976427,-23.0888546403394,-12.6199377422407,-300.875194555498
738546.42926932428963482380,-23.8920255134739,-12.9799798577837,-301.069063386944
738546.42926941474433988333,-24.2059083834346,-12.8876613666189,-301.041367839595
738546.42926950519904494286,-24.0858943449202,-12.8322702719199,-301.069063386944
738546.42926959565375000238,-24.1228217413862,-12.9430524613178,-301.10599078341
738546.42926968599203974009,-24.0951261940367,-12.9615161595508,-301.050599688711
738546.42926977644674479961,-24.0766624958037,-12.9522843104343,-301.050599688711
738546.42926986690144985914,-24.1320535905026,-13.0076754051332,-301.059831537828
738546.42926995735615491867,-24.0581987975707,-12.9892117069002,-301.050599688711
738546.42927004781085997820,-24.1412854396191,-13.0446028015992,-301.078295236061
738546.42927013826556503773,-24.0766624958037,-13.0446028015992,-301.059831537828
738546.42927022872027009726,-24.0305032502213,-12.9522843104343,-301.041367839595
738546.42927031917497515678,-24.0858943449202,-13.0907620471816,-301.13368633076
738546.42927040951326489449,-24.0674306466872,-13.0538346507157,-301.10599078341
738546.42927049996796995401,-24.0489669484542,-13.0999938962981,-301.078295236061
738546.42927059042267501354,-24.0766624958037,-13.1184575945311,-301.115222632527
738546.42927068087738007307,-23.9751121555223,-13.0630664998321,-301.115222632527
738546.42927077133208513260,-24.0028077028718,-13.0722983489486,-301.022904141362
738546.42927086178679019213,-23.9658803064058,-13.0261391033662,-301.004440443129
738546.42927095224149525166,-23.9381847590564,-13.0076754051332,-300.995208594012
738546.42927104269620031118,-23.9104892117069,-12.9522843104343,-301.096758934294
738546.42927113303449004889,-23.836634418775,-12.8876613666189,-301.059831537828
738546.42927122348919510841,-23.9012573625904,-12.9153569139683,-301.022904141362
738546.42927131394390016794,-23.855098117008,-12.8599658192694,-301.050599688711
738546.42927140439860522747,-23.7904751731925,-12.739951780755,-301.041367839595
738546.42927149485331028700,-23.6981566820276,-12.6568651387066,-300.967513046663
738546.42927158530801534653,-23.6796929837947,-12.5737784966582,-301.004440443129
738546.42927167576272040606,-23.6335337382122,-12.5553147984252,-300.995208594012
738546.42927176610101014376,-23.6058381908628,-12.4722281563768,-300.967513046663
738546.42927185655571520329,-23.6243018890957,-12.5645466475417,-300.985976744896
738546.42927194701042026281,-23.5596789452803,-12.4629963072604,-300.995208594012
738546.42927203746512532234,-23.5412152470473,-12.4906918546098,-300.976744895779
738546.42927212791983038187,-23.5873744926298,-12.5737784966582,-300.976744895779
738546.42927221837453544140,-23.6519974364452,-12.6291695913572,-301.022904141362
738546.42927230882924050093,-23.6796929837947,-12.6753288369396,-301.041367839595
738546.42927239928394556046,-23.6889248329112,-12.6660969878231,-300.995208594012
738546.42927248962223529816,-23.7073885311441,-12.7122562334056,-301.013672292245
738546.42927258007694035769,-23.7443159276101,-12.6937925351726,-301.059831537828
738546.42927267053164541721,-23.8274025696585,-12.8045747245705,-301.032135990478
738546.42927276098635047674,-23.855098117008,-12.776879177221,-301.050599688711
738546.42927285144105553627,-23.8643299661245,-12.795342875454,-301.059831537828
738546.42927294189576059580,-23.8827936643574,-12.758415478988,-301.050599688711
738546.42927303235046565533,-23.9289529099399,-12.8415021210364,-300.976744895779
738546.42927312280517071486,-23.9381847590564,-12.7861110263375,-300.976744895779
738546.42927321314346045256,-23.9751121555223,-12.8599658192694,-300.995208594012
738546.42927330359816551208,-23.9843440046388,-12.8230384228034,-300.94904934843
738546.42927339405287057161,-23.9474166081729,-12.8230384228034,-300.985976744896
738546.42927348450757563114,-23.9658803064058,-12.795342875454,-300.995208594012
738546.42927357496228069067,-23.9381847590564,-12.8415021210364,-300.976744895779
738546.42927366541698575020,-23.9474166081729,-12.8045747245705,-300.985976744896
738546.42927375587169080973,-23.8920255134739,-12.8230384228034,-300.985976744896
738546.42927384632639586926,-23.9658803064058,-12.8507339701529,-300.985976744896
738546.42927393666468560696,-23.9843440046388,-12.8507339701529,-300.995208594012
738546.42927402711939066648,-23.9381847590564,-12.8599658192694,-301.004440443129
738546.42927411757409572601,-23.9289529099399,-12.8045747245705,-301.004440443129
738546.42927420802880078554,-23.8920255134739,-12.8230384228034,-301.041367839595
738546.42927429848350584507,-23.8458662678915,-12.7030243842891,-300.967513046663
738546.42927438893821090460,-23.9104892117069,-12.8138065736869,-300.884426404614
738546.42927447939291596413,-23.9658803064058,-12.795342875454,-300.930585650197
738546.42927456984762102365,-23.8920255134739,-12.7861110263375,-301.004440443129
738546.42927466018591076136,-23.9289529099399,-12.739951780755,-300.985976744896
738546.42927475064061582088,-23.9474166081729,-12.8138065736869,-300.995208594012
738546.42927484109532088041,-23.9381847590564,-12.7676473281045,-301.022904141362
738546.42927493155002593994,-23.8920255134739,-12.7676473281045,-301.022904141362
738546.42927502200473099947,-23.9197210608234,-12.739951780755,-300.995208594012
738546.42927511245943605900,-23.9474166081729,-12.795342875454,-301.022904141362
738546.42927520291414111853,-23.9289529099399,-12.7491836298715,-301.032135990478
738546.42927529325243085623,-23.8920255134739,-12.739951780755,-301.050599688711
738546.42927538370713591576,-23.9474166081729,-12.795342875454,-301.032135990478
738546.42927547416184097528,-23.9658803064058,-12.8138065736869,-301.013672292245
738546.42927556461654603481,-23.9474166081729,-12.8138065736869,-301.022904141362
738546.42927565507125109434,-23.9474166081729,-12.8045747245705,-301.069063386944
738546.42927574552595615387,-23.9474166081729,-12.8322702719199,-301.050599688711
738546.42927583598066121340,-23.9474166081729,-12.7676473281045,-300.985976744896
738546.42927592643536627293,-23.9012573625904,-12.7676473281045,-301.032135990478
738546.42927601677365601063,-23.9751121555223,-12.795342875454,-301.059831537828
738546.42927610722836107016,-23.9566484572893,-12.8230384228034,-301.013672292245
738546.42927619768306612968,-23.8827936643574,-12.6937925351726,-301.013672292245
738546.42927628813777118921,-23.855098117008,-12.7030243842891,-301.032135990478
738546.42927637859247624874,-23.9658803064058,-12.758415478988,-301.069063386944
738546.42927646904718130827,-23.9935758537553,-12.8045747245705,-300.995208594012
738546.42927655950188636780,-23.9658803064058,-12.776879177221,-301.041367839595
738546.42927664995659142733,-23.9658803064058,-12.7676473281045,-300.995208594012
738546.42927674029488116503,-23.9104892117069,-12.7030243842891,-300.939817499313
738546.42927683074958622456,-23.9104892117069,-12.6937925351726,-300.958281197546
738546.42927692120429128408,-23.9474166081729,-12.739951780755,-300.958281197546
738546.42927701165899634361,-23.9289529099399,-12.7030243842891,-300.930585650197
738546.42927710211370140314,-23.8920255134739,-12.6937925351726,-301.013672292245
738546.42927719256840646267,-23.8920255134739,-12.6384014404736,-300.939817499313
738546.42927728302311152220,-23.9381847590564,-12.7307199316385,-300.958281197546
738546.42927737347781658173,-23.9751121555223,-12.721488082522,-300.985976744896
738546.42927746381610631943,-23.9474166081729,-12.7676473281045,-300.985976744896
738546.42927755427081137896,-23.9104892117069,-12.6568651387066,-300.995208594012
738546.42927764472551643848,-23.8458662678915,-12.6568651387066,-300.94904934843
738546.42927773518022149801,-23.8827936643574,-12.6660969878231,-300.958281197546
738546.42927782563492655754,-23.8920255134739,-12.6845606860561,-301.022904141362
738546.42927791608963161707,-23.8920255134739,-12.6660969878231,-300.92135380108
738546.42927800654433667660,-23.8458662678915,-12.6107058931242,-300.847499008148
738546.42927809699904173613,-23.7720114749596,-12.5553147984252,-300.939817499313
738546.42927818733733147383,-23.8827936643574,-12.6291695913572,-300.976744895779
738546.42927827779203653336,-23.8643299661245,-12.6476332895901,-300.976744895779
738546.42927836824674159288,-23.8827936643574,-12.6107058931242,-301.013672292245
738546.42927845870144665241,-23.9474166081729,-12.739951780755,-301.013672292245
738546.42927854915615171194,-23.9658803064058,-12.721488082522,-301.069063386944
738546.42927863961085677147,-23.9381847590564,-12.758415478988,-301.041367839595
738546.42927873006556183100,-24.0212714011048,-12.776879177221,-301.022904141362
738546.42927882040385156870,-24.0397350993377,-12.9245887630848,-301.069063386944
738546.42927891085855662823,-24.0489669484542,-12.8507339701529,-301.022904141362
738546.42927900131326168776,-24.0120395519883,-12.8968932157353,-301.078295236061
738546.42927909176796674728,-24.0120395519883,-12.8322702719199,-300.985976744896
738546.42927918222267180681,-24.0028077028718,-12.9061250648518,-300.985976744896
738546.42927927267737686634,-24.1043580431532,-12.8784295175024,-301.004440443129
738546.42927936313208192587,-24.1689809869686,-12.9061250648518,-301.041367839595
738546.42927945358678698540,-24.1597491378521,-12.721488082522,-301.032135990478
738546.42927954392507672310,-23.9843440046388,-12.5091555528428,-300.930585650197
738546.42927963437978178263,-23.2734916226691,-11.9921720023194,-300.829035309915
738546.42927972483448684216,-22.4703207495346,-11.8813898129215,-300.745948667867
738546.42927981528919190168,-22.9042176580096,-12.5368511001923,-300.847499008148
738546.42927990574389696121,-23.7258522293771,-12.9061250648518,-301.032135990478
738546.42927999619860202074,-24.0858943449202,-12.8968932157353,-301.050599688711
738546.42928008665330708027,-24.1597491378521,-12.7307199316385,-301.069063386944
738546.42928017710801213980,-23.9658803064058,-12.7307199316385,-301.032135990478
738546.42928026744630187750,-24.0951261940367,-12.8322702719199,-300.967513046663
738546.42928035790100693703,-24.0212714011048,-12.8784295175024,-301.032135990478
738546.42928044835571199656,-24.0858943449202,-12.8507339701529,-301.069063386944
738546.42928053881041705608,-24.0397350993377,-12.8968932157353,-301.050599688711
738546.42928062926512211561,-24.0674306466872,-12.8507339701529,-301.032135990478
738546.42928071971982717514,-23.9658803064058,-12.8138065736869,-301.041367839595
738546.42928081017453223467,-24.0212714011048,-12.8138065736869,-301.032135990478
738546.42928090062923729420,-24.0028077028718,-12.8415021210364,-301.004440443129
738546.42928099096752703190,-24.0212714011048,-12.8230384228034,-301.041367839595
738546.42928108142223209143,-24.0489669484542,-12.8968932157353,-301.041367839595
738546.42928117187693715096,-24.0305032502213,-12.8322702719199,-301.032135990478
738546.42928126233164221048,-23.9381847590564,-12.7491836298715,-301.022904141362
738546.42928135278634727001,-23.9751121555223,-12.7861110263375,-301.059831537828
738546.42928144324105232954,-24.0212714011048,-12.795342875454,-301.013672292245
738546.42928153369575738907,-23.9474166081729,-12.795342875454,-300.838267159032
738546.42928162415046244860,-23.9197210608234,-12.6753288369396,-300.939817499313
738546.42928171448875218630,-23.9104892117069,-12.739951780755,-301.050599688711
738546.42928180494345724583,-23.8920255134739,-12.6384014404736,-301.004440443129
738546.42928189539816230536,-23.8274025696585,-12.6107058931242,-300.967513046663
738546.42928198585286736488,-23.799707022309,-12.5091555528428,-300.995208594012
738546.42928207630757242441,-23.7258522293771,-12.4722281563768,-300.985976744896
738546.42928216676227748394,-23.7258522293771,-12.379909665212,-300.976744895779
738546.42928225721698254347,-23.6612292855617,-12.3522141178625,-300.94904934843
738546.42928234755527228117,-23.6796929837947,-12.3152867213965,-301.004440443129
738546.42928243800997734070,-23.6243018890957,-12.2783593249306,-300.967513046663
738546.42928252846468240023,-23.6335337382122,-12.2968230231635,-300.902890102847
738546.42928261891938745975,-23.5966063417463,-12.2598956266976,-300.958281197546
738546.42928270937409251928,-23.6150700399792,-12.3152867213965,-300.893658253731
738546.42928279982879757881,-23.6981566820276,-12.379909665212,-300.893658253731
738546.42928289028350263834,-23.7073885311441,-12.4537644581439,-300.912121951964
738546.42928298073820769787,-23.7535477767266,-12.4722281563768,-300.902890102847
738546.42928307107649743557,-23.7720114749596,-12.5645466475417,-300.94904934843
738546.42928316153120249510,-23.8089388714255,-12.5553147984252,-300.94904934843
738546.42928325198590755463,-23.855098117008,-12.6660969878231,-300.958281197546
738546.42928334244061261415,-23.8827936643574,-12.6476332895901,-301.022904141362
738546.42928343289531767368,-23.8827936643574,-12.7030243842891,-300.976744895779
738546.42928352335002273321,-23.9197210608234,-12.6937925351726,-301.050599688711
738546.42928361380472779274,-23.9474166081729,-12.7491836298715,-300.985976744896
738546.42928370425943285227,-23.9935758537553,-12.776879177221,-300.985976744896
738546.42928379459772258997,-23.9658803064058,-12.776879177221,-301.050599688711
738546.42928388505242764950,-23.9197210608234,-12.7307199316385,-301.059831537828
738546.42928397550713270903,-23.9566484572893,-12.7676473281045,-300.985976744896
738546.42928406596183776855,-23.9012573625904,-12.7491836298715,-301.041367839595
738546.42928415641654282808,-23.9012573625904,-12.7122562334056,-301.059831537828
738546.42928424687124788761,-23.9197210608234,-12.7676473281045,-301.050599688711
738546.42928433732595294714,-23.9197210608234,-12.7122562334056,-301.041367839595
738546.42928442778065800667,-23.9012573625904,-12.7676473281045,-301.050599688711
738546.42928451811894774437,-23.9566484572893,-12.7491836298715,-301.022904141362
738546.42928460857365280390,-23.8920255134739,-12.758415478988,-301.013672292245
738546.42928469902835786343,-23.9289529099399,-12.721488082522,-301.050599688711
738546.42928478948306292295,-23.8920255134739,-12.7676473281045,-301.087527085177
738546.42928487993776798248,-23.9658803064058,-12.7307199316385,-301.022904141362
738546.42928497039247304201,-23.9289529099399,-12.776879177221,-300.856730857265
738546.42928506084717810154,-23.9289529099399,-12.7030243842891,-300.976744895779
738546.42928515118546783924,-23.9197210608234,-12.7307199316385,-301.004440443129
738546.42928524164017289877,-23.9197210608234,-12.739951780755,-300.995208594012
738546.42928533209487795830,-23.9566484572893,-12.739951780755,-301.013672292245
738546.42928542254958301783,-23.9381847590564,-12.758415478988,-300.930585650197
738546.42928551300428807735,-23.9381847590564,-12.7030243842891,-301.013672292245
738546.42928560345899313688,-23.9474166081729,-12.758415478988,-301.013672292245
738546.42928569391369819641,-23.9566484572893,-12.7030243842891,-301.004440443129
738546.42928578436840325594,-23.9012573625904,-12.721488082522,-300.995208594012
738546.42928587470669299364,-23.9935758537553,-12.7307199316385,-301.032135990478
738546.42928596516139805317,-23.9289529099399,-12.7491836298715,-300.967513046663
738546.42928605561610311270,-23.9935758537553,-12.721488082522,-300.958281197546
738546.42928614607080817223,-23.9474166081729,-12.758415478988,-300.967513046663
738546.42928623652551323175,-24.0212714011048,-12.739951780755,-300.976744895779
738546.42928632698021829128,-23.9012573625904,-12.7030243842891,-300.967513046663
738546.42928641743492335081,-23.9751121555223,-12.6845606860561,-301.022904141362
738546.42928650788962841034,-23.9197210608234,-12.7122562334056,-300.902890102847
738546.42928659822791814804,-24.0305032502213,-12.7491836298715,-301.050599688711
738546.42928668868262320757,-23.9566484572893,-12.739951780755,-301.059831537828
738546.42928677913732826710,-24.0120395519883,-12.7307199316385,-301.059831537828
738546.42928686959203332663,-23.9658803064058,-12.7491836298715,-301.041367839595
738546.42928696004673838615,-23.9474166081729,-12.6753288369396,-301.032135990478
738546.42928705050144344568,-23.9751121555223,-12.6937925351726,-301.050599688711
738546.42928714095614850521,-23.9381847590564,-12.739951780755,-301.004440443129
738546.42928723141085356474,-24.0120395519883,-12.721488082522,-301.032135990478
738546.42928732174914330244,-23.9381847590564,-12.739951780755,-301.050599688711
738546.42928741220384836197,-23.9658803064058,-12.6660969878231,-301.059831537828
738546.42928750265855342150,-23.9658803064058,-12.758415478988,-301.078295236061
738546.42928759311325848103,-23.9566484572893,-12.6753288369396,-301.022904141362
738546.42928768356796354055,-23.9197210608234,-12.7122562334056,-301.069063386944
738546.42928777402266860008,-24.0212714011048,-12.739951780755,-301.041367839595
738546.42928786447737365961,-23.9658803064058,-12.7676473281045,-300.985976744896
738546.42928795493207871914,-24.0212714011048,-12.758415478988,-301.059831537828
738546.42928804527036845684,-24.0120395519883,-12.8045747245705,-301.087527085177
738546.42928813572507351637,-23.9658803064058,-12.721488082522,-301.041367839595
738546.42928822617977857590,-23.9474166081729,-12.7491836298715,-301.032135990478
738546.42928831663448363543,-23.9381847590564,-12.7122562334056,-301.059831537828
738546.42928840708918869495,-23.9289529099399,-12.6937925351726,-301.059831537828
738546.42928849754389375448,-23.9381847590564,-12.6937925351726,-300.865962706381
738546.42928858799859881401,-23.8735618152409,-12.6199377422407,-300.967513046663
738546.42928867833688855171,-23.818170720542,-12.5922421948912,-301.050599688711
738546.42928876879159361124,-23.9104892117069,-12.6476332895901,-300.958281197546
738546.42928885924629867077,-23.9289529099399,-12.6937925351726,-301.022904141362
738546.42928894970100373030,-23.9751121555223,-12.6568651387066,-300.995208594012
738546.42928904015570878983,-23.9658803064058,-12.7307199316385,-300.976744895779
738546.42928913061041384935,-23.9566484572893,-12.6753288369396,-300.967513046663
738546.42928922106511890888,-23.9658803064058,-12.7307199316385,-300.985976744896
738546.42928931151982396841,-24.0212714011048,-12.7307199316385,-301.004440443129
738546.42928940185811370611,-24.0766624958037,-12.8415021210364,-301.013672292245
738546.42928949231281876564,-24.0674306466872,-12.8230384228034,-301.087527085177
738546.42928958276752382517,-24.0674306466872,-12.8230384228034,-301.10599078341
738546.42928967322222888470,-24.0674306466872,-12.8230384228034,-301.041367839595
738546.42928976367693394423,-24.0305032502213,-12.7861110263375,-301.059831537828
738546.42928985413163900375,-24.0766624958037,-12.8138065736869,-301.078295236061
738546.42928994458634406328,-24.1874446852016,-12.758415478988,-301.078295236061
738546.42929003504104912281,-24.1782128360851,-12.6384014404736,-301.013672292245
738546.42929012537933886051,-23.7443159276101,-12.0567949461348,-300.939817499313
738546.42929021583404392004,-22.9134495071261,-11.6505935850093,-300.755180516984
738546.42929030628874897957,-22.5257118442335,-12.0106357005524,-300.755180516984
738546.42929039674345403910,-23.384273812067,-12.8230384228034,-300.995208594012
738546.42929048719815909863,-23.9751121555223,-12.9153569139683,-301.013672292245
738546.42929057765286415815,-24.1412854396191,-12.776879177221,-300.995208594012
738546.42929066810756921768,-24.1135898922697,-12.6199377422407,-301.013672292245
738546.42929075856227427721,-23.9935758537553,-12.7030243842891,-300.985976744896
738546.42929084890056401491,-24.0028077028718,-12.7030243842891,-301.004440443129
738546.42929093935526907444,-24.0858943449202,-12.8138065736869,-301.022904141362
738546.42929102980997413397,-24.0489669484542,-12.8045747245705,-300.976744895779
738546.42929112026467919350,-24.0766624958037,-12.795342875454,-300.967513046663
738546.42929121071938425303,-24.0581987975707,-12.8230384228034,-300.967513046663
738546.42929130117408931255,-24.0766624958037,-12.795342875454,-301.032135990478
738546.42929139162879437208,-24.0212714011048,-12.795342875454,-300.976744895779
738546.42929148208349943161,-24.0581987975707,-12.758415478988,-301.004440443129
738546.42929157242178916931,-23.9566484572893,-12.7307199316385,-301.041367839595
738546.42929166287649422884,-24.0489669484542,-12.739951780755,-301.041367839595
738546.42929175333119928837,-24.0305032502213,-12.8045747245705,-300.967513046663
738546.42929184378590434790,-24.0581987975707,-12.739951780755,-301.022904141362
738546.42929193424060940742,-23.9751121555223,-12.758415478988,-301.004440443129
738546.42929202469531446695,-24.0212714011048,-12.7030243842891,-300.847499008148
738546.42929211515001952648,-23.9474166081729,-12.7122562334056,-300.958281197546
738546.42929220548830926418,-23.9935758537553,-12.6660969878231,-301.078295236061
738546.42929229594301432371,-23.9289529099399,-12.6845606860561,-301.022904141362
738546.42929238639771938324,-23.9381847590564,-12.5830103457747,-301.022904141362
738546.42929247685242444277,-23.855098117008,-12.5276192510758,-301.013672292245
738546.42929256730712950230,-23.8735618152409,-12.4537644581439,-300.976744895779
738546.42929265776183456182,-23.818170720542,-12.4260689107944,-300.995208594012
738546.42929274821653962135,-23.7812433240761,-12.3891415143284,-301.013672292245
738546.42929283867124468088,-23.7535477767266,-12.2414319284646,-301.004440443129
738546.42929292900953441858,-23.7258522293771,-12.2783593249306,-300.958281197546
738546.42929301946423947811,-23.7627796258431,-12.2229682302316,-300.985976744896
738546.42929310991894453764,-23.7073885311441,-12.2506637775811,-300.939817499313
738546.42929320037364959717,-23.7258522293771,-12.1952726828822,-300.92135380108
738546.42929329082835465670,-23.7166203802606,-12.2783593249306,-300.995208594012
738546.42929338128305971622,-23.7904751731925,-12.30605487228,-300.976744895779
738546.42929347173776477575,-23.7535477767266,-12.379909665212,-300.856730857265
738546.42929356219246983528,-23.8274025696585,-12.3983733634449,-300.912121951964
738546.42929365253075957298,-23.836634418775,-12.5276192510758,-300.92135380108
738546.42929374298546463251,-23.8920255134739,-12.5183874019593,-300.912121951964
738546.42929383344016969204,-23.9012573625904,-12.6014740440077,-300.958281197546
738546.42929392389487475157,-23.9658803064058,-12.6291695913572,-301.022904141362
738546.42929401434957981110,-23.9658803064058,-12.6753288369396,-300.995208594012
738546.42929410480428487062,-23.9474166081729,-12.6291695913572,-301.013672292245
738546.42929419525898993015,-23.9658803064058,-12.6753288369396,-301.013672292245
738546.42929428571369498968,-23.9843440046388,-12.6845606860561,-300.995208594012
738546.42929437605198472738,-23.9935758537553,-12.6845606860561,-301.004440443129
738546.42929446650668978691,-24.0397350993377,-12.739951780755,-301.004440443129
738546.42929455696139484644,-24.0489669484542,-12.7030243842891,-300.985976744896
738546.42929464741609990597,-23.9843440046388,-12.721488082522,-300.995208594012
738546.42929473787080496550,-24.0028077028718,-12.6568651387066,-301.041367839595
738546.42929482832551002502,-23.9935758537553,-12.721488082522,-301.059831537828
738546.42929491878021508455,-24.0212714011048,-12.6753288369396,-301.041367839595
738546.42929500911850482225,-23.9843440046388,-12.7030243842891,-301.032135990478
738546.42929509957320988178,-23.9935758537553,-12.6568651387066,-301.069063386944
738546.42929519002791494131,-23.9751121555223,-12.6845606860561,-300.995208594012
738546.42929528048262000084,-23.9935758537553,-12.6753288369396,-301.022904141362
738546.42929537093732506037,-23.9843440046388,-12.6845606860561,-301.059831537828
738546.42929546139203011990,-23.9935758537553,-12.6845606860561,-301.078295236061
738546.42929555184673517942,-23.9751121555223,-12.6660969878231,-300.838267159032
738546.42929564230144023895,-23.9843440046388,-12.6845606860561,-300.939817499313
738546.42929573263972997665,-23.9658803064058,-12.6568651387066,-301.050599688711
738546.42929582309443503618,-23.9935758537553,-12.6937925351726,-300.995208594012
738546.42929591354914009571,-24.0212714011048,-12.6937925351726,-301.050599688711
738546.42929600400384515524,-23.9935758537553,-12.7307199316385,-301.059831537828
738546.42929609445855021477,-24.0305032502213,-12.6937925351726,-301.032135990478
738546.42929618491325527430,-23.9935758537553,-12.721488082522,-301.013672292245
738546.42929627536796033382,-24.0305032502213,-12.6845606860561,-301.050599688711
738546.42929636582266539335,-23.9935758537553,-12.739951780755,-301.059831537828
738546.42929645616095513105,-24.0212714011048,-12.7030243842891,-300.985976744896
738546.42929654661566019058,-24.0212714011048,-12.7307199316385,-300.995208594012
738546.42929663707036525011,-24.0305032502213,-12.721488082522,-301.069063386944
738546.42929672752507030964,-24.0305032502213,-12.7307199316385,-301.078295236061
738546.42929681797977536917,-24.0397350993377,-12.7307199316385,-301.004440443129
738546.42929690843448042870,-24.0120395519883,-12.6937925351726,-301.050599688711
738546.42929699888918548822,-23.9843440046388,-12.6937925351726,-301.069063386944
738546.42929708934389054775,-24.0305032502213,-12.721488082522,-301.069063386944
738546.42929717968218028545,-23.9658803064058,-12.6753288369396,-301.050599688711
738546.42929727013688534498,-24.1228217413862,-12.776879177221,-301.087527085177
738546.42929736059159040451,-24.0581987975707,-12.8045747245705,-301.059831537828
738546.42929745104629546404,-24.0766624958037,-12.739951780755,-301.041367839595
738546.42929754150100052357,-24.0397350993377,-12.776879177221,-301.096758934294
738546.42929763195570558310,-24.0766624958037,-12.7307199316385,-301.087527085177
738546.42929772241041064262,-23.9935758537553,-12.7491836298715,-301.032135990478
738546.42929781286511570215,-24.0674306466872,-12.7307199316385,-301.078295236061
738546.42929790320340543985,-24.0120395519883,-12.776879177221,-301.078295236061
738546.42929799365811049938,-24.0674306466872,-12.721488082522,-301.013672292245
738546.42929808411281555891,-24.0397350993377,-12.776879177221,-301.032135990478
738546.42929817456752061844,-24.0858943449202,-12.7491836298715,-301.050599688711
738546.42929826502222567797,-24.0120395519883,-12.776879177221,-301.004440443129
738546.42929835547693073750,-24.0397350993377,-12.7676473281045,-300.967513046663
738546.42929844593163579702,-24.0674306466872,-12.721488082522,-301.004440443129
738546.42929853626992553473,-24.0305032502213,-12.758415478988,-300.995208594012
738546.42929862672463059425,-24.0674306466872,-12.7307199316385,-300.967513046663
738546.42929871717933565378,-24.0212714011048,-12.758415478988,-301.022904141362
738546.42929880763404071331,-24.0397350993377,-12.7122562334056,-300.985976744896
738546.42929889808874577284,-23.9843440046388,-12.7491836298715,-301.004440443129
738546.42929898854345083237,-24.0120395519883,-12.6937925351726,-300.995208594012
738546.42929907899815589190,-23.9843440046388,-12.739951780755,-300.94904934843
738546.42929916945286095142,-23.9843440046388,-12.6568651387066,-300.92135380108
738546.42929925979115068913,-23.8735618152409,-12.6291695913572,-300.92135380108
738546.42929935024585574865,-23.9197210608234,-12.5737784966582,-300.912121951964
738546.42929944070056080818,-23.9197210608234,-12.6384014404736,-300.958281197546
738546.42929953115526586771,-23.9751121555223,-12.6568651387066,-300.967513046663
738546.42929962160997092724,-23.9751121555223,-12.7122562334056,-300.976744895779
738546.42929971206467598677,-24.0489669484542,-12.739951780755,-300.967513046663
738546.42929980251938104630,-24.0397350993377,-12.7861110263375,-301.013672292245
738546.42929989297408610582,-24.0766624958037,-12.7861110263375,-301.041367839595
738546.42929998331237584352,-24.0766624958037,-12.795342875454,-301.004440443129
738546.42930007376708090305,-24.0858943449202,-12.7861110263375,-301.050599688711
738546.42930016422178596258,-24.0858943449202,-12.795342875454,-301.032135990478
738546.42930025467649102211,-24.0581987975707,-12.8138065736869,-301.032135990478
738546.42930034513119608164,-24.0858943449202,-12.7491836298715,-301.022904141362
738546.42930043558590114117,-24.0581987975707,-12.8045747245705,-301.032135990478
738546.42930052604060620070,-24.1874446852016,-12.758415478988,-301.022904141362
738546.42930061649531126022,-24.2428357799005,-12.758415478988,-301.032135990478
738546.42930070683360099792,-24.215140232551,-12.4722281563768,-301.004440443129
738546.42930079728830605745,-23.6427655873287,-11.9644764549699,-300.884426404614
738546.42930088774301111698,-22.8395947141942,-11.5767387920774,-300.810571611682
738546.42930097819771617651,-22.6641895809809,-12.2229682302316,-300.829035309915
738546.42930106865242123604,-23.6150700399792,-12.9153569139683,-301.059831537828
738546.42930115910712629557,-24.0489669484542,-12.9061250648518,-301.124454481643
738546.42930124956183135509,-24.1782128360851,-12.6568651387066,-301.10599078341
738546.42930134001653641462,-24.1320535905026,-12.6199377422407,-301.032135990478
738546.42930143035482615232,-24.0951261940367,-12.6753288369396,-301.059831537828
738546.42930152080953121185,-24.0951261940367,-12.7307199316385,-301.087527085177
738546.42930161126423627138,-24.0581987975707,-12.721488082522,-301.032135990478
738546.42930170171894133091,-24.0858943449202,-12.7122562334056,-301.069063386944
738546.42930179217364639044,-24.0581987975707,-12.7491836298715,-301.087527085177
738546.42930188262835144997,-24.0858943449202,-12.721488082522,-300.985976744896
738546.42930197308305650949,-24.0397350993377,-12.7307199316385,-301.059831537828
738546.42930206342134624720,-24.0581987975707,-12.6753288369396,-301.078295236061
738546.42930215387605130672,-24.0397350993377,-12.721488082522,-301.087527085177
738546.42930224433075636625,-24.0858943449202,-12.7122562334056,-301.032135990478
738546.42930233478546142578,-24.0581987975707,-12.721488082522,-300.985976744896
738546.42930242524016648531,-24.0397350993377,-12.6660969878231,-300.976744895779
738546.42930251569487154484,-24.0212714011048,-12.6753288369396,-300.94904934843
738546.42930260614957660437,-24.0120395519883,-12.6384014404736,-300.912121951964
738546.42930269660428166389,-23.9935758537553,-12.6107058931242,-300.893658253731
738546.42930278694257140160,-23.9843440046388,-12.6014740440077,-301.050599688711
738546.42930287739727646112,-23.9935758537553,-12.5645466475417,-301.022904141362
738546.42930296785198152065,-23.9197210608234,-12.5183874019593,-300.958281197546
738546.42930305830668658018,-23.9197210608234,-12.4445326090274,-300.930585650197
738546.42930314876139163971,-23.8458662678915,-12.4168370616779,-300.939817499313
738546.42930323921609669924,-23.855098117008,-12.3152867213965,-300.94904934843
738546.42930332967080175877,-23.7904751731925,-12.30605487228,-300.912121951964
738546.42930342012550681829,-23.7904751731925,-12.2137363811151,-300.912121951964
738546.42930351046379655600,-23.7350840784936,-12.2137363811151,-300.930585650197
738546.42930360091850161552,-23.7350840784936,-12.1306497390667,-300.902890102847
738546.42930369137320667505,-23.6704611346782,-12.1583452864162,-300.912121951964
738546.42930378182791173458,-23.7350840784936,-12.1214178899503,-300.912121951964
738546.42930387228261679411,-23.6889248329112,-12.1952726828822,-300.939817499313
738546.42930396273732185364,-23.7443159276101,-12.1952726828822,-300.92135380108
738546.42930405319202691317,-23.7535477767266,-12.2506637775811,-301.004440443129
738546.42930414364673197269,-23.7720114749596,-12.3337504196295,-300.985976744896
738546.42930423398502171040,-23.836634418775,-12.3706778160955,-300.995208594012
738546.42930432443972676992,-23.8274025696585,-12.4537644581439,-300.94904934843
738546.42930441489443182945,-23.9012573625904,-12.4814600054933,-301.041367839595
738546.42930450534913688898,-23.8827936643574,-12.5737784966582,-301.004440443129
738546.42930459580384194851,-23.9566484572893,-12.5645466475417,-301.013672292245
738546.42930468625854700804,-23.9474166081729,-12.6384014404736,-300.995208594012
738546.42930477671325206757,-23.9751121555223,-12.5922421948912,-301.022904141362
738546.42930486716795712709,-23.9566484572893,-12.6660969878231,-301.013672292245
738546.42930495750624686480,-23.9935758537553,-12.6014740440077,-301.050599688711
738546.42930504796095192432,-23.9197210608234,-12.6199377422407,-301.087527085177
738546.42930513841565698385,-24.0120395519883,-12.6199377422407,-301.050599688711
738546.42930522887036204338,-23.9935758537553,-12.6937925351726,-301.041367839595
738546.42930531932506710291,-24.0581987975707,-12.6568651387066,-301.041367839595
738546.42930540977977216244,-24.0120395519883,-12.6845606860561,-301.069063386944
738546.42930550023447722197,-24.0212714011048,-12.6291695913572,-301.032135990478
738546.42930559057276695967,-23.9751121555223,-12.6568651387066,-301.041367839595
738546.42930568102747201920,-24.0028077028718,-12.6199377422407,-300.976744895779
738546.42930577148217707872,-23.9843440046388,-12.6384014404736,-300.967513046663
738546.42930586193688213825,-23.9658803064058,-12.6568651387066,-300.94904934843
738546.42930595239158719778,-24.0120395519883,-12.6107058931242,-300.976744895779
738546.42930604284629225731,-23.9843440046388,-12.6660969878231,-300.995208594012
738546.42930613330099731684,-24.0305032502213,-12.6199377422407,-301.004440443129
738546.42930622375570237637,-23.9751121555223,-12.6753288369396,-300.893658253731
738546.42930631409399211407,-24.0305032502213,-12.6199377422407,-301.032135990478
738546.42930640454869717360,-24.0028077028718,-12.6753288369396,-301.059831537828
738546.42930649500340223312,-24.0120395519883,-12.6014740440077,-301.069063386944
738546.42930658545810729265,-23.9751121555223,-12.6660969878231,-301.032135990478
738546.42930667591281235218,-24.0674306466872,-12.6660969878231,-300.967513046663
738546.42930676636751741171,-24.0489669484542,-12.7307199316385,-301.013672292245
738546.42930685682222247124,-24.0489669484542,-12.6845606860561,-301.022904141362
738546.42930694727692753077,-24.0489669484542,-12.721488082522,-300.995208594012
738546.42930703761521726847,-24.0581987975707,-12.6845606860561,-301.004440443129
738546.42930712806992232800,-24.0305032502213,-12.7122562334056,-301.041367839595
738546.42930721852462738752,-24.0305032502213,-12.6937925351726,-301.032135990478
738546.42930730897933244705,-24.0397350993377,-12.6845606860561,-301.032135990478
738546.42930739943403750658,-24.0305032502213,-12.6937925351726,-301.013672292245
738546.42930748988874256611,-24.0489669484542,-12.6845606860561,-301.087527085177
738546.42930758034344762564,-24.0397350993377,-12.7030243842891,-301.10599078341
738546.42930767079815268517,-24.0489669484542,-12.6753288369396,-301.059831537828
738546.42930776113644242287,-24.0212714011048,-12.7122562334056,-300.995208594012
738546.42930785159114748240,-24.0674306466872,-12.6753288369396,-301.013672292245
738546.42930794204585254192,-24.0305032502213,-12.7122562334056,-301.004440443129
738546.42930803250055760145,-24.0581987975707,-12.6937925351726,-301.050599688711
738546.42930812295526266098,-24.0305032502213,-12.721488082522,-301.050599688711
738546.42930821340996772051,-24.0489669484542,-12.7122562334056,-301.087527085177
738546.42930830386467278004,-24.0397350993377,-12.7307199316385,-301.032135990478
738546.42930839420296251774,-24.0305032502213,-12.721488082522,-301.032135990478
738546.42930848465766757727,-24.0305032502213,-12.721488082522,-301.013672292245
738546.42930857511237263680,-24.0397350993377,-12.7307199316385,-301.059831537828
738546.42930866556707769632,-24.0489669484542,-12.721488082522,-301.050599688711
738546.42930875602178275585,-24.0305032502213,-12.739951780755,-301.10599078341
738546.42930884647648781538,-24.0581987975707,-12.7122562334056,-301.059831537828
738546.42930893693119287491,-24.0212714011048,-12.739951780755,-301.032135990478
738546.42930902738589793444,-24.0305032502213,-12.7030243842891,-301.032135990478
738546.42930911772418767214,-23.9658803064058,-12.721488082522,-301.032135990478
738546.42930920817889273167,-23.9935758537553,-12.6753288369396,-301.087527085177
738546.42930929863359779119,-23.9751121555223,-12.721488082522,-301.041367839595
738546.42930938908830285072,-23.9751121555223,-12.6476332895901,-301.078295236061
738546.42930947954300791025,-23.8735618152409,-12.6291695913572,-301.059831537828
738546.42930956999771296978,-23.9104892117069,-12.5645466475417,-301.059831537828
738546.42930966045241802931,-23.9289529099399,-12.5922421948912,-300.995208594012
738546.42930975090712308884,-23.9197210608234,-12.6291695913572,-300.92135380108
738546.42930984124541282654,-23.9843440046388,-12.6568651387066,-301.096758934294
738546.42930993170011788607,-23.9935758537553,-12.6845606860561,-301.041367839595
738546.42931002215482294559,-24.0581987975707,-12.6937925351726,-301.078295236061
738546.42931011260952800512,-24.0581987975707,-12.7491836298715,-301.078295236061
738546.42931020306423306465,-24.0951261940367,-12.7307199316385,-301.096758934294
738546.42931029351893812418,-24.0766624958037,-12.758415478988,-301.069063386944
738546.42931038397364318371,-24.1043580431532,-12.7307199316385,-301.10599078341
738546.42931047442834824324,-24.0674306466872,-12.776879177221,-301.059831537828
738546.42931056476663798094,-24.1228217413862,-12.739951780755,-301.059831537828
738546.42931065522134304047,-24.0766624958037,-12.7861110263375,-301.078295236061
738546.42931074567604809999,-24.215140232551,-12.758415478988,-301.087527085177
738546.42931083613075315952,-24.2243720816675,-12.7491836298715,-301.022904141362
738546.42931092658545821905,-24.1320535905026,-12.4076052125614,-301.013672292245
738546.42931101704016327858,-23.4304330576495,-11.909085360271,-300.856730857265
738546.42931110749486833811,-22.6180303353984,-11.5859706411939,-300.709021271401
738546.42931119794957339764,-22.6918851283303,-12.3337504196295,-300.92135380108
738546.42931128828786313534,-23.6889248329112,-12.8876613666189,-301.096758934294
738546.42931137874256819487,-24.1043580431532,-12.8784295175024,-301.115222632527
738546.42931146919727325439,-24.2059083834346,-12.6384014404736,-301.059831537828
738546.42931155965197831392,-24.1874446852016,-12.5922421948912,-300.967513046663
738546.42931165010668337345,-24.0674306466872,-12.6568651387066,-300.967513046663
738546.42931174056138843298,-24.1043580431532,-12.6845606860561,-300.985976744896
738546.42931183101609349251,-24.0674306466872,-12.739951780755,-301.022904141362
738546.42931192135438323021,-24.0951261940367,-12.6845606860561,-301.013672292245
738546.42931201180908828974,-24.0489669484542,-12.7307199316385,-301.022904141362
738546.42931210226379334927,-24.0951261940367,-12.6660969878231,-301.050599688711
738546.42931219271849840879,-24.0489669484542,-12.7122562334056,-301.041367839595
738546.42931228317320346832,-24.0951261940367,-12.6476332895901,-301.041367839595
738546.42931237362790852785,-24.0305032502213,-12.6753288369396,-301.059831537828
738546.42931246408261358738,-24.0766624958037,-12.6199377422407,-301.069063386944
738546.42931255453731864691,-24.0212714011048,-12.6476332895901,-301.032135990478
738546.42931264487560838461,-24.0397350993377,-12.6014740440077,-301.041367839595
738546.42931273533031344414,-24.0028077028718,-12.6014740440077,-301.032135990478
738546.42931282578501850367,-24.0028077028718,-12.5553147984252,-300.958281197546
738546.42931291623972356319,-23.9751121555223,-12.5645466475417,-300.995208594012
738546.42931300669442862272,-23.9658803064058,-12.5368511001923,-301.013672292245
738546.42931309714913368225,-23.9381847590564,-12.5276192510758,-301.022904141362
738546.42931318760383874178,-23.9104892117069,-12.4906918546098,-300.801339762566
738546.42931327805854380131,-23.8827936643574,-12.4445326090274,-300.92135380108
738546.42931336839683353901,-23.836634418775,-12.3983733634449,-300.985976744896
738546.42931345885153859854,-23.855098117008,-12.342982268746,-300.995208594012
738546.42931354930624365807,-23.7720114749596,-12.3337504196295,-300.976744895779
738546.42931363976094871759,-23.7812433240761,-12.2414319284646,-300.967513046663
738546.42931373021565377712,-23.7166203802606,-12.2322000793481,-301.004440443129
738546.42931382067035883665,-23.7443159276101,-12.1768089846492,-300.930585650197
738546.42931391112506389618,-23.6889248329112,-12.1768089846492,-300.893658253731
738546.42931400157976895571,-23.6981566820276,-12.1583452864162,-300.884426404614
738546.42931409191805869341,-23.6889248329112,-12.1860408337657,-300.875194555498
738546.42931418237276375294,-23.7166203802606,-12.1952726828822,-300.893658253731
738546.42931427282746881247,-23.7443159276101,-12.2598956266976,-300.967513046663
738546.42931436328217387199,-23.7720114749596,-12.3152867213965,-300.976744895779
738546.42931445373687893152,-23.818170720542,-12.3706778160955,-301.013672292245
738546.42931454419158399105,-23.836634418775,-12.4353007599109,-301.032135990478
738546.42931463464628905058,-23.8920255134739,-12.4629963072604,-301.050599688711
738546.42931472510099411011,-23.9104892117069,-12.5276192510758,-301.013672292245
738546.42931481543928384781,-23.9474166081729,-12.5276192510758,-301.050599688711
738546.42931490589398890734,-23.9381847590564,-12.5922421948912,-301.087527085177
738546.42931499634869396687,-23.9843440046388,-12.5830103457747,-300.995208594012
738546.42931508680339902639,-23.9566484572893,-12.6291695913572,-301.050599688711
738546.42931517725810408592,-24.0028077028718,-12.6014740440077,-301.050599688711
738546.42931526771280914545,-23.9751121555223,-12.6384014404736,-301.069063386944
738546.42931535816751420498,-23.9843440046388,-12.6199377422407,-301.032135990478
738546.42931544850580394268,-23.9658803064058,-12.6199377422407,-301.069063386944
738546.42931553896050900221,-23.9751121555223,-12.6199377422407,-301.078295236061
738546.42931562941521406174,-23.9751121555223,-12.6014740440077,-301.059831537828
738546.42931571986991912127,-23.9658803064058,-12.6014740440077,-301.069063386944
738546.42931581032462418079,-23.9751121555223,-12.5737784966582,-300.94904934843
738546.42931590077932924032,-23.9474166081729,-12.5830103457747,-301.013672292245
738546.42931599123403429985,-23.9843440046388,-12.5645466475417,-300.995208594012
738546.42931608168873935938,-23.9566484572893,-12.6014740440077,-300.976744895779
738546.42931617202702909708,-23.9843440046388,-12.5553147984252,-301.013672292245
738546.42931626248173415661,-23.9381847590564,-12.6014740440077,-300.967513046663
738546.42931635293643921614,-23.9843440046388,-12.5645466475417,-300.995208594012
738546.42931644339114427567,-23.9566484572893,-12.6014740440077,-300.995208594012
738546.42931653384584933519,-23.9935758537553,-12.5645466475417,-300.985976744896
738546.42931662430055439472,-23.9566484572893,-12.6199377422407,-301.041367839595
738546.42931671475525945425,-24.0212714011048,-12.5645466475417,-300.847499008148
738546.42931680520996451378,-23.9751121555223,-12.6199377422407,-300.939817499313
738546.42931689554825425148,-24.0120395519883,-12.5737784966582,-301.032135990478
738546.42931698600295931101,-23.9751121555223,-12.6291695913572,-301.050599688711
738546.42931707645766437054,-24.0212714011048,-12.5830103457747,-300.976744895779
738546.42931716691236943007,-24.0212714011048,-12.5922421948912,-301.041367839595
738546.42931725736707448959,-23.9935758537553,-12.6291695913572,-301.069063386944
738546.42931734782177954912,-24.0212714011048,-12.5922421948912,-301.032135990478
738546.42931743827648460865,-23.9751121555223,-12.6199377422407,-301.022904141362
738546.42931752873118966818,-24.0305032502213,-12.5737784966582,-301.022904141362
738546.42931761906947940588,-23.9843440046388,-12.6291695913572,-301.032135990478
738546.42931770952418446541,-24.0397350993377,-12.5922421948912,-301.032135990478
738546.42931779997888952494,-23.9843440046388,-12.6291695913572,-301.069063386944
738546.42931789043359458447,-24.0120395519883,-12.5737784966582,-301.050599688711
738546.42931798088829964399,-23.9658803064058,-12.6199377422407,-301.022904141362
738546.42931807134300470352,-24.0120395519883,-12.5737784966582,-301.087527085177
738546.42931816179770976305,-23.9751121555223,-12.6107058931242,-301.059831537828
738546.42931825213599950075,-24.0212714011048,-12.5830103457747,-300.985976744896
738546.42931834259070456028,-23.9843440046388,-12.6199377422407,-301.050599688711
738546.42931843304540961981,-24.0212714011048,-12.5830103457747,-300.985976744896
738546.42931852350011467934,-23.9751121555223,-12.6107058931242,-300.939817499313
738546.42931861395481973886,-23.9843440046388,-12.5737784966582,-300.995208594012
738546.42931870440952479839,-23.9381847590564,-12.6014740440077,-300.995208594012
738546.42931879486422985792,-23.9474166081729,-12.5830103457747,-301.004440443129
738546.42931888531893491745,-23.9566484572893,-12.5922421948912,-301.022904141362
738546.42931897565722465515,-23.9197210608234,-12.5368511001923,-301.032135990478
738546.42931906611192971468,-23.9012573625904,-12.4814600054933,-301.050599688711
738546.42931915656663477421,-23.8458662678915,-12.5091555528428,-300.995208594012
738546.42931924702133983374,-23.9197210608234,-12.4722281563768,-301.013672292245
738546.42931933747604489326,-23.8920255134739,-12.5645466475417,-301.069063386944
738546.42931942793074995279,-23.9843440046388,-12.5368511001923,-301.050599688711
738546.42931951838545501232,-23.9658803064058,-12.6014740440077,-301.013672292245
738546.42931960884016007185,-24.0397350993377,-12.5922421948912,-301.041367839595
738546.42931969917844980955,-24.0397350993377,-12.6568651387066,-301.059831537828
738546.42931978963315486908,-24.0674306466872,-12.6291695913572,-300.967513046663
738546.42931988008785992861,-24.0489669484542,-12.6568651387066,-300.995208594012
738546.42931997054256498814,-24.0766624958037,-12.6384014404736,-301.004440443129
738546.42932006099727004766,-24.0581987975707,-12.6568651387066,-300.985976744896
738546.42932015145197510719,-24.0674306466872,-12.6476332895901,-300.985976744896
738546.42932024190668016672,-24.0766624958037,-12.6476332895901,-300.856730857265
738546.42932033236138522625,-24.1505172887356,-12.6660969878231,-300.912121951964
738546.42932042269967496395,-24.2243720816675,-12.6107058931242,-301.013672292245
738546.42932051315438002348,-24.0951261940367,-12.324518570513,-300.958281197546
738546.42932060360908508301,-23.5042878505814,-11.7613757744072,-300.79210791345
738546.42932069406379014254,-22.6087984862819,-11.5305795464949,-300.718253120518
738546.42932078451849520206,-22.7380443739128,-12.1491134372997,-300.838267159032
738546.42932087497320026159,-23.6335337382122,-12.776879177221,-300.995208594012
738546.42932096542790532112,-23.9197210608234,-12.7676473281045,-301.096758934294
738546.42932105588261038065,-24.1505172887356,-12.6384014404736,-301.059831537828
738546.42932114622090011835,-24.1782128360851,-12.5183874019593,-301.004440443129
738546.42932123667560517788,-24.0766624958037,-12.5553147984252,-301.013672292245
738546.42932132713031023741,-24.0858943449202,-12.6199377422407,-301.004440443129
738546.42932141758501529694,-24.0766624958037,-12.6384014404736,-301.087527085177
738546.42932150803972035646,-24.0581987975707,-12.6476332895901,-301.004440443129
738546.42932159849442541599,-24.0766624958037,-12.6476332895901,-301.004440443129
738546.42932168894913047552,-24.0581987975707,-12.6568651387066,-300.985976744896
738546.42932177928742021322,-24.0674306466872,-12.6291695913572,-301.069063386944
738546.42932186974212527275,-24.0305032502213,-12.6476332895901,-301.041367839595
738546.42932196019683033228,-24.0674306466872,-12.6291695913572,-300.995208594012
738546.42932205065153539181,-24.0212714011048,-12.6476332895901,-301.050599688711
738546.42932214110624045134,-24.0581987975707,-12.6014740440077,-301.041367839595
738546.42932223156094551086,-24.0120395519883,-12.6199377422407,-300.958281197546
738546.42932232201565057039,-24.0397350993377,-12.5645466475417,-300.958281197546
738546.42932241247035562992,-23.9751121555223,-12.5922421948912,-300.958281197546
738546.42932250280864536762,-23.9935758537553,-12.5368511001923,-300.958281197546
738546.42932259326335042715,-23.9381847590564,-12.5460829493088,-300.939817499313
738546.42932268371805548668,-23.9658803064058,-12.4537644581439,-300.995208594012
738546.42932277417276054621,-23.8920255134739,-12.4537644581439,-300.995208594012
738546.42932286462746560574,-23.9012573625904,-12.4076052125614,-300.967513046663
738546.42932295508217066526,-23.8735618152409,-12.342982268746,-300.967513046663
738546.42932304553687572479,-23.8089388714255,-12.2875911740471,-301.004440443129
738546.42932313599158078432,-23.799707022309,-12.2045045319987,-300.985976744896
738546.42932322632987052202,-23.7443159276101,-12.1768089846492,-300.939817499313
738546.42932331678457558155,-23.7443159276101,-12.0937223426008,-300.939817499313
738546.42932340723928064108,-23.6889248329112,-12.1029541917173,-300.939817499313
738546.42932349769398570061,-23.7258522293771,-12.0475630970183,-300.902890102847
738546.42932358814869076014,-23.6612292855617,-12.0937223426008,-300.967513046663
738546.42932367860339581966,-23.7258522293771,-12.0660267952513,-300.94904934843
738546.42932376905810087919,-23.6889248329112,-12.1583452864162,-300.801339762566
738546.42932385951280593872,-23.7627796258431,-12.1768089846492,-300.865962706381
738546.42932394985109567642,-23.7627796258431,-12.2968230231635,-300.976744895779
738546.42932404030580073595,-23.855098117008,-12.324518570513,-300.958281197546
738546.42932413076050579548,-23.836634418775,-12.4260689107944,-301.022904141362
738546.42932422121521085501,-23.9197210608234,-12.4445326090274,-301.022904141362
738546.42932431166991591454,-23.9104892117069,-12.5183874019593,-300.976744895779
738546.42932440212462097406,-23.9381847590564,-12.5091555528428,-300.995208594012
738546.42932449257932603359,-23.9381847590564,-12.5553147984252,-301.069063386944
738546.42932458303403109312,-23.9935758537553,-12.5553147984252,-301.069063386944
738546.42932467337232083082,-24.0028077028718,-12.5460829493088,-301.032135990478
738546.42932476382702589035,-23.9658803064058,-12.6014740440077,-301.032135990478
738546.42932485428173094988,-24.0120395519883,-12.5553147984252,-301.059831537828
738546.42932494473643600941,-23.9751121555223,-12.6014740440077,-300.985976744896
738546.42932503519114106894,-24.0120395519883,-12.5553147984252,-301.013672292245
738546.42932512564584612846,-23.9566484572893,-12.5922421948912,-300.985976744896
738546.42932521610055118799,-23.9843440046388,-12.5460829493088,-300.995208594012
738546.42932530643884092569,-23.9381847590564,-12.5737784966582,-300.976744895779
738546.42932539689354598522,-23.9843440046388,-12.5368511001923,-300.939817499313
738546.42932548734825104475,-23.9381847590564,-12.5645466475417,-300.94904934843
738546.42932557780295610428,-23.9751121555223,-12.5368511001923,-300.94904934843
738546.42932566825766116381,-23.9381847590564,-12.5645466475417,-300.976744895779
738546.42932575871236622334,-23.9566484572893,-12.5276192510758,-300.958281197546
738546.42932584916707128286,-23.9289529099399,-12.5460829493088,-300.92135380108
738546.42932593962177634239,-23.9474166081729,-12.5368511001923,-300.985976744896
738546.42932602996006608009,-23.9566484572893,-12.5553147984252,-300.939817499313
738546.42932612041477113962,-23.9658803064058,-12.5553147984252,-300.930585650197
738546.42932621086947619915,-23.9751121555223,-12.5645466475417,-300.94904934843
738546.42932630132418125868,-23.9658803064058,-12.5645466475417,-300.958281197546
738546.42932639177888631821,-23.9658803064058,-12.5553147984252,-300.967513046663
738546.42932648223359137774,-23.9566484572893,-12.5830103457747,-300.958281197546
738546.42932657268829643726,-23.9843440046388,-12.5553147984252,-300.985976744896
738546.42932666314300149679,-23.9658803064058,-12.5922421948912,-301.013672292245
738546.42932675348129123449,-23.9843440046388,-12.5645466475417,-301.050599688711
738546.42932684393599629402,-23.9566484572893,-12.5922421948912,-301.004440443129
738546.42932693439070135355,-23.9935758537553,-12.5645466475417,-301.041367839595
738546.42932702484540641308,-23.9751121555223,-12.5922421948912,-301.022904141362
738546.42932711530011147261,-23.9935758537553,-12.5830103457747,-300.976744895779
738546.42932720575481653214,-23.9935758537553,-12.6014740440077,-301.041367839595
738546.42932729620952159166,-23.9935758537553,-12.5830103457747,-300.967513046663
738546.42932738666422665119,-23.9935758537553,-12.6014740440077,-300.865962706381
738546.42932747700251638889,-23.9843440046388,-12.6014740440077,-301.022904141362
738546.42932756745722144842,-24.0028077028718,-12.5922421948912,-301.050599688711
738546.42932765791192650795,-23.9843440046388,-12.6014740440077,-300.995208594012
738546.42932774836663156748,-24.0028077028718,-12.5830103457747,-301.050599688711
738546.42932783882133662701,-23.9843440046388,-12.6107058931242,-301.069063386944
738546.42932792927604168653,-24.0120395519883,-12.5830103457747,-301.041367839595
738546.42932801973074674606,-23.9751121555223,-12.6199377422407,-301.004440443129
738546.42932811018545180559,-23.9935758537553,-12.5830103457747,-301.041367839595
738546.42932820052374154329,-23.9658803064058,-12.6199377422407,-300.94904934843
738546.42932829097844660282,-24.0212714011048,-12.5737784966582,-300.939817499313
738546.42932838143315166235,-23.9289529099399,-12.6014740440077,-300.939817499313
738546.42932847188785672188,-23.9381847590564,-12.5737784966582,-300.995208594012
738546.42932856234256178141,-23.9289529099399,-12.5737784966582,-301.022904141362
738546.42932865279726684093,-23.9474166081729,-12.5830103457747,-301.004440443129
738546.42932874325197190046,-23.9197210608234,-12.5368511001923,-301.004440443129
738546.42932883359026163816,-23.818170720542,-12.4814600054933,-301.041367839595
738546.42932892404496669769,-23.836634418775,-12.4537644581439,-301.022904141362
738546.42932901449967175722,-23.8458662678915,-12.4906918546098,-300.939817499313
738546.42932910495437681675,-23.8920255134739,-12.4999237037263,-300.967513046663
738546.42932919540908187628,-23.9012573625904,-12.5645466475417,-301.013672292245
738546.42932928586378693581,-23.9658803064058,-12.5460829493088,-300.976744895779
738546.42932937631849199533,-23.9751121555223,-12.6199377422407,-301.022904141362
738546.42932946677319705486,-24.0397350993377,-12.6014740440077,-301.004440443129
738546.42932955711148679256,-24.0028077028718,-12.6568651387066,-301.041367839595
738546.42932964756619185209,-24.0489669484542,-12.6107058931242,-301.059831537828
738546.42932973802089691162,-24.0028077028718,-12.6568651387066,-300.985976744896
738546.42932982847560197115,-24.0674306466872,-12.6199377422407,-301.032135990478
738546.42932991893030703068,-24.0212714011048,-12.6660969878231,-301.041367839595
738546.42933000938501209021,-24.0766624958037,-12.6199377422407,-300.958281197546
738546.42933009983971714973,-24.1412854396191,-12.6568651387066,-301.022904141362
738546.42933019029442220926,-24.1966765343181,-12.5460829493088,-300.995208594012
738546.42933028063271194696,-23.9658803064058,-12.1768089846492,-300.94904934843
738546.42933037108741700649,-23.6612292855617,-11.8998535111545,-300.810571611682
738546.42933046154212206602,-22.8765221106601,-11.4659566026795,-300.681325724052
738546.42933055199682712555,-22.516479995117,-11.9737083040864,-300.736716818751
738546.42933064245153218508,-23.5042878505814,-12.6568651387066,-300.930585650197
738546.42933073290623724461,-23.9751121555223,-12.7861110263375,-300.995208594012
738546.42933082336094230413,-24.1874446852016,-12.5460829493088,-300.893658253731
738546.42933091381564736366,-24.0951261940367,-12.5276192510758,-300.912121951964
738546.42933100415393710136,-24.0858943449202,-12.5276192510758,-301.041367839595
738546.42933109460864216089,-24.0212714011048,-12.6384014404736,-301.004440443129
738546.42933118506334722042,-24.0766624958037,-12.6014740440077,-301.069063386944
738546.42933127551805227995,-24.0305032502213,-12.6384014404736,-301.059831537828
738546.42933136597275733948,-24.0674306466872,-12.6107058931242,-301.069063386944
738546.42933145642746239901,-24.0305032502213,-12.6291695913572,-301.059831537828
738546.42933154688216745853,-24.0489669484542,-12.5922421948912,-301.069063386944
738546.42933163722045719624,-24.0120395519883,-12.6107058931242,-301.032135990478
738546.42933172767516225576,-24.0305032502213,-12.5922421948912,-301.032135990478
738546.42933181812986731529,-24.0120395519883,-12.5830103457747,-301.050599688711
738546.42933190858457237482,-24.0120395519883,-12.5737784966582,-301.078295236061
738546.42933199903927743435,-23.9935758537553,-12.5553147984252,-301.078295236061
738546.42933208949398249388,-23.9751121555223,-12.5460829493088,-300.985976744896
738546.42933217994868755341,-23.9751121555223,-12.5091555528428,-301.032135990478
738546.42933227040339261293,-23.9381847590564,-12.5276192510758,-301.041367839595
738546.42933236074168235064,-23.9474166081729,-12.4445326090274,-301.032135990478
738546.42933245119638741016,-23.9012573625904,-12.4537644581439,-301.004440443129
738546.42933254165109246969,-23.9104892117069,-12.3706778160955,-301.050599688711
738546.42933263210579752922,-23.8458662678915,-12.3522141178625,-300.930585650197
738546.42933272256050258875,-23.836634418775,-12.2691274758141,-300.902890102847
738546.42933281301520764828,-23.7720114749596,-12.2322000793481,-300.902890102847
738546.42933290346991270781,-23.7627796258431,-12.1491134372997,-300.893658253731
738546.42933299392461776733,-23.7258522293771,-12.1029541917173,-300.875194555498
738546.42933308426290750504,-23.6981566820276,-12.0567949461348,-300.884426404614
738546.42933317471761256456,-23.6796929837947,-12.0290993987854,-300.912121951964
738546.42933326517231762409,-23.6704611346782,-12.0198675496689,-300.92135380108
738546.42933335562702268362,-23.6704611346782,-12.0290993987854,-300.958281197546
738546.42933344608172774315,-23.6612292855617,-12.0752586443678,-300.92135380108
738546.42933353653643280268,-23.7073885311441,-12.1121860408338,-300.902890102847
738546.42933362699113786221,-23.7258522293771,-12.2045045319987,-300.893658253731
738546.42933371744584292173,-23.7904751731925,-12.2414319284646,-300.92135380108
738546.42933380778413265944,-23.799707022309,-12.3522141178625,-301.004440443129
738546.42933389823883771896,-23.8827936643574,-12.379909665212,-300.94904934843
738546.42933398869354277849,-23.8458662678915,-12.4629963072604,-300.930585650197
738546.42933407914824783802,-23.9381847590564,-12.4722281563768,-300.967513046663
738546.42933416960295289755,-23.9104892117069,-12.5091555528428,-300.958281197546
738546.42933426005765795708,-23.9381847590564,-12.5183874019593,-300.958281197546
738546.42933435051236301661,-23.9658803064058,-12.5368511001923,-300.94904934843
738546.42933444096706807613,-23.9566484572893,-12.5460829493088,-300.912121951964
738546.42933453130535781384,-23.9658803064058,-12.5460829493088,-301.022904141362
738546.42933462176006287336,-23.9474166081729,-12.5553147984252,-300.976744895779
738546.42933471221476793289,-23.9658803064058,-12.5460829493088,-301.013672292245
738546.42933480266947299242,-23.9474166081729,-12.5645466475417,-301.004440443129
738546.42933489312417805195,-23.9751121555223,-12.5276192510758,-301.041367839595
738546.42933498357888311148,-23.9381847590564,-12.5645466475417,-301.022904141362
738546.42933507403358817101,-23.9751121555223,-12.5276192510758,-301.032135990478
738546.42933516437187790871,-23.9289529099399,-12.5553147984252,-301.032135990478
738546.42933525482658296824,-23.9658803064058,-12.5183874019593,-301.050599688711
738546.42933534528128802776,-23.9104892117069,-12.5553147984252,-301.004440443129
738546.42933543573599308729,-23.9658803064058,-12.5183874019593,-301.004440443129
738546.42933552619069814682,-23.9197210608234,-12.5553147984252,-301.041367839595
738546.42933561664540320635,-23.9566484572893,-12.5183874019593,-301.050599688711
738546.42933570710010826588,-23.9197210608234,-12.5645466475417,-300.958281197546
738546.42933579755481332541,-23.9658803064058,-12.5183874019593,-301.022904141362
738546.42933588789310306311,-23.9289529099399,-12.5553147984252,-301.032135990478
738546.42933597834780812263,-23.9381847590564,-12.5553147984252,-301.013672292245
738546.42933606880251318216,-23.9658803064058,-12.5276192510758,-300.939817499313
738546.42933615925721824169,-23.9289529099399,-12.5553147984252,-300.94904934843
738546.42933624971192330122,-23.9751121555223,-12.5276192510758,-300.94904934843
738546.42933634016662836075,-23.9566484572893,-12.5830103457747,-300.92135380108
738546.42933643062133342028,-23.9935758537553,-12.5276192510758,-300.976744895779
738546.42933652107603847980,-23.9566484572893,-12.5830103457747,-300.976744895779
738546.42933661141432821751,-23.9935758537553,-12.5553147984252,-300.967513046663
738546.42933670186903327703,-23.9658803064058,-12.5922421948912,-300.958281197546
738546.42933679232373833656,-24.0120395519883,-12.5460829493088,-300.995208594012
738546.42933688277844339609,-23.9751121555223,-12.5922421948912,-301.022904141362
738546.42933697323314845562,-24.0120395519883,-12.5460829493088,-301.022904141362
738546.42933706368785351515,-23.9658803064058,-12.5922421948912,-301.004440443129
738546.42933715414255857468,-24.0120395519883,-12.5553147984252,-301.022904141362
738546.42933724459726363420,-23.9658803064058,-12.5830103457747,-301.041367839595
738546.42933733493555337191,-23.9935758537553,-12.5645466475417,-301.050599688711
738546.42933742539025843143,-23.9751121555223,-12.5830103457747,-301.050599688711
738546.42933751584496349096,-24.0028077028718,-12.5645466475417,-300.995208594012
738546.42933760629966855049,-23.9751121555223,-12.5830103457747,-301.013672292245
738546.42933769675437361002,-24.0028077028718,-12.5830103457747,-300.985976744896
738546.42933778720907866955,-24.0028077028718,-12.5830103457747,-300.985976744896
738546.42933787766378372908,-23.9751121555223,-12.6014740440077,-300.94904934843
738546.42933796811848878860,-24.0028077028718,-12.5553147984252,-300.865962706381
738546.42933805845677852631,-23.9658803064058,-12.6014740440077,-301.013672292245
738546.42933814891148358583,-24.0120395519883,-12.5645466475417,-301.041367839595
738546.42933823936618864536,-23.9658803064058,-12.6014740440077,-301.059831537828
738546.42933832982089370489,-24.0120395519883,-12.5645466475417,-301.041367839595
738546.42933842027559876442,-23.9381847590564,-12.5737784966582,-301.013672292245
738546.42933851073030382395,-23.9381847590564,-12.5368511001923,-301.069063386944
738546.42933860118500888348,-23.9104892117069,-12.5737784966582,-300.967513046663
738546.42933869152329862118,-23.9381847590564,-12.5460829493088,-301.013672292245
738546.42933878197800368071,-23.8643299661245,-12.5276192510758,-300.995208594012
738546.42933887243270874023,-23.8458662678915,-12.4629963072604,-301.041367839595
738546.42933896288741379976,-23.8458662678915,-12.4537644581439,-300.985976744896
738546.42933905334211885929,-23.8920255134739,-12.4814600054933,-300.976744895779
738546.42933914379682391882,-23.9012573625904,-12.5183874019593,-301.050599688711
738546.42933923425152897835,-23.9474166081729,-12.5553147984252,-301.050599688711
738546.42933932470623403788,-23.9751121555223,-12.5553147984252,-301.078295236061
738546.42933941504452377558,-24.0028077028718,-12.6107058931242,-301.004440443129
738546.42933950549922883511,-24.0581987975707,-12.5922421948912,-300.985976744896
738546.42933959595393389463,-24.0305032502213,-12.6384014404736,-301.050599688711
738546.42933968640863895416,-24.0766624958037,-12.6107058931242,-301.050599688711
738546.42933977686334401369,-24.0489669484542,-12.6384014404736,-301.069063386944
738546.42933986731804907322,-24.0766624958037,-12.6107058931242,-301.032135990478
738546.42933995777275413275,-24.0581987975707,-12.6384014404736,-301.069063386944
738546.42934004822745919228,-24.0766624958037,-12.6291695913572,-301.087527085177
738546.42934013856574892998,-24.1505172887356,-12.6384014404736,-300.985976744896
738546.42934022902045398951,-24.1966765343181,-12.5645466475417,-301.041367839595
738546.42934031947515904903,-24.0397350993377,-12.2229682302316,-300.976744895779
738546.42934040992986410856,-23.3935056611835,-11.6875209814753,-300.773644215217
738546.42934050038456916809,-22.53494369335,-11.5213476973785,-300.736716818751
738546.42934059083927422762,-22.8765221106601,-12.2691274758141,-300.930585650197
738546.42934068129397928715,-23.7166203802606,-12.739951780755,-301.022904141362
738546.42934077174868434668,-24.0951261940367,-12.7030243842891,-301.050599688711
738546.42934086208697408438,-24.1597491378521,-12.4814600054933,-301.059831537828
738546.42934095254167914391,-24.0489669484542,-12.5091555528428,-301.022904141362
738546.42934104299638420343,-24.0581987975707,-12.5368511001923,-301.022904141362
738546.42934113345108926296,-24.0028077028718,-12.6014740440077,-301.050599688711
738546.42934122390579432249,-24.0674306466872,-12.5737784966582,-301.041367839595
738546.42934131436049938202,-24.0120395519883,-12.6107058931242,-301.022904141362
738546.42934140481520444155,-24.0674306466872,-12.5737784966582,-300.893658253731
738546.42934149515349417925,-24.0489669484542,-12.6660969878231,-301.013672292245
738546.42934158560819923878,-24.0766624958037,-12.6107058931242,-300.995208594012
738546.42934167606290429831,-24.0581987975707,-12.6107058931242,-300.995208594012
738546.42934176651760935783,-24.0489669484542,-12.6107058931242,-300.985976744896
738546.42934185697231441736,-24.0581987975707,-12.5830103457747,-300.967513046663
738546.42934194742701947689,-24.0028077028718,-12.5922421948912,-300.958281197546
738546.42934203788172453642,-24.0397350993377,-12.5368511001923,-301.004440443129
738546.42934212833642959595,-23.9935758537553,-12.5645466475417,-301.013672292245
738546.42934221867471933365,-24.0212714011048,-12.4906918546098,-300.985976744896
738546.42934230912942439318,-23.9566484572893,-12.5091555528428,-301.004440443129
738546.42934239958412945271,-23.9751121555223,-12.4168370616779,-300.985976744896
738546.42934249003883451223,-23.9104892117069,-12.4168370616779,-300.976744895779
738546.42934258049353957176,-23.9381847590564,-12.324518570513,-300.995208594012
738546.42934267094824463129,-23.8643299661245,-12.324518570513,-301.032135990478
738546.42934276140294969082,-23.8735618152409,-12.2137363811151,-300.976744895779
738546.42934285185765475035,-23.7904751731925,-12.1768089846492,-300.958281197546
738546.42934294219594448805,-23.799707022309,-12.0844904934843,-300.967513046663
738546.42934303265064954758,-23.7166203802606,-12.0660267952513,-300.912121951964
738546.42934312310535460711,-23.7443159276101,-12.0106357005524,-300.902890102847
738546.42934321356005966663,-23.6519974364452,-11.9829401532029,-300.912121951964
738546.42934330401476472616,-23.6889248329112,-11.9552446058534,-300.884426404614
738546.42934339446946978569,-23.6981566820276,-12.0290993987854,-300.939817499313
738546.42934348492417484522,-23.7350840784936,-12.0475630970183,-300.967513046663
738546.42934357537887990475,-23.7627796258431,-12.0660267952513,-300.958281197546
738546.42934366571716964245,-23.7350840784936,-12.1768089846492,-300.912121951964
738546.42934375617187470198,-23.818170720542,-12.1952726828822,-300.995208594012
738546.42934384662657976151,-23.799707022309,-12.2968230231635,-301.013672292245
738546.42934393708128482103,-23.8735618152409,-12.324518570513,-300.930585650197
738546.42934402753598988056,-23.8643299661245,-12.4168370616779,-301.022904141362
738546.42934411799069494009,-23.9381847590564,-12.4168370616779,-301.069063386944
738546.42934420844539999962,-23.9012573625904,-12.4722281563768,-301.013672292245
738546.42934429890010505915,-23.9566484572893,-12.4629963072604,-301.041367839595
738546.42934438923839479685,-23.9289529099399,-12.5091555528428,-301.032135990478
738546.42934447969309985638,-23.9843440046388,-12.5183874019593,-301.041367839595
738546.42934457014780491590,-23.9566484572893,-12.5276192510758,-301.041367839595
738546.42934466060250997543,-24.0120395519883,-12.5368511001923,-301.078295236061
738546.42934475105721503496,-23.9843440046388,-12.5460829493088,-301.059831537828
738546.42934484151192009449,-23.9935758537553,-12.5368511001923,-301.013672292245
738546.42934493196662515402,-23.9751121555223,-12.5368511001923,-300.865962706381
738546.42934502230491489172,-23.9658803064058,-12.5368511001923,-300.958281197546
738546.42934511275961995125,-23.9751121555223,-12.5183874019593,-301.004440443129
738546.42934520321432501078,-23.9289529099399,-12.5183874019593,-301.013672292245
738546.42934529366903007030,-23.9751121555223,-12.5183874019593,-301.032135990478
738546.42934538412373512983,-23.9566484572893,-12.5460829493088,-301.013672292245
738546.42934547457844018936,-23.9935758537553,-12.5091555528428,-300.995208594012
738546.42934556503314524889,-23.9289529099399,-12.5091555528428,-300.995208594012
738546.42934565548785030842,-23.9843440046388,-12.5091555528428,-300.995208594012
738546.42934574582614004612,-23.9658803064058,-12.5460829493088,-300.995208594012
738546.42934583628084510565,-23.9843440046388,-12.5276192510758,-300.967513046663
738546.42934592673555016518,-23.9751121555223,-12.5368511001923,-301.069063386944
738546.42934601719025522470,-24.0028077028718,-12.5460829493088,-301.050599688711
738546.42934610764496028423,-23.9843440046388,-12.5460829493088,-301.004440443129
738546.42934619809966534376,-23.9658803064058,-12.5460829493088,-301.032135990478
738546.42934628855437040329,-23.9843440046388,-12.5460829493088,-301.004440443129
738546.42934637900907546282,-23.9751121555223,-12.5645466475417,-300.976744895779
738546.42934646934736520052,-23.9843440046388,-12.5460829493088,-300.967513046663
738546.42934655980207026005,-23.9658803064058,-12.5737784966582,-300.976744895779
738546.42934665025677531958,-23.9935758537553,-12.5368511001923,-300.985976744896
738546.42934674071148037910,-23.9843440046388,-12.6014740440077,-300.995208594012
738546.42934683116618543863,-24.0397350993377,-12.5922421948912,-301.050599688711
738546.42934692162089049816,-23.9935758537553,-12.6107058931242,-301.050599688711
738546.42934701207559555769,-24.0120395519883,-12.5553147984252,-300.976744895779
738546.42934710253030061722,-23.9843440046388,-12.6199377422407,-301.050599688711
738546.42934719286859035492,-24.0489669484542,-12.5922421948912,-301.096758934294
738546.42934728332329541445,-24.0212714011048,-12.6107058931242,-301.069063386944
738546.42934737377800047398,-24.0120395519883,-12.6014740440077,-301.004440443129
738546.42934746423270553350,-24.0120395519883,-12.5922421948912,-301.004440443129
738546.42934755468741059303,-24.0028077028718,-12.6107058931242,-300.985976744896
738546.42934764514211565256,-24.0305032502213,-12.6014740440077,-301.041367839595
738546.42934773559682071209,-24.0028077028718,-12.6199377422407,-301.078295236061
738546.42934782605152577162,-24.0305032502213,-12.6014740440077,-301.096758934294
738546.42934791638981550932,-23.9935758537553,-12.6291695913572,-301.013672292245
738546.42934800684452056885,-24.0120395519883,-12.5830103457747,-301.050599688711
738546.42934809729922562838,-23.9843440046388,-12.6291695913572,-301.050599688711
738546.42934818775393068790,-24.0581987975707,-12.6014740440077,-301.032135990478
738546.42934827820863574743,-23.9935758537553,-12.6291695913572,-301.078295236061
738546.42934836866334080696,-24.0212714011048,-12.5645466475417,-301.059831537828
738546.42934845911804586649,-23.9566484572893,-12.5830103457747,-300.939817499313
738546.42934854945633560419,-24.0581987975707,-12.5830103457747,-300.976744895779
738546.42934863991104066372,-23.9843440046388,-12.6107058931242,-301.059831537828
738546.42934873036574572325,-23.9935758537553,-12.5645466475417,-301.078295236061
738546.42934882082045078278,-23.9381847590564,-12.5922421948912,-301.041367839595
738546.42934891127515584230,-23.9566484572893,-12.5183874019593,-301.10599078341
738546.42934900172986090183,-23.8735618152409,-12.5276192510758,-301.069063386944
738546.42934909218456596136,-23.9104892117069,-12.4814600054933,-301.059831537828
738546.42934918263927102089,-23.9104892117069,-12.4629963072604,-301.032135990478
738546.42934927297756075859,-23.9012573625904,-12.5091555528428,-301.059831537828
738546.42934936343226581812,-23.9566484572893,-12.4999237037263,-301.078295236061
738546.42934945388697087765,-23.9566484572893,-12.5553147984252,-301.004440443129
738546.42934954434167593718,-24.0305032502213,-12.5553147984252,-301.078295236061
738546.42934963479638099670,-24.0028077028718,-12.6014740440077,-300.94904934843
738546.42934972525108605623,-24.0766624958037,-12.5922421948912,-300.995208594012
738546.42934981570579111576,-24.0581987975707,-12.6568651387066,-301.022904141362
738546.42934990616049617529,-24.0951261940367,-12.6014740440077,-301.004440443129
738546.42934999649878591299,-24.0397350993377,-12.6476332895901,-300.958281197546
738546.42935008695349097252,-24.0766624958037,-12.6014740440077,-300.976744895779
738546.42935017740819603205,-24.0674306466872,-12.6384014404736,-300.985976744896
738546.42935026786290109158,-24.0766624958037,-12.5737784966582,-300.985976744896
738546.42935035831760615110,-24.1505172887356,-12.6291695913572,-300.995208594012
738546.42935044877231121063,-24.1966765343181,-12.5553147984252,-300.967513046663
738546.42935053922701627016,-23.9197210608234,-12.1398815881832,-300.884426404614
738546.42935062968172132969,-23.2181005279702,-11.5952024903104,-300.782876064333
738546.42935072002001106739,-22.3964659566027,-11.5582750938444,-300.736716818751
738546.42935081047471612692,-23.0149998474075,-12.2968230231635,-300.884426404614
738546.42935090092942118645,-23.7812433240761,-12.6753288369396,-301.004440443129
738546.42935099138412624598,-24.1689809869686,-12.6476332895901,-300.995208594012
738546.42935108183883130550,-24.215140232551,-12.5183874019593,-301.041367839595
738546.42935117229353636503,-24.1043580431532,-12.4906918546098,-301.078295236061
738546.42935126274824142456,-24.0951261940367,-12.5183874019593,-301.078295236061
738546.42935135320294648409,-24.0489669484542,-12.6199377422407,-300.985976744896
738546.42935144354123622179,-24.0766624958037,-12.5830103457747,-300.985976744896
738546.42935153399594128132,-24.0581987975707,-12.6199377422407,-301.041367839595
738546.42935162445064634085,-24.0581987975707,-12.5737784966582,-301.041367839595
738546.42935171490535140038,-24.0489669484542,-12.6107058931242,-301.013672292245
738546.42935180536005645990,-24.0674306466872,-12.6014740440077,-301.041367839595
738546.42935189581476151943,-24.0489669484542,-12.5922421948912,-301.059831537828
738546.42935198626946657896,-24.0305032502213,-12.5645466475417,-300.94904934843
738546.42935207660775631666,-24.0305032502213,-12.5553147984252,-300.958281197546
738546.42935216706246137619,-24.0120395519883,-12.5645466475417,-301.087527085177
738546.42935225751716643572,-24.0212714011048,-12.5276192510758,-301.041367839595
738546.42935234797187149525,-23.9751121555223,-12.5183874019593,-301.004440443129
738546.42935243842657655478,-23.9658803064058,-12.4537644581439,-301.032135990478
738546.42935252888128161430,-23.9381847590564,-12.4722281563768,-301.041367839595
738546.42935261933598667383,-23.9566484572893,-12.4168370616779,-301.032135990478
738546.42935270979069173336,-23.9104892117069,-12.4260689107944,-301.013672292245
738546.42935280012898147106,-23.9104892117069,-12.324518570513,-301.022904141362
738546.42935289058368653059,-23.818170720542,-12.2968230231635,-301.004440443129
738546.42935298103839159012,-23.818170720542,-12.2229682302316,-300.976744895779
738546.42935307149309664965,-23.8089388714255,-12.2137363811151,-300.995208594012
738546.42935316194780170918,-23.799707022309,-12.1675771355327,-300.995208594012
738546.42935325240250676870,-23.7627796258431,-12.1029541917173,-301.004440443129
738546.42935334285721182823,-23.7166203802606,-12.0752586443678,-300.967513046663
738546.42935343331191688776,-23.7073885311441,-12.0290993987854,-300.976744895779
738546.42935352365020662546,-23.6889248329112,-12.0383312479019,-300.958281197546
738546.42935361410491168499,-23.6889248329112,-12.0198675496689,-300.912121951964
738546.42935370455961674452,-23.6704611346782,-12.0660267952513,-300.875194555498
738546.42935379501432180405,-23.7350840784936,-12.0844904934843,-300.865962706381
738546.42935388546902686357,-23.7166203802606,-12.1768089846492,-300.902890102847
738546.42935397592373192310,-23.7812433240761,-12.1860408337657,-300.930585650197
738546.42935406637843698263,-23.7904751731925,-12.3152867213965,-300.976744895779
738546.42935415683314204216,-23.8735618152409,-12.3337504196295,-301.004440443129
738546.42935424717143177986,-23.836634418775,-12.4168370616779,-300.930585650197
738546.42935433762613683939,-23.9197210608234,-12.4260689107944,-301.013672292245
738546.42935442808084189892,-23.9012573625904,-12.4999237037263,-300.976744895779
738546.42935451853554695845,-23.9843440046388,-12.4629963072604,-300.976744895779
738546.42935460899025201797,-23.9289529099399,-12.5091555528428,-300.985976744896
738546.42935469944495707750,-23.9658803064058,-12.4814600054933,-301.022904141362
738546.42935478989966213703,-23.9474166081729,-12.4814600054933,-301.013672292245
738546.42935488023795187473,-23.9474166081729,-12.5276192510758,-300.958281197546
738546.42935497069265693426,-23.9751121555223,-12.4906918546098,-300.958281197546
738546.42935506114736199379,-23.9381847590564,-12.5183874019593,-300.976744895779
738546.42935515160206705332,-23.9843440046388,-12.4906918546098,-300.985976744896
738546.42935524205677211285,-23.9289529099399,-12.5183874019593,-300.985976744896
738546.42935533251147717237,-23.9843440046388,-12.4999237037263,-301.004440443129
738546.42935542296618223190,-23.9381847590564,-12.5368511001923,-300.985976744896
738546.42935551342088729143,-23.9658803064058,-12.4814600054933,-300.902890102847
738546.42935560375917702913,-23.9381847590564,-12.5276192510758,-300.94904934843
738546.42935569421388208866,-23.9658803064058,-12.4722281563768,-301.078295236061
738546.42935578466858714819,-23.9104892117069,-12.5091555528428,-300.985976744896
738546.42935587512329220772,-23.9289529099399,-12.4445326090274,-301.022904141362
738546.42935596557799726725,-23.9289529099399,-12.5276192510758,-300.995208594012
738546.42935605603270232677,-23.9658803064058,-12.4906918546098,-301.032135990478
738546.42935614648740738630,-23.9474166081729,-12.5276192510758,-301.059831537828
738546.42935623694211244583,-23.9751121555223,-12.5091555528428,-301.013672292245
738546.42935632728040218353,-23.9658803064058,-12.5368511001923,-301.059831537828
738546.42935641773510724306,-23.9751121555223,-12.5183874019593,-301.059831537828
738546.42935650818981230259,-23.9566484572893,-12.5276192510758,-301.050599688711
738546.42935659864451736212,-23.9751121555223,-12.5276192510758,-301.022904141362
738546.42935668909922242165,-24.0028077028718,-12.5183874019593,-301.059831537828
738546.42935677955392748117,-23.9658803064058,-12.5645466475417,-301.059831537828
738546.42935687000863254070,-24.0120395519883,-12.5183874019593,-301.022904141362
738546.42935696046333760023,-23.9658803064058,-12.5737784966582,-301.050599688711
738546.42935705080162733793,-24.0120395519883,-12.5368511001923,-301.059831537828
738546.42935714125633239746,-23.9751121555223,-12.5553147984252,-301.041367839595
738546.42935723171103745699,-24.0120395519883,-12.5368511001923,-301.022904141362
738546.42935732216574251652,-23.9843440046388,-12.5645466475417,-301.041367839595
738546.42935741262044757605,-23.9935758537553,-12.5460829493088,-301.069063386944
738546.42935750307515263557,-23.9843440046388,-12.5645466475417,-301.069063386944
738546.42935759352985769510,-24.0028077028718,-12.5368511001923,-301.050599688711
738546.42935768398456275463,-23.9935758537553,-12.5645466475417,-301.050599688711
738546.42935777432285249233,-24.0028077028718,-12.5553147984252,-300.985976744896
738546.42935786477755755186,-23.9935758537553,-12.5645466475417,-300.94904934843
738546.42935795523226261139,-23.9935758537553,-12.5553147984252,-300.939817499313
738546.42935804568696767092,-23.9935758537553,-12.5460829493088,-300.930585650197
738546.42935813614167273045,-23.9843440046388,-12.5737784966582,-300.967513046663
738546.42935822659637778997,-23.9843440046388,-12.5460829493088,-300.976744895779
738546.42935831705108284950,-23.9566484572893,-12.5553147984252,-300.995208594012
738546.42935840738937258720,-23.9935758537553,-12.5276192510758,-301.004440443129
738546.42935849784407764673,-23.9474166081729,-12.5460829493088,-301.032135990478
738546.42935858829878270626,-23.9843440046388,-12.5183874019593,-300.995208594012
738546.42935867875348776579,-23.9381847590564,-12.5276192510758,-301.022904141362
738546.42935876920819282532,-23.9935758537553,-12.5368511001923,-301.013672292245
738546.42935885966289788485,-24.0028077028718,-12.5830103457747,-301.004440443129
738546.42935895011760294437,-24.0120395519883,-12.5645466475417,-301.013672292245
738546.42935904057230800390,-24.0120395519883,-12.5737784966582,-300.930585650197
738546.42935913091059774160,-23.9566484572893,-12.5276192510758,-300.94904934843
738546.42935922136530280113,-23.8643299661245,-12.4445326090274,-301.050599688711
738546.42935931182000786066,-23.9381847590564,-12.5553147984252,-301.022904141362
738546.42935940227471292019,-23.9566484572893,-12.5183874019593,-301.069063386944
738546.42935949272941797972,-23.8735618152409,-12.4999237037263,-301.050599688711
738546.42935958318412303925,-23.8920255134739,-12.4537644581439,-300.939817499313
738546.42935967363882809877,-23.855098117008,-12.4814600054933,-300.995208594012
738546.42935976409353315830,-23.9566484572893,-12.4537644581439,-300.985976744896
738546.42935985443182289600,-23.9104892117069,-12.5368511001923,-301.032135990478
738546.42935994488652795553,-23.9843440046388,-12.5091555528428,-300.967513046663
738546.42936003534123301506,-23.9658803064058,-12.5737784966582,-300.985976744896
738546.42936012579593807459,-24.0212714011048,-12.5368511001923,-301.032135990478
738546.42936021625064313412,-24.0305032502213,-12.6291695913572,-301.032135990478
738546.42936030670534819365,-24.1043580431532,-12.6014740440077,-301.050599688711
738546.42936039716005325317,-24.0581987975707,-12.6476332895901,-301.059831537828
738546.42936048761475831270,-24.0581987975707,-12.6199377422407,-301.013672292245
738546.42936057795304805040,-24.0766624958037,-12.6014740440077,-301.022904141362
738546.42936066840775310993,-24.0674306466872,-12.6384014404736,-301.087527085177
738546.42936075886245816946,-24.0674306466872,-12.5922421948912,-301.069063386944
738546.42936084931716322899,-24.0951261940367,-12.6476332895901,-300.995208594012
738546.42936093977186828852,-24.2243720816675,-12.5830103457747,-301.050599688711
738546.42936103022657334805,-24.1505172887356,-12.4722281563768,-301.022904141362
738546.42936112068127840757,-23.8643299661245,-11.9921720023194,-300.856730857265
738546.42936121113598346710,-22.968840601825,-11.5213476973785,-300.773644215217
738546.42936130147427320480,-22.4795525986511,-11.7613757744072,-300.79210791345
738546.42936139192897826433,-23.3381145664846,-12.5276192510758,-300.939817499313
738546.42936148238368332386,-23.9658803064058,-12.6845606860561,-301.050599688711
