time_dn,ecg_projection_ll_ra_mV,ecg_projection_la_ra_mV,ecg_projection_vx_rl_mV
738546.46717190241906791925,-21.5655995361187,-13.5523545030061,-301.29062776574
738546.46717199287377297878,-21.5655995361187,-13.5523545030061,-301.336787011322
738546.46717208332847803831,-21.5655995361187,-13.5708182012391,-301.309091463973
738546.46717217378318309784,-21.5655995361187,-13.5615863521226,-301.253700369274
738546.46717226423788815737,-21.5748313852351,-13.5800500503555,-301.272164067507
738546.46717235469259321690,-21.5748313852351,-13.5708182012391,-301.272164067507
738546.46717244514729827642,-21.6209906308176,-13.5985137485885,-301.235236671041
738546.46717253560200333595,-21.5655995361187,-13.5338908047731,-301.10599078341
738546.46717262594029307365,-21.6302224799341,-13.589281899472,-301.318323313089
738546.46717271639499813318,-21.5840632343516,-13.5800500503555,-301.327555162206
738546.46717280684970319271,-21.6302224799341,-13.589281899472,-301.318323313089
738546.46717289730440825224,-21.5563676870022,-13.5615863521226,-301.336787011322
738546.46717298775911331177,-21.5379039887692,-13.5154271065401,-301.355250709555
738546.46717307821381837130,-21.4825128940703,-13.4600360118412,-301.346018860439
738546.46717316866852343082,-21.5655995361187,-13.5523545030061,-301.299859614856
738546.46717325900681316853,-21.6025269325846,-13.607745597705,-301.336787011322
738546.46717334946151822805,-21.6025269325846,-13.607745597705,-301.355250709555
738546.46717343991622328758,-21.6302224799341,-13.607745597705,-301.26293221839
738546.46717353037092834711,-21.6117587817011,-13.607745597705,-301.318323313089
738546.46717362082563340664,-21.6302224799341,-13.6354411450545,-301.355250709555
738546.46717371128033846617,-21.5563676870022,-13.5985137485885,-301.29062776574
738546.46717380173504352570,-21.6394543290506,-13.5985137485885,-301.336787011322
738546.46717389218974858522,-21.5655995361187,-13.589281899472,-301.327555162206
738546.46717398252803832293,-21.6209906308176,-13.607745597705,-301.318323313089
738546.46717407298274338245,-21.5748313852351,-13.5985137485885,-301.281395916623
738546.46717416343744844198,-21.6302224799341,-13.6354411450545,-301.29062776574
738546.46717425389215350151,-21.6025269325846,-13.6169774468215,-301.281395916623
738546.46717434434685856104,-21.6302224799341,-13.6169774468215,-301.272164067507
738546.46717443480156362057,-21.6025269325846,-13.6169774468215,-301.29062776574
738546.46717452525626868010,-21.5748313852351,-13.6169774468215,-301.26293221839
738546.46717461571097373962,-21.6025269325846,-13.626209295938,-301.299859614856
738546.46717470604926347733,-21.5748313852351,-13.5985137485885,-301.309091463973
738546.46717479650396853685,-21.6117587817011,-13.607745597705,-301.299859614856
738546.46717488695867359638,-21.5379039887692,-13.5523545030061,-301.281395916623
738546.46717497741337865591,-21.6117587817011,-13.6169774468215,-301.281395916623
738546.46717506786808371544,-21.5563676870022,-13.589281899472,-301.299859614856
738546.46717515832278877497,-21.6209906308176,-13.6169774468215,-301.364482558672
738546.46717524877749383450,-21.5009765923032,-13.5800500503555,-301.336787011322
738546.46717533911578357220,-21.6209906308176,-13.607745597705,-301.336787011322
738546.46717542957048863173,-21.5286721396527,-13.5615863521226,-301.309091463973
738546.46717552002519369125,-21.5932950834681,-13.6169774468215,-301.373714407788
738546.46717561047989875078,-21.5286721396527,-13.5708182012391,-301.364482558672
738546.46717570093460381031,-21.6025269325846,-13.6169774468215,-301.299859614856
738546.46717579138930886984,-21.5194402905362,-13.5708182012391,-301.346018860439
738546.46717588184401392937,-21.6117587817011,-13.626209295938,-301.327555162206
738546.46717597229871898890,-21.5379039887692,-13.5708182012391,-301.142918179876
738546.46717606263700872660,-21.5840632343516,-13.626209295938,-301.189077425459
738546.46717615309171378613,-21.5840632343516,-13.6169774468215,-301.364482558672
738546.46717624354641884565,-21.5655995361187,-13.589281899472,-301.392178106021
738546.46717633400112390518,-21.6117587817011,-13.6169774468215,-301.281395916623
738546.46717642445582896471,-21.5286721396527,-13.589281899472,-301.272164067507
738546.46717651491053402424,-21.6302224799341,-13.626209295938,-301.272164067507
738546.46717660536523908377,-21.5009765923032,-13.589281899472,-301.253700369274
738546.46717669570352882147,-21.6117587817011,-13.6354411450545,-301.272164067507
738546.46717678615823388100,-21.5379039887692,-13.5708182012391,-301.336787011322
738546.46717687661293894053,-21.5655995361187,-13.5708182012391,-301.281395916623
738546.46717696706764400005,-21.4732810449538,-13.5246589556566,-301.318323313089
738546.46717705752234905958,-21.6209906308176,-13.589281899472,-301.355250709555
738546.46717714797705411911,-21.5286721396527,-13.5431226538896,-301.309091463973
738546.46717723843175917864,-21.6302224799341,-13.5985137485885,-301.364482558672
738546.46717732888646423817,-21.5655995361187,-13.589281899472,-301.364482558672
738546.46717741922475397587,-21.6486861781671,-13.6169774468215,-301.309091463973
738546.46717750967945903540,-21.6025269325846,-13.5985137485885,-301.281395916623
738546.46717760013416409492,-21.6302224799341,-13.626209295938,-301.272164067507
738546.46717769058886915445,-21.6394543290506,-13.6169774468215,-301.299859614856
738546.46717778104357421398,-21.6302224799341,-13.626209295938,-301.318323313089
738546.46717787149827927351,-21.6302224799341,-13.6169774468215,-301.244468520157
738546.46717796195298433304,-21.6025269325846,-13.589281899472,-301.309091463973
738546.46717805229127407074,-21.6579180272835,-13.6169774468215,-301.355250709555
738546.46717814274597913027,-21.5932950834681,-13.5985137485885,-301.26293221839
738546.46717823320068418980,-21.7963957640309,-13.6539048432875,-301.29062776574
738546.46717832365538924932,-21.722540971099,-13.5708182012391,-301.392178106021
738546.46717841411009430885,-21.5102084414197,-13.4046449171422,-301.309091463973
738546.46717850456479936838,-20.8639790032655,-13.0353709524827,-301.198309274575
738546.46717859501950442791,-19.9961851863155,-12.9615161595508,-301.096758934294
738546.46717868547420948744,-20.0608081301309,-13.2846308786279,-301.142918179876
738546.46717877581249922514,-21.0578478347118,-13.589281899472,-301.226004821925
738546.46717886626720428467,-21.5655995361187,-13.5800500503555,-301.29062776574
738546.46717895672190934420,-21.6763817255165,-13.4969634083071,-301.281395916623
738546.46717904717661440372,-21.5563676870022,-13.5061952574236,-301.26293221839
738546.46717913763131946325,-21.5655995361187,-13.5615863521226,-301.281395916623
738546.46717922808602452278,-21.5840632343516,-13.5800500503555,-301.318323313089
738546.46717931854072958231,-21.5748313852351,-13.5708182012391,-301.336787011322
738546.46717940887901932001,-21.5932950834681,-13.589281899472,-301.318323313089
738546.46717949933372437954,-21.5748313852351,-13.5708182012391,-301.161381878109
738546.46717958978842943907,-21.6302224799341,-13.607745597705,-301.235236671041
738546.46717968024313449860,-21.5379039887692,-13.5615863521226,-301.355250709555
738546.46717977069783955812,-21.6117587817011,-13.5985137485885,-301.355250709555
738546.46717986115254461765,-21.5379039887692,-13.5615863521226,-301.382946256905
738546.46717995160724967718,-21.5932950834681,-13.5800500503555,-301.309091463973
738546.46718004206195473671,-21.5194402905362,-13.5523545030061,-301.346018860439
738546.46718013240024447441,-21.5655995361187,-13.5615863521226,-301.355250709555
738546.46718022285494953394,-21.5471358378857,-13.5431226538896,-301.299859614856
738546.46718031330965459347,-21.5286721396527,-13.5338908047731,-301.318323313089
738546.46718040376435965300,-21.5009765923032,-13.5154271065401,-301.364482558672
738546.46718049421906471252,-21.4917447431867,-13.4969634083071,-301.299859614856
738546.46718058467376977205,-21.5009765923032,-13.4969634083071,-301.309091463973
738546.46718067512847483158,-21.4271217993713,-13.4415723136082,-301.299859614856
738546.46718076558317989111,-21.4548173467208,-13.4508041627247,-301.318323313089
738546.46718085592146962881,-21.3809625537889,-13.3861812189093,-301.226004821925
738546.46718094637617468834,-21.3717307046724,-13.3677175206763,-301.207541123691
738546.46718103683087974787,-21.2609485152745,-13.3123264259774,-301.189077425459
738546.46718112728558480740,-21.3255714590899,-13.3307901242103,-301.170613727226
738546.46718121774028986692,-21.1870937223426,-13.2569353312784,-301.170613727226
738546.46718130819499492645,-21.2609485152745,-13.2846308786279,-301.216772972808
738546.46718139864969998598,-21.1409344767602,-13.229239783929,-301.26293221839
738546.46718148898798972368,-21.2424848170415,-13.2846308786279,-301.226004821925
738546.46718157944269478321,-21.1317026276437,-13.2384716330454,-301.272164067507
738546.46718166989739984274,-21.233252967925,-13.3307901242103,-301.26293221839
738546.46718176035210490227,-21.2147892696921,-13.3215582750938,-301.189077425459
738546.46718185080680996180,-21.2147892696921,-13.3307901242103,-301.207541123691
738546.46718194126151502132,-21.3163396099734,-13.4046449171422,-301.226004821925
738546.46718203171622008085,-21.307107760857,-13.4138767662587,-301.272164067507
738546.46718212217092514038,-21.4271217993713,-13.4877315591906,-301.244468520157
738546.46718221250921487808,-21.3901944029054,-13.4877315591906,-301.244468520157
738546.46718230296391993761,-21.5286721396527,-13.5615863521226,-301.272164067507
738546.46718239341862499714,-21.4548173467208,-13.5338908047731,-301.281395916623
738546.46718248387333005667,-21.5471358378857,-13.5985137485885,-301.299859614856
738546.46718257432803511620,-21.4640491958373,-13.5431226538896,-301.272164067507
738546.46718266478274017572,-21.5655995361187,-13.5985137485885,-301.281395916623
738546.46718275523744523525,-21.4640491958373,-13.5338908047731,-301.272164067507
738546.46718284557573497295,-21.5932950834681,-13.607745597705,-301.318323313089
738546.46718293603044003248,-21.4732810449538,-13.5523545030061,-301.281395916623
738546.46718302648514509201,-21.5379039887692,-13.5985137485885,-301.124454481643
738546.46718311693985015154,-21.4825128940703,-13.5523545030061,-301.226004821925
738546.46718320739455521107,-21.5471358378857,-13.5800500503555,-301.318323313089
738546.46718329784926027060,-21.4640491958373,-13.5431226538896,-301.281395916623
738546.46718338830396533012,-21.5194402905362,-13.5615863521226,-301.29062776574
738546.46718347875867038965,-21.4825128940703,-13.5615863521226,-301.318323313089
738546.46718356909696012735,-21.4455854976043,-13.5431226538896,-301.309091463973
738546.46718365955166518688,-21.5379039887692,-13.589281899472,-301.355250709555
738546.46718375000637024641,-21.4363536484878,-13.5338908047731,-301.327555162206
738546.46718384046107530594,-21.5563676870022,-13.5985137485885,-301.26293221839
738546.46718393091578036547,-21.4640491958373,-13.5431226538896,-301.299859614856
738546.46718402137048542500,-21.5563676870022,-13.5985137485885,-301.327555162206
738546.46718411182519048452,-21.4640491958373,-13.5431226538896,-301.355250709555
738546.46718420216348022223,-21.5655995361187,-13.5985137485885,-301.26293221839
738546.46718429261818528175,-21.4825128940703,-13.5615863521226,-301.336787011322
738546.46718438307289034128,-21.5563676870022,-13.5985137485885,-301.346018860439
738546.46718447352759540081,-21.4917447431867,-13.5708182012391,-301.309091463973
738546.46718456398230046034,-21.5655995361187,-13.5985137485885,-301.346018860439
738546.46718465443700551987,-21.5194402905362,-13.5615863521226,-301.346018860439
738546.46718474489171057940,-21.5563676870022,-13.5985137485885,-301.309091463973
738546.46718483534641563892,-21.5286721396527,-13.5800500503555,-301.346018860439
738546.46718492568470537663,-21.5563676870022,-13.607745597705,-301.373714407788
738546.46718501613941043615,-21.5655995361187,-13.607745597705,-301.336787011322
738546.46718510659411549568,-21.5748313852351,-13.6169774468215,-301.346018860439
738546.46718519704882055521,-21.5840632343516,-13.626209295938,-301.364482558672
738546.46718528750352561474,-21.5471358378857,-13.607745597705,-301.327555162206
738546.46718537795823067427,-21.5932950834681,-13.6354411450545,-301.327555162206
738546.46718546841293573380,-21.5286721396527,-13.5985137485885,-301.373714407788
738546.46718555886764079332,-21.6117587817011,-13.6539048432875,-301.355250709555
738546.46718564920593053102,-21.5471358378857,-13.607745597705,-301.373714407788
738546.46718573966063559055,-21.5932950834681,-13.644672994171,-301.336787011322
738546.46718583011534065008,-21.5379039887692,-13.6169774468215,-301.373714407788
738546.46718592057004570961,-21.5840632343516,-13.644672994171,-301.401409955138
738546.46718601102475076914,-21.5471358378857,-13.607745597705,-301.392178106021
738546.46718610147945582867,-21.5655995361187,-13.6169774468215,-301.327555162206
738546.46718619193416088820,-21.5379039887692,-13.607745597705,-301.207541123691
738546.46718628227245062590,-21.5471358378857,-13.607745597705,-301.26293221839
738546.46718637272715568542,-21.5655995361187,-13.626209295938,-301.281395916623
738546.46718646318186074495,-21.5286721396527,-13.607745597705,-301.281395916623
738546.46718655363656580448,-21.5840632343516,-13.6354411450545,-301.170613727226
738546.46718664409127086401,-21.5286721396527,-13.6169774468215,-301.226004821925
738546.46718673454597592354,-21.5932950834681,-13.6539048432875,-301.309091463973
738546.46718682500068098307,-21.5379039887692,-13.5985137485885,-301.318323313089
738546.46718691545538604259,-21.6025269325846,-13.644672994171,-301.299859614856
738546.46718700579367578030,-21.5102084414197,-13.589281899472,-301.29062776574
738546.46718709624838083982,-21.5840632343516,-13.6354411450545,-301.299859614856
738546.46718718670308589935,-21.4917447431867,-13.5708182012391,-301.355250709555
738546.46718727715779095888,-21.5563676870022,-13.5985137485885,-301.364482558672
738546.46718736761249601841,-21.5471358378857,-13.5985137485885,-301.373714407788
738546.46718745806720107794,-21.5563676870022,-13.607745597705,-301.198309274575
738546.46718754852190613747,-21.5563676870022,-13.607745597705,-301.318323313089
738546.46718763886019587517,-21.4917447431867,-13.5615863521226,-301.336787011322
738546.46718772931490093470,-21.5471358378857,-13.607745597705,-301.355250709555
738546.46718781976960599422,-21.5286721396527,-13.5985137485885,-301.299859614856
738546.46718791022431105375,-21.5471358378857,-13.607745597705,-301.355250709555
738546.46718800067901611328,-21.4917447431867,-13.5708182012391,-301.272164067507
738546.46718809113372117281,-21.4455854976043,-13.5061952574236,-301.235236671041
738546.46718818158842623234,-21.4455854976043,-13.5246589556566,-301.272164067507
738546.46718827204313129187,-21.5840632343516,-13.644672994171,-301.272164067507
738546.46718836238142102957,-21.5563676870022,-13.6354411450545,-301.272164067507
738546.46718845283612608910,-21.6394543290506,-13.6631366924039,-301.309091463973
738546.46718854329083114862,-21.5194402905362,-13.6169774468215,-301.336787011322
738546.46718863374553620815,-21.6302224799341,-13.6908322397534,-301.382946256905
738546.46718872420024126768,-21.5286721396527,-13.626209295938,-301.299859614856
738546.46718881465494632721,-21.6302224799341,-13.6723685415204,-301.346018860439
738546.46718890510965138674,-21.5009765923032,-13.5800500503555,-301.373714407788
738546.46718899544794112444,-21.5932950834681,-13.644672994171,-301.327555162206
738546.46718908590264618397,-21.5379039887692,-13.589281899472,-301.336787011322
738546.46718917635735124350,-21.5194402905362,-13.5800500503555,-301.382946256905
738546.46718926681205630302,-21.5379039887692,-13.5708182012391,-301.364482558672
738546.46718935726676136255,-21.5009765923032,-13.5615863521226,-301.327555162206
738546.46718944772146642208,-21.5655995361187,-13.589281899472,-301.346018860439
738546.46718953817617148161,-21.4917447431867,-13.589281899472,-301.373714407788
738546.46718962863087654114,-21.5471358378857,-13.5985137485885,-301.281395916623
738546.46718971896916627884,-21.4548173467208,-13.5154271065401,-301.327555162206
738546.46718980942387133837,-21.5102084414197,-13.5246589556566,-301.318323313089
738546.46718989987857639790,-21.4271217993713,-13.4877315591906,-301.299859614856
738546.46718999033328145742,-21.5102084414197,-13.5246589556566,-301.309091463973
738546.46719008078798651695,-21.4548173467208,-13.4969634083071,-301.152150028993
738546.46719017124269157648,-21.5194402905362,-13.5246589556566,-301.207541123691
738546.46719026169739663601,-21.5194402905362,-13.5708182012391,-301.29062776574
738546.46719035215210169554,-21.6209906308176,-13.6169774468215,-301.327555162206
738546.46719044249039143324,-21.5840632343516,-13.5985137485885,-301.318323313089
738546.46719053294509649277,-21.6025269325846,-13.607745597705,-301.272164067507
738546.46719062339980155230,-21.5748313852351,-13.5985137485885,-301.272164067507
738546.46719071385450661182,-21.5932950834681,-13.6169774468215,-301.327555162206
738546.46719080430921167135,-21.6025269325846,-13.6169774468215,-301.309091463973
738546.46719089476391673088,-21.5840632343516,-13.589281899472,-301.318323313089
738546.46719098521862179041,-21.5655995361187,-13.5800500503555,-301.309091463973
738546.46719107555691152811,-21.5471358378857,-13.5708182012391,-301.281395916623
738546.46719116601161658764,-21.7502365184484,-13.6354411450545,-301.29062776574
738546.46719125646632164717,-21.6763817255165,-13.4969634083071,-301.336787011322
738546.46719134692102670670,-21.4640491958373,-13.2938627277444,-301.244468520157
738546.46719143737573176622,-20.836283455916,-12.9338206122013,-301.170613727226
738546.46719152783043682575,-19.9500259407331,-12.8138065736869,-301.041367839595
738546.46719161828514188528,-20.005417035432,-13.192312387463,-301.096758934294
738546.46719170873984694481,-21.0486159855953,-13.5338908047731,-301.235236671041
738546.46719179907813668251,-21.5379039887692,-13.4600360118412,-301.272164067507
738546.46719188953284174204,-21.6394543290506,-13.4046449171422,-301.244468520157
738546.46719197998754680157,-21.6209906308176,-13.5061952574236,-301.272164067507
738546.46719207044225186110,-21.6302224799341,-13.589281899472,-301.272164067507
738546.46719216089695692062,-21.6209906308176,-13.607745597705,-301.281395916623
738546.46719225135166198015,-21.5748313852351,-13.5800500503555,-301.281395916623
738546.46719234180636703968,-21.5840632343516,-13.5615863521226,-301.299859614856
738546.46719243214465677738,-21.5286721396527,-13.5338908047731,-301.318323313089
738546.46719252259936183691,-21.5748313852351,-13.5523545030061,-301.327555162206
738546.46719261305406689644,-21.5009765923032,-13.5154271065401,-301.355250709555
738546.46719270350877195597,-21.5840632343516,-13.5800500503555,-301.327555162206
738546.46719279396347701550,-21.5379039887692,-13.5523545030061,-301.346018860439
738546.46719288441818207502,-21.5932950834681,-13.5800500503555,-301.346018860439
738546.46719297487288713455,-21.5102084414197,-13.5246589556566,-301.299859614856
738546.46719306532759219408,-21.5009765923032,-13.5154271065401,-301.346018860439
738546.46719315566588193178,-21.5102084414197,-13.5154271065401,-301.336787011322
738546.46719324612058699131,-21.5009765923032,-13.5061952574236,-301.318323313089
738546.46719333657529205084,-21.5286721396527,-13.5246589556566,-301.309091463973
738546.46719342702999711037,-21.4917447431867,-13.4877315591906,-301.327555162206
738546.46719351748470216990,-21.5102084414197,-13.4877315591906,-301.309091463973
738546.46719360793940722942,-21.4363536484878,-13.4323404644917,-301.216772972808
738546.46719369839411228895,-21.4455854976043,-13.4138767662587,-301.299859614856
738546.46719378873240202665,-21.3532670064394,-13.3307901242103,-301.281395916623
738546.46719387918710708618,-21.3717307046724,-13.3307901242103,-301.253700369274
738546.46719396964181214571,-21.251716666158,-13.2477034821619,-301.226004821925
738546.46719406009651720524,-21.307107760857,-13.2569353312784,-301.281395916623
738546.46719415055122226477,-21.1686300241096,-13.1646168401135,-301.272164067507
738546.46719424100592732430,-21.2147892696921,-13.1646168401135,-301.189077425459
738546.46719433146063238382,-21.1132389294107,-13.1276894436476,-301.216772972808
738546.46719442191533744335,-21.2055574205756,-13.17384868923,-301.216772972808
738546.46719451225362718105,-21.1501663258766,-13.17384868923,-301.152150028993
738546.46719460270833224058,-21.233252967925,-13.229239783929,-301.244468520157
738546.46719469316303730011,-21.1593981749931,-13.210776085696,-301.244468520157
738546.46719478361774235964,-21.1963255714591,-13.2477034821619,-301.272164067507
738546.46719487407244741917,-21.288644062624,-13.3215582750938,-301.179845576342
738546.46719496452715247869,-21.251716666158,-13.3215582750938,-301.207541123691
738546.46719505498185753822,-21.3901944029054,-13.4231086153752,-301.226004821925
738546.46719514543656259775,-21.3624988555559,-13.4138767662587,-301.179845576342
738546.46719523577485233545,-21.5102084414197,-13.5154271065401,-301.235236671041
738546.46719532622955739498,-21.4455854976043,-13.4877315591906,-301.281395916623
738546.46719541668426245451,-21.5379039887692,-13.5523545030061,-301.309091463973
738546.46719550713896751404,-21.4640491958373,-13.5061952574236,-301.309091463973
738546.46719559759367257357,-21.5563676870022,-13.5615863521226,-301.29062776574
738546.46719568804837763309,-21.4825128940703,-13.5338908047731,-301.26293221839
738546.46719577850308269262,-21.5748313852351,-13.5615863521226,-301.318323313089
738546.46719586884137243032,-21.4455854976043,-13.4784997100742,-301.253700369274
738546.46719595929607748985,-21.5379039887692,-13.5154271065401,-301.235236671041
738546.46719604975078254938,-21.4455854976043,-13.4508041627247,-301.281395916623
738546.46719614020548760891,-21.4917447431867,-13.4692678609577,-301.299859614856
738546.46719623066019266844,-21.5194402905362,-13.5615863521226,-301.26293221839
738546.46719632111489772797,-21.5471358378857,-13.5800500503555,-301.235236671041
738546.46719641156960278749,-21.4917447431867,-13.5615863521226,-301.29062776574
738546.46719650202430784702,-21.5194402905362,-13.5708182012391,-301.309091463973
738546.46719659236259758472,-21.5194402905362,-13.5985137485885,-301.327555162206
738546.46719668281730264425,-21.4917447431867,-13.5800500503555,-301.318323313089
738546.46719677327200770378,-21.5840632343516,-13.6354411450545,-301.253700369274
738546.46719686372671276331,-21.4548173467208,-13.5431226538896,-301.327555162206
738546.46719695418141782284,-21.5655995361187,-13.626209295938,-301.346018860439
738546.46719704463612288237,-21.4455854976043,-13.5338908047731,-301.272164067507
738546.46719713509082794189,-21.5194402905362,-13.5800500503555,-301.244468520157
738546.46719722542911767960,-21.5009765923032,-13.5800500503555,-301.226004821925
738546.46719731588382273912,-21.5655995361187,-13.6169774468215,-301.336787011322
738546.46719740633852779865,-21.4917447431867,-13.5800500503555,-301.281395916623
738546.46719749679323285818,-21.5471358378857,-13.6169774468215,-301.346018860439
738546.46719758724793791771,-21.5471358378857,-13.607745597705,-301.346018860439
738546.46719767770264297724,-21.5932950834681,-13.644672994171,-301.272164067507
738546.46719776815734803677,-21.5655995361187,-13.626209295938,-301.364482558672
738546.46719785861205309629,-21.5748313852351,-13.6169774468215,-301.373714407788
738546.46719794895034283400,-21.5932950834681,-13.6169774468215,-301.29062776574
738546.46719803940504789352,-21.6025269325846,-13.626209295938,-301.336787011322
738546.46719812985975295305,-21.6117587817011,-13.6354411450545,-301.364482558672
738546.46719822031445801258,-21.5563676870022,-13.5985137485885,-301.29062776574
738546.46719831076916307211,-21.6302224799341,-13.644672994171,-301.272164067507
738546.46719840122386813164,-21.5840632343516,-13.6169774468215,-301.253700369274
738546.46719849167857319117,-21.6394543290506,-13.6539048432875,-301.26293221839
738546.46719858201686292887,-21.5932950834681,-13.5985137485885,-301.244468520157
738546.46719867247156798840,-21.6486861781671,-13.644672994171,-301.272164067507
738546.46719876292627304792,-21.5655995361187,-13.5985137485885,-301.207541123691
738546.46719885338097810745,-21.5655995361187,-13.5800500503555,-301.272164067507
738546.46719894383568316698,-21.5563676870022,-13.5708182012391,-301.29062776574
738546.46719903429038822651,-21.6025269325846,-13.589281899472,-301.281395916623
738546.46719912474509328604,-21.5748313852351,-13.5800500503555,-301.281395916623
738546.46719921519979834557,-21.5655995361187,-13.5708182012391,-301.29062776574
738546.46719930553808808327,-21.5748313852351,-13.589281899472,-301.29062776574
738546.46719939599279314280,-21.5932950834681,-13.5800500503555,-301.29062776574
738546.46719948644749820232,-21.6394543290506,-13.6169774468215,-301.318323313089
738546.46719957690220326185,-21.5379039887692,-13.5431226538896,-301.355250709555
738546.46719966735690832138,-21.6302224799341,-13.607745597705,-301.299859614856
738546.46719975781161338091,-21.5471358378857,-13.5615863521226,-301.253700369274
738546.46719984826631844044,-21.6486861781671,-13.626209295938,-301.309091463973
738546.46719993872102349997,-21.5840632343516,-13.5708182012391,-301.26293221839
738546.46720002905931323767,-21.6486861781671,-13.6169774468215,-301.253700369274
738546.46720011951401829720,-21.5748313852351,-13.5615863521226,-301.26293221839
738546.46720020996872335672,-21.6671498764,-13.626209295938,-301.309091463973
738546.46720030042342841625,-21.5840632343516,-13.5615863521226,-301.327555162206
738546.46720039087813347578,-21.6486861781671,-13.5985137485885,-301.26293221839
738546.46720048133283853531,-21.6671498764,-13.6169774468215,-301.309091463973
738546.46720057178754359484,-21.6117587817011,-13.5800500503555,-301.327555162206
738546.46720066212583333254,-21.685613574633,-13.626209295938,-301.299859614856
738546.46720075258053839207,-21.6025269325846,-13.5615863521226,-301.216772972808
738546.46720084303524345160,-21.6671498764,-13.6169774468215,-301.272164067507
738546.46720093348994851112,-21.6025269325846,-13.5708182012391,-301.281395916623
738546.46720102394465357065,-21.704077272866,-13.644672994171,-301.318323313089
738546.46720111439935863018,-21.5840632343516,-13.5338908047731,-301.29062776574
738546.46720120485406368971,-21.6579180272835,-13.5985137485885,-301.336787011322
738546.46720129530876874924,-21.6025269325846,-13.589281899472,-301.299859614856
738546.46720138564705848694,-21.6763817255165,-13.5985137485885,-301.309091463973
738546.46720147610176354647,-21.6025269325846,-13.4969634083071,-301.299859614856
738546.46720156655646860600,-21.6486861781671,-13.5523545030061,-301.29062776574
738546.46720165701117366552,-21.5286721396527,-13.4969634083071,-301.29062776574
738546.46720174746587872505,-21.6671498764,-13.5708182012391,-301.318323313089
738546.46720183792058378458,-21.6117587817011,-13.5338908047731,-301.253700369274
738546.46720192837528884411,-21.704077272866,-13.6169774468215,-301.29062776574
738546.46720201871357858181,-21.6394543290506,-13.5800500503555,-301.346018860439
738546.46720210916828364134,-21.704077272866,-13.6354411450545,-301.281395916623
738546.46720219962298870087,-21.6671498764,-13.607745597705,-301.299859614856
738546.46720229007769376040,-21.6394543290506,-13.589281899472,-301.318323313089
738546.46720238053239881992,-21.7594683675649,-13.6908322397534,-301.318323313089
738546.46720247098710387945,-21.6671498764,-13.626209295938,-301.235236671041
738546.46720256144180893898,-21.7502365184484,-13.6723685415204,-301.26293221839
738546.46720265189651399851,-21.6671498764,-13.626209295938,-301.253700369274
738546.46720274223480373621,-21.7779320657979,-13.7000640888699,-301.26293221839
738546.46720283268950879574,-21.7502365184484,-13.626209295938,-301.29062776574
738546.46720292314421385527,-21.9256416516617,-13.626209295938,-301.364482558672
738546.46720301359891891479,-21.7133091219825,-13.4231086153752,-301.235236671041
738546.46720310405362397432,-21.251716666158,-13.0815301980651,-301.115222632527
738546.46720319450832903385,-20.2177495651112,-12.7861110263375,-300.976744895779
738546.46720328496303409338,-20.0146488845485,-13.1461531418805,-301.041367839595
738546.46720337530132383108,-20.8824427014985,-13.4692678609577,-301.152150028993
738546.46720346575602889061,-21.6579180272835,-13.589281899472,-301.253700369274
738546.46720355621073395014,-21.7133091219825,-13.4969634083071,-301.26293221839
738546.46720364666543900967,-21.6763817255165,-13.5246589556566,-301.253700369274
738546.46720373712014406919,-21.6394543290506,-13.5615863521226,-301.235236671041
738546.46720382757484912872,-21.6671498764,-13.5985137485885,-301.26293221839
738546.46720391802955418825,-21.6763817255165,-13.607745597705,-301.299859614856
738546.46720400848425924778,-21.6394543290506,-13.589281899472,-301.26293221839
738546.46720409882254898548,-21.7133091219825,-13.644672994171,-301.309091463973
738546.46720418927725404501,-21.6209906308176,-13.5615863521226,-301.235236671041
738546.46720427973195910454,-21.7317728202155,-13.644672994171,-301.161381878109
738546.46720437018666416407,-21.6579180272835,-13.607745597705,-301.253700369274
738546.46720446064136922359,-21.7317728202155,-13.6539048432875,-301.309091463973
738546.46720455109607428312,-21.6394543290506,-13.5800500503555,-301.29062776574
738546.46720464155077934265,-21.685613574633,-13.5985137485885,-301.318323313089
738546.46720473200548440218,-21.6394543290506,-13.5708182012391,-301.299859614856
738546.46720482234377413988,-21.6579180272835,-13.5615863521226,-301.309091463973
738546.46720491279847919941,-21.6209906308176,-13.5154271065401,-301.272164067507
738546.46720500325318425894,-21.6209906308176,-13.5061952574236,-301.281395916623
738546.46720509370788931847,-21.6025269325846,-13.4877315591906,-301.244468520157
738546.46720518416259437799,-21.5655995361187,-13.4415723136082,-301.29062776574
738546.46720527461729943752,-21.5748313852351,-13.4323404644917,-301.26293221839
738546.46720536507200449705,-21.5286721396527,-13.3861812189093,-301.198309274575
738546.46720545541029423475,-21.5471358378857,-13.3584856715598,-301.26293221839
738546.46720554586499929428,-21.3994262520219,-13.210776085696,-301.235236671041
738546.46720563631970435381,-21.4271217993713,-13.2200079348125,-301.216772972808
738546.46720572677440941334,-21.3624988555559,-13.1830805383465,-301.207541123691
738546.46720581722911447287,-21.3994262520219,-13.17384868923,-301.216772972808
738546.46720590768381953239,-21.251716666158,-13.0630664998321,-301.216772972808
738546.46720599813852459192,-21.288644062624,-13.0907620471816,-301.198309274575
738546.46720608859322965145,-21.2424848170415,-13.0630664998321,-301.189077425459
738546.46720617893151938915,-21.251716666158,-13.0907620471816,-301.207541123691
738546.46720626938622444868,-21.251716666158,-13.1184575945311,-301.179845576342
738546.46720635984092950821,-21.270180364391,-13.1461531418805,-301.189077425459
738546.46720645029563456774,-21.3348033082064,-13.2200079348125,-301.253700369274
738546.46720654075033962727,-21.3532670064394,-13.2569353312784,-301.244468520157
738546.46720663120504468679,-21.4271217993713,-13.3400219733268,-301.244468520157
738546.46720672165974974632,-21.4825128940703,-13.4046449171422,-301.272164067507
738546.46720681199803948402,-21.5748313852351,-13.4784997100742,-301.318323313089
738546.46720690245274454355,-21.5379039887692,-13.4600360118412,-301.29062776574
738546.46720699290744960308,-21.6579180272835,-13.5523545030061,-301.318323313089
738546.46720708336215466261,-21.5932950834681,-13.5061952574236,-301.29062776574
738546.46720717381685972214,-21.685613574633,-13.5708182012391,-301.170613727226
738546.46720726427156478167,-21.6117587817011,-13.5154271065401,-301.226004821925
738546.46720735472626984119,-21.7133091219825,-13.589281899472,-301.226004821925
738546.46720744518097490072,-21.6025269325846,-13.5061952574236,-301.216772972808
738546.46720753551926463842,-21.741004669332,-13.607745597705,-301.26293221839
738546.46720762597396969795,-21.6302224799341,-13.5246589556566,-301.272164067507
738546.46720771642867475748,-21.7502365184484,-13.5985137485885,-301.059831537828
738546.46720780688337981701,-21.7317728202155,-13.589281899472,-301.115222632527
738546.46720789733808487654,-21.6579180272835,-13.5431226538896,-301.207541123691
738546.46720798779278993607,-21.722540971099,-13.5985137485885,-301.226004821925
738546.46720807824749499559,-21.6579180272835,-13.5431226538896,-301.216772972808
738546.46720816858578473330,-21.7317728202155,-13.5985137485885,-301.198309274575
738546.46720825904048979282,-21.6394543290506,-13.5338908047731,-301.26293221839
738546.46720834949519485235,-21.7317728202155,-13.589281899472,-301.281395916623
738546.46720843994989991188,-21.6302224799341,-13.5338908047731,-301.226004821925
738546.46720853040460497141,-21.7317728202155,-13.5985137485885,-301.235236671041
738546.46720862085931003094,-21.6302224799341,-13.5338908047731,-301.207541123691
738546.46720871131401509047,-21.7317728202155,-13.5985137485885,-301.244468520157
738546.46720880176872014999,-21.6209906308176,-13.5246589556566,-301.253700369274
738546.46720889210700988770,-21.7133091219825,-13.5985137485885,-301.272164067507
738546.46720898256171494722,-21.6394543290506,-13.5431226538896,-301.26293221839
738546.46720907301642000675,-21.7317728202155,-13.607745597705,-301.318323313089
738546.46720916347112506628,-21.6486861781671,-13.5615863521226,-301.216772972808
738546.46720925392583012581,-21.722540971099,-13.5985137485885,-301.272164067507
738546.46720934438053518534,-21.6671498764,-13.5708182012391,-301.272164067507
738546.46720943483524024487,-21.7133091219825,-13.607745597705,-301.235236671041
738546.46720952528994530439,-21.6763817255165,-13.5708182012391,-301.29062776574
738546.46720961562823504210,-21.722540971099,-13.5985137485885,-301.299859614856
738546.46720970608294010162,-21.7687002166814,-13.6354411450545,-301.336787011322
738546.46720979653764516115,-21.6486861781671,-13.5708182012391,-301.272164067507
738546.46720988699235022068,-21.7594683675649,-13.6354411450545,-301.336787011322
738546.46720997744705528021,-21.6579180272835,-13.5800500503555,-301.29062776574
738546.46721006790176033974,-21.7502365184484,-13.6354411450545,-301.272164067507
738546.46721015835646539927,-21.6763817255165,-13.5800500503555,-301.29062776574
738546.46721024869475513697,-21.741004669332,-13.626209295938,-301.309091463973
738546.46721033914946019650,-21.6763817255165,-13.589281899472,-301.272164067507
738546.46721042960416525602,-21.741004669332,-13.626209295938,-301.29062776574
738546.46721052005887031555,-21.685613574633,-13.589281899472,-301.318323313089
738546.46721061051357537508,-21.741004669332,-13.644672994171,-301.299859614856
738546.46721070096828043461,-21.704077272866,-13.607745597705,-301.253700369274
738546.46721079142298549414,-21.7133091219825,-13.6169774468215,-301.281395916623
738546.46721088187769055367,-21.722540971099,-13.6169774468215,-301.281395916623
738546.46721097221598029137,-21.722540971099,-13.626209295938,-301.309091463973
738546.46721106267068535089,-21.7133091219825,-13.6169774468215,-301.272164067507
738546.46721115312539041042,-21.7133091219825,-13.6169774468215,-301.281395916623
738546.46721124358009546995,-21.7502365184484,-13.644672994171,-301.013672292245
738546.46721133403480052948,-21.6948454237495,-13.607745597705,-301.161381878109
738546.46721142448950558901,-21.7502365184484,-13.6539048432875,-301.29062776574
738546.46721151494421064854,-21.685613574633,-13.607745597705,-301.244468520157
738546.46721160528250038624,-21.7502365184484,-13.6539048432875,-301.253700369274
738546.46721169573720544577,-21.6763817255165,-13.5985137485885,-301.244468520157
738546.46721178619191050529,-21.741004669332,-13.644672994171,-301.318323313089
738546.46721187664661556482,-21.704077272866,-13.6169774468215,-301.29062776574
738546.46721196710132062435,-21.722540971099,-13.6169774468215,-301.253700369274
738546.46721205755602568388,-21.722540971099,-13.6354411450545,-301.272164067507
738546.46721214801073074341,-21.722540971099,-13.6354411450545,-301.29062776574
738546.46721223846543580294,-21.7317728202155,-13.6169774468215,-301.26293221839
738546.46721232880372554064,-21.704077272866,-13.607745597705,-301.309091463973
738546.46721241925843060017,-21.741004669332,-13.6169774468215,-301.299859614856
738546.46721250971313565969,-21.6763817255165,-13.5431226538896,-301.198309274575
738546.46721260016784071922,-21.7133091219825,-13.5431226538896,-301.207541123691
738546.46721269062254577875,-21.6117587817011,-13.5061952574236,-301.253700369274
738546.46721278107725083828,-21.741004669332,-13.5985137485885,-301.318323313089
738546.46721287153195589781,-21.6671498764,-13.5154271065401,-301.207541123691
738546.46721296187024563551,-21.7779320657979,-13.6169774468215,-301.29062776574
738546.46721305232495069504,-21.6671498764,-13.5615863521226,-301.281395916623
738546.46721314277965575457,-21.7871639149144,-13.6631366924039,-301.281395916623
738546.46721323323436081409,-21.7317728202155,-13.6354411450545,-301.29062776574
738546.46721332368906587362,-21.8148594622639,-13.7000640888699,-301.29062776574
738546.46721341414377093315,-21.7687002166814,-13.6723685415204,-301.336787011322
738546.46721350459847599268,-21.7502365184484,-13.6539048432875,-301.226004821925
738546.46721359505318105221,-21.7871639149144,-13.6723685415204,-301.327555162206
738546.46721368539147078991,-21.7502365184484,-13.6631366924039,-301.29062776574
738546.46721377584617584944,-21.7963957640309,-13.7000640888699,-301.309091463973
738546.46721386630088090897,-21.7687002166814,-13.644672994171,-301.26293221839
738546.46721395675558596849,-21.9902645954772,-13.7000640888699,-301.299859614856
738546.46721404721029102802,-21.8425550096133,-13.5061952574236,-301.309091463973
738546.46721413766499608755,-21.5471358378857,-13.17384868923,-301.207541123691
738546.46721422811970114708,-20.6424146244697,-12.6845606860561,-300.995208594012
738546.46721431857440620661,-20.023880733665,-12.9245887630848,-301.069063386944
738546.46721440891269594431,-20.7439649647511,-13.4323404644917,-301.207541123691
738546.46721449936740100384,-21.5286721396527,-13.6908322397534,-301.26293221839
738546.46721458982210606337,-21.7594683675649,-13.5523545030061,-301.309091463973
738546.46721468027681112289,-21.7871639149144,-13.5246589556566,-301.309091463973
738546.46721477073151618242,-21.6486861781671,-13.5061952574236,-301.13368633076
738546.46721486118622124195,-21.7687002166814,-13.6631366924039,-301.226004821925
738546.46721495164092630148,-21.704077272866,-13.626209295938,-301.346018860439
738546.46721504197921603918,-21.7594683675649,-13.6539048432875,-301.309091463973
738546.46721513243392109871,-21.6671498764,-13.5800500503555,-301.272164067507
738546.46721522288862615824,-21.704077272866,-13.607745597705,-301.29062776574
738546.46721531334333121777,-21.7317728202155,-13.626209295938,-301.272164067507
738546.46721540379803627729,-21.6394543290506,-13.5708182012391,-301.309091463973
738546.46721549425274133682,-21.7317728202155,-13.626209295938,-301.346018860439
738546.46721558470744639635,-21.6302224799341,-13.5523545030061,-301.309091463973
738546.46721567516215145588,-21.722540971099,-13.626209295938,-301.253700369274
738546.46721576550044119358,-21.6394543290506,-13.5708182012391,-301.226004821925
738546.46721585595514625311,-21.7133091219825,-13.5985137485885,-301.235236671041
738546.46721594640985131264,-21.5840632343516,-13.5154271065401,-301.216772972808
738546.46721603686455637217,-21.6763817255165,-13.5708182012391,-301.216772972808
738546.46721612731926143169,-21.5748313852351,-13.4692678609577,-301.198309274575
738546.46721621777396649122,-21.6117587817011,-13.4969634083071,-301.161381878109
738546.46721630822867155075,-21.5009765923032,-13.4046449171422,-301.189077425459
738546.46721639856696128845,-21.5379039887692,-13.4046449171422,-301.198309274575
738546.46721648902166634798,-21.4640491958373,-13.3307901242103,-301.161381878109
738546.46721657947637140751,-21.4363536484878,-13.2753990295114,-301.152150028993
738546.46721666993107646704,-21.4732810449538,-13.2938627277444,-301.152150028993
738546.46721676038578152657,-21.3994262520219,-13.2015442365795,-301.170613727226
738546.46721685084048658609,-21.3348033082064,-13.1369212927641,-301.142918179876
738546.46721694129519164562,-21.3348033082064,-13.1184575945311,-301.207541123691
738546.46721703174989670515,-21.2609485152745,-13.0538346507157,-301.207541123691
738546.46721712208818644285,-21.233252967925,-13.0538346507157,-301.198309274575
738546.46721721254289150238,-21.251716666158,-13.0722983489486,-301.152150028993
738546.46721730299759656191,-21.233252967925,-13.0722983489486,-301.115222632527
738546.46721739345230162144,-21.3163396099734,-13.1830805383465,-301.170613727226
738546.46721748390700668097,-21.2794122135075,-13.1646168401135,-301.115222632527
738546.46721757436171174049,-21.3348033082064,-13.2384716330454,-301.161381878109
738546.46721766481641680002,-21.3532670064394,-13.2938627277444,-301.170613727226
738546.46721775515470653772,-21.4363536484878,-13.4046449171422,-301.179845576342
738546.46721784560941159725,-21.4917447431867,-13.4508041627247,-301.253700369274
738546.46721793606411665678,-21.4917447431867,-13.4692678609577,-301.179845576342
738546.46721802651882171631,-21.5563676870022,-13.5338908047731,-301.29062776574
738546.46721811697352677584,-21.5840632343516,-13.5431226538896,-301.281395916623
738546.46721820742823183537,-21.6025269325846,-13.5615863521226,-301.299859614856
738546.46721829788293689489,-21.5471358378857,-13.5246589556566,-301.096758934294
738546.46721838833764195442,-21.5932950834681,-13.5708182012391,-301.207541123691
738546.46721847867593169212,-21.685613574633,-13.6354411450545,-301.299859614856
738546.46721856913063675165,-21.6579180272835,-13.607745597705,-301.244468520157
738546.46721865958534181118,-21.6117587817011,-13.5800500503555,-301.272164067507
738546.46721875004004687071,-21.6302224799341,-13.607745597705,-301.299859614856
738546.46721884049475193024,-21.5932950834681,-13.5708182012391,-301.29062776574
738546.46721893094945698977,-21.6209906308176,-13.589281899472,-301.29062776574
738546.46721902140416204929,-21.5563676870022,-13.5338908047731,-301.29062776574
738546.46721911185886710882,-21.6025269325846,-13.589281899472,-301.29062776574
738546.46721920219715684652,-21.6302224799341,-13.607745597705,-301.327555162206
738546.46721929265186190605,-21.6117587817011,-13.5985137485885,-301.26293221839
738546.46721938310656696558,-21.5840632343516,-13.5338908047731,-301.309091463973
738546.46721947356127202511,-21.6025269325846,-13.5708182012391,-301.299859614856
738546.46721956401597708464,-21.6671498764,-13.626209295938,-301.281395916623
738546.46721965447068214417,-21.5748313852351,-13.5431226538896,-301.29062776574
738546.46721974492538720369,-21.6763817255165,-13.6354411450545,-301.318323313089
738546.46721983526367694139,-21.5563676870022,-13.5523545030061,-301.235236671041
738546.46721992571838200092,-21.5932950834681,-13.5800500503555,-301.216772972808
738546.46722001617308706045,-21.5840632343516,-13.589281899472,-301.216772972808
738546.46722010662779211998,-21.6394543290506,-13.6354411450545,-301.189077425459
738546.46722019708249717951,-21.5840632343516,-13.5985137485885,-301.216772972808
738546.46722028753720223904,-21.6209906308176,-13.6539048432875,-301.26293221839
738546.46722037799190729856,-21.6117587817011,-13.6539048432875,-301.253700369274
738546.46722046844661235809,-21.6763817255165,-13.6908322397534,-301.226004821925
738546.46722055878490209579,-21.6486861781671,-13.6908322397534,-301.244468520157
738546.46722064923960715532,-21.6763817255165,-13.7092959379864,-301.216772972808
738546.46722073969431221485,-21.5932950834681,-13.6354411450545,-301.216772972808
738546.46722083014901727438,-21.6394543290506,-13.6908322397534,-301.226004821925
738546.46722092060372233391,-21.6671498764,-13.7185277871029,-301.281395916623
738546.46722101105842739344,-21.5932950834681,-13.6723685415204,-301.253700369274
738546.46722110151313245296,-21.685613574633,-13.7369914853359,-301.299859614856
738546.46722119185142219067,-21.5563676870022,-13.626209295938,-301.216772972808
738546.46722128230612725019,-21.6486861781671,-13.7185277871029,-301.235236671041
738546.46722137276083230972,-21.6302224799341,-13.6908322397534,-301.235236671041
738546.46722146321553736925,-21.704077272866,-13.7369914853359,-301.281395916623
738546.46722155367024242878,-21.5840632343516,-13.6354411450545,-301.207541123691
738546.46722164412494748831,-21.5286721396527,-13.5615863521226,-301.235236671041
738546.46722173457965254784,-21.5563676870022,-13.5985137485885,-301.272164067507
738546.46722182503435760736,-21.741004669332,-13.7554551835688,-301.142918179876
738546.46722191537264734507,-21.6579180272835,-13.6908322397534,-301.198309274575
738546.46722200582735240459,-21.722540971099,-13.7277596362194,-301.29062776574
738546.46722209628205746412,-21.6209906308176,-13.6539048432875,-301.26293221839
738546.46722218673676252365,-21.5932950834681,-13.6169774468215,-301.244468520157
738546.46722227719146758318,-21.5655995361187,-13.6169774468215,-301.336787011322
738546.46722236764617264271,-21.6302224799341,-13.6723685415204,-301.318323313089
738546.46722245810087770224,-21.5932950834681,-13.626209295938,-301.272164067507
738546.46722254843916743994,-21.5471358378857,-13.5615863521226,-301.26293221839
738546.46722263889387249947,-21.5102084414197,-13.5061952574236,-301.26293221839
738546.46722272934857755899,-21.3901944029054,-13.4046449171422,-301.281395916623
738546.46722281980328261852,-21.5932950834681,-13.5708182012391,-301.216772972808
738546.46722291025798767805,-21.5471358378857,-13.5431226538896,-301.272164067507
738546.46722300071269273758,-21.6671498764,-13.6169774468215,-301.309091463973
738546.46722309116739779711,-21.5471358378857,-13.5154271065401,-301.216772972808
738546.46722318162210285664,-21.6948454237495,-13.6908322397534,-301.272164067507
738546.46722327196039259434,-21.6486861781671,-13.644672994171,-301.281395916623
738546.46722336241509765387,-21.6763817255165,-13.644672994171,-301.272164067507
738546.46722345286980271339,-21.6763817255165,-13.6816003906369,-301.26293221839
738546.46722354332450777292,-21.7317728202155,-13.7277596362194,-301.309091463973
738546.46722363377921283245,-21.685613574633,-13.6816003906369,-301.281395916623
738546.46722372423391789198,-21.5563676870022,-13.5523545030061,-301.235236671041
738546.46722381468862295151,-21.6486861781671,-13.6539048432875,-301.281395916623
738546.46722390502691268921,-21.6486861781671,-13.644672994171,-301.318323313089
738546.46722399548161774874,-21.8056276131474,-13.7277596362194,-301.216772972808
738546.46722408593632280827,-21.8979461043123,-13.6723685415204,-301.29062776574
738546.46722417639102786779,-21.7871639149144,-13.4508041627247,-301.26293221839
738546.46722426684573292732,-21.1963255714591,-12.9153569139683,-301.059831537828
738546.46722435730043798685,-20.4116183965575,-12.6014740440077,-300.976744895779
738546.46722444775514304638,-20.0331125827815,-12.9338206122013,-301.059831537828
738546.46722453820984810591,-21.1224707785272,-13.6816003906369,-301.161381878109
738546.46722462854813784361,-21.3440351573229,-13.7000640888699,-301.244468520157
738546.46722471900284290314,-21.722540971099,-13.6354411450545,-301.226004821925
738546.46722480945754796267,-21.6763817255165,-13.4415723136082,-301.189077425459
738546.46722489991225302219,-21.6394543290506,-13.4969634083071,-301.161381878109
738546.46722499036695808172,-21.6579180272835,-13.589281899472,-301.198309274575
738546.46722508082166314125,-21.6486861781671,-13.6354411450545,-301.207541123691
738546.46722517127636820078,-21.6579180272835,-13.644672994171,-301.170613727226
738546.46722526173107326031,-21.6394543290506,-13.6354411450545,-301.198309274575
738546.46722535206936299801,-21.6394543290506,-13.644672994171,-301.161381878109
738546.46722544252406805754,-21.5748313852351,-13.589281899472,-301.13368633076
738546.46722553297877311707,-21.6486861781671,-13.644672994171,-301.26293221839
738546.46722562343347817659,-21.5748313852351,-13.589281899472,-301.299859614856
738546.46722571388818323612,-21.6117587817011,-13.589281899472,-301.26293221839
738546.46722580434288829565,-21.5379039887692,-13.5523545030061,-301.226004821925
738546.46722589479759335518,-21.6209906308176,-13.607745597705,-301.272164067507
738546.46722598513588309288,-21.5009765923032,-13.5154271065401,-301.235236671041
738546.46722607559058815241,-21.5932950834681,-13.5615863521226,-301.216772972808
738546.46722616604529321194,-21.5379039887692,-13.5338908047731,-301.216772972808
738546.46722625649999827147,-21.5932950834681,-13.5523545030061,-301.272164067507
738546.46722634695470333099,-21.4917447431867,-13.4600360118412,-301.152150028993
738546.46722643740940839052,-21.5471358378857,-13.4692678609577,-301.170613727226
738546.46722652786411345005,-21.5102084414197,-13.4323404644917,-301.198309274575
738546.46722661831881850958,-21.4086581011383,-13.3400219733268,-301.226004821925
738546.46722670865710824728,-21.4363536484878,-13.3123264259774,-301.235236671041
738546.46722679911181330681,-21.3348033082064,-13.2200079348125,-301.161381878109
738546.46722688956651836634,-21.3717307046724,-13.210776085696,-301.161381878109
738546.46722698002122342587,-21.251716666158,-13.0907620471816,-301.152150028993
738546.46722707047592848539,-21.3163396099734,-13.1276894436476,-301.189077425459
738546.46722716093063354492,-21.1870937223426,-13.0076754051332,-301.13368633076
738546.46722725138533860445,-21.2794122135075,-13.0815301980651,-301.170613727226
738546.46722734172362834215,-21.1593981749931,-12.9984435560167,-301.170613727226
738546.46722743217833340168,-21.2794122135075,-13.1276894436476,-301.096758934294
738546.46722752263303846121,-21.2424848170415,-13.1461531418805,-301.152150028993
738546.46722761308774352074,-21.3440351573229,-13.2477034821619,-301.207541123691
738546.46722770354244858027,-21.2794122135075,-13.2384716330454,-301.152150028993
738546.46722779399715363979,-21.4086581011383,-13.3584856715598,-301.198309274575
738546.46722788445185869932,-21.3717307046724,-13.3769493697928,-301.226004821925
738546.46722797490656375885,-21.4548173467208,-13.4415723136082,-301.244468520157
738546.46722806524485349655,-21.4086581011383,-13.4323404644917,-301.216772972808
738546.46722815569955855608,-21.5286721396527,-13.5431226538896,-301.253700369274
738546.46722824615426361561,-21.5102084414197,-13.5338908047731,-301.299859614856
738546.46722833660896867514,-21.4917447431867,-13.5246589556566,-301.29062776574
738546.46722842706367373466,-21.5840632343516,-13.5800500503555,-301.26293221839
738546.46722851751837879419,-21.5009765923032,-13.5246589556566,-301.299859614856
738546.46722860797308385372,-21.6025269325846,-13.5985137485885,-301.281395916623
738546.46722869831137359142,-21.5286721396527,-13.5523545030061,-301.244468520157
738546.46722878876607865095,-21.6117587817011,-13.6169774468215,-301.272164067507
738546.46722887922078371048,-21.5194402905362,-13.5338908047731,-301.10599078341
738546.46722896967548877001,-21.5932950834681,-13.5800500503555,-301.124454481643
738546.46722906013019382954,-21.5379039887692,-13.5338908047731,-301.198309274575
738546.46722915058489888906,-21.6025269325846,-13.5985137485885,-301.226004821925
738546.46722924103960394859,-21.5194402905362,-13.5338908047731,-301.207541123691
738546.46722933149430900812,-21.5563676870022,-13.5800500503555,-301.179845576342
738546.46722942183259874582,-21.5563676870022,-13.5985137485885,-301.189077425459
738546.46722951228730380535,-21.5748313852351,-13.589281899472,-301.207541123691
738546.46722960274200886488,-21.5655995361187,-13.589281899472,-301.244468520157
738546.46722969319671392441,-21.5563676870022,-13.5800500503555,-301.244468520157
738546.46722978365141898394,-21.5932950834681,-13.607745597705,-301.235236671041
738546.46722987410612404346,-21.5748313852351,-13.5985137485885,-301.179845576342
738546.46722996456082910299,-21.5932950834681,-13.6169774468215,-301.152150028993
738546.46723005501553416252,-21.5471358378857,-13.5800500503555,-301.152150028993
738546.46723014535382390022,-21.6209906308176,-13.6354411450545,-301.179845576342
738546.46723023580852895975,-21.5655995361187,-13.589281899472,-301.198309274575
738546.46723032626323401928,-21.6302224799341,-13.644672994171,-301.189077425459
738546.46723041671793907881,-21.5471358378857,-13.5708182012391,-301.179845576342
738546.46723050717264413834,-21.6394543290506,-13.6354411450545,-301.272164067507
738546.46723059762734919786,-21.6117587817011,-13.6169774468215,-301.235236671041
738546.46723068808205425739,-21.6302224799341,-13.626209295938,-301.198309274575
738546.46723077842034399509,-21.6209906308176,-13.607745597705,-301.281395916623
738546.46723086887504905462,-21.6302224799341,-13.6169774468215,-301.272164067507
738546.46723095932975411415,-21.6394543290506,-13.6169774468215,-301.281395916623
738546.46723104978445917368,-21.6025269325846,-13.589281899472,-301.235236671041
738546.46723114023916423321,-21.6579180272835,-13.6354411450545,-301.26293221839
738546.46723123069386929274,-21.6025269325846,-13.5985137485885,-301.26293221839
738546.46723132114857435226,-21.6209906308176,-13.6354411450545,-301.244468520157
738546.46723141160327941179,-21.5748313852351,-13.5800500503555,-301.299859614856
738546.46723150194156914949,-21.6579180272835,-13.626209295938,-301.299859614856
738546.46723159239627420902,-21.5379039887692,-13.5246589556566,-301.207541123691
738546.46723168285097926855,-21.5471358378857,-13.5246589556566,-301.244468520157
738546.46723177330568432808,-21.4825128940703,-13.4508041627247,-301.244468520157
738546.46723186376038938761,-21.6209906308176,-13.5615863521226,-301.216772972808
738546.46723195421509444714,-21.5563676870022,-13.5154271065401,-301.253700369274
738546.46723204466979950666,-21.6579180272835,-13.5985137485885,-301.281395916623
738546.46723213500808924437,-21.6209906308176,-13.5800500503555,-301.26293221839
738546.46723222546279430389,-21.6579180272835,-13.6169774468215,-301.216772972808
738546.46723231591749936342,-21.7133091219825,-13.6631366924039,-301.26293221839
738546.46723240637220442295,-21.6763817255165,-13.6354411450545,-301.207541123691
738546.46723249682690948248,-21.722540971099,-13.6723685415204,-301.152150028993
738546.46723258728161454201,-21.6394543290506,-13.6169774468215,-301.281395916623
738546.46723267773631960154,-21.7317728202155,-13.6816003906369,-301.216772972808
738546.46723276819102466106,-21.6579180272835,-13.6169774468215,-301.161381878109
738546.46723285852931439877,-21.741004669332,-13.6816003906369,-301.207541123691
738546.46723294898401945829,-21.6763817255165,-13.6169774468215,-301.226004821925
738546.46723303943872451782,-21.9071779534288,-13.6631366924039,-301.216772972808
738546.46723312989342957735,-21.7687002166814,-13.4600360118412,-301.207541123691
738546.46723322034813463688,-21.4732810449538,-13.0630664998321,-301.087527085177
738546.46723331080283969641,-20.5777916806543,-12.5183874019593,-300.912121951964
738546.46723340125754475594,-20.0977355265969,-12.795342875454,-300.92135380108
738546.46723349159583449364,-20.836283455916,-13.4508041627247,-301.161381878109
738546.46723358205053955317,-21.5655995361187,-13.7739188818018,-301.244468520157
738546.46723367250524461269,-21.7687002166814,-13.5523545030061,-301.244468520157
738546.46723376295994967222,-21.8240913113804,-13.4969634083071,-301.189077425459
738546.46723385341465473175,-21.6671498764,-13.4784997100742,-301.253700369274
738546.46723394386935979128,-21.6671498764,-13.5154271065401,-301.235236671041
738546.46723403432406485081,-21.7133091219825,-13.6169774468215,-301.179845576342
738546.46723412477876991034,-21.6209906308176,-13.5615863521226,-301.226004821925
738546.46723421511705964804,-21.7133091219825,-13.6169774468215,-301.216772972808
738546.46723430557176470757,-21.6302224799341,-13.5708182012391,-301.226004821925
738546.46723439602646976709,-21.685613574633,-13.607745597705,-301.179845576342
738546.46723448648117482662,-21.6209906308176,-13.5615863521226,-301.226004821925
738546.46723457693587988615,-21.741004669332,-13.6631366924039,-301.26293221839
738546.46723466739058494568,-21.6117587817011,-13.5523545030061,-301.253700369274
738546.46723475784529000521,-21.7133091219825,-13.6169774468215,-301.235236671041
738546.46723484829999506474,-21.6025269325846,-13.5246589556566,-301.226004821925
738546.46723493863828480244,-21.6671498764,-13.5800500503555,-301.26293221839
738546.46723502909298986197,-21.5840632343516,-13.5154271065401,-301.26293221839
738546.46723511954769492149,-21.6209906308176,-13.5338908047731,-301.179845576342
738546.46723521000239998102,-21.5655995361187,-13.4692678609577,-301.235236671041
738546.46723530045710504055,-21.5932950834681,-13.4784997100742,-301.226004821925
738546.46723539091181010008,-21.5194402905362,-13.4138767662587,-301.198309274575
738546.46723548136651515961,-21.5102084414197,-13.3769493697928,-301.198309274575
738546.46723557170480489731,-21.4363536484878,-13.3030945768609,-301.207541123691
738546.46723566215950995684,-21.4178899502548,-13.2477034821619,-301.13368633076
738546.46723575261421501637,-21.4178899502548,-13.229239783929,-301.096758934294
738546.46723584306892007589,-21.3348033082064,-13.155384990997,-301.069063386944
738546.46723593352362513542,-21.4086581011383,-13.1830805383465,-301.059831537828
738546.46723602397833019495,-21.2978759117405,-13.0999938962981,-300.967513046663
738546.46723611443303525448,-21.3809625537889,-13.155384990997,-301.069063386944
738546.46723620488774031401,-21.251716666158,-13.0630664998321,-301.124454481643
738546.46723629522603005171,-21.307107760857,-13.0999938962981,-301.142918179876
738546.46723638568073511124,-21.288644062624,-13.1184575945311,-301.124454481643
738546.46723647613544017076,-21.3440351573229,-13.17384868923,-301.170613727226
738546.46723656659014523029,-21.3532670064394,-13.2015442365795,-301.198309274575
738546.46723665704485028982,-21.3532670064394,-13.2200079348125,-301.189077425459
738546.46723674749955534935,-21.4548173467208,-13.3400219733268,-301.161381878109
738546.46723683795426040888,-21.4917447431867,-13.4138767662587,-301.235236671041
738546.46723692829255014658,-21.5471358378857,-13.4877315591906,-301.152150028993
738546.46723701874725520611,-21.5471358378857,-13.5061952574236,-301.189077425459
738546.46723710920196026564,-21.5840632343516,-13.5246589556566,-301.189077425459
738546.46723719965666532516,-21.5194402905362,-13.4784997100742,-301.189077425459
738546.46723729011137038469,-21.6209906308176,-13.5800500503555,-301.207541123691
738546.46723738056607544422,-21.5932950834681,-13.5523545030061,-301.207541123691
738546.46723747102078050375,-21.6579180272835,-13.5985137485885,-301.235236671041
738546.46723756147548556328,-21.5563676870022,-13.5154271065401,-301.26293221839
738546.46723765181377530098,-21.6117587817011,-13.5431226538896,-301.253700369274
738546.46723774226848036051,-21.5194402905362,-13.4877315591906,-301.272164067507
738546.46723783272318542004,-21.6302224799341,-13.5708182012391,-301.189077425459
738546.46723792317789047956,-21.6117587817011,-13.5615863521226,-301.253700369274
738546.46723801363259553909,-21.6117587817011,-13.5615863521226,-301.244468520157
738546.46723810408730059862,-21.6025269325846,-13.5708182012391,-301.207541123691
738546.46723819454200565815,-21.6117587817011,-13.5708182012391,-301.179845576342
738546.46723828488029539585,-21.6486861781671,-13.589281899472,-301.189077425459
738546.46723837533500045538,-21.5932950834681,-13.5523545030061,-301.207541123691
738546.46723846578970551491,-21.6394543290506,-13.589281899472,-301.235236671041
738546.46723855624441057444,-21.5655995361187,-13.5338908047731,-301.207541123691
738546.46723864669911563396,-21.6302224799341,-13.589281899472,-301.26293221839
738546.46723873715382069349,-21.5563676870022,-13.5246589556566,-301.253700369274
738546.46723882760852575302,-21.6025269325846,-13.5523545030061,-301.179845576342
738546.46723891806323081255,-21.5194402905362,-13.5061952574236,-301.235236671041
738546.46723900840152055025,-21.6671498764,-13.626209295938,-301.244468520157
738546.46723909885622560978,-21.5563676870022,-13.5431226538896,-301.189077425459
738546.46723918931093066931,-21.6671498764,-13.6169774468215,-301.198309274575
738546.46723927976563572884,-21.5932950834681,-13.5800500503555,-301.26293221839
738546.46723937022034078836,-21.6579180272835,-13.6354411450545,-301.272164067507
738546.46723946067504584789,-21.5379039887692,-13.5431226538896,-301.069063386944
738546.46723955112975090742,-21.5563676870022,-13.5615863521226,-301.069063386944
738546.46723964158445596695,-21.6025269325846,-13.5985137485885,-301.235236671041
738546.46723973192274570465,-21.5102084414197,-13.5246589556566,-301.244468520157
738546.46723982237745076418,-21.5379039887692,-13.5246589556566,-301.244468520157
738546.46723991283215582371,-21.3717307046724,-13.3954130680258,-301.198309274575
738546.46724000328686088324,-21.5932950834681,-13.5615863521226,-301.244468520157
738546.46724009374156594276,-21.5009765923032,-13.4969634083071,-301.253700369274
738546.46724018419627100229,-21.6394543290506,-13.589281899472,-301.207541123691
738546.46724027465097606182,-21.5932950834681,-13.5800500503555,-301.244468520157
738546.46724036498926579952,-21.7133091219825,-13.6723685415204,-301.281395916623
738546.46724045544397085905,-21.6302224799341,-13.607745597705,-301.253700369274
738546.46724054589867591858,-21.741004669332,-13.6816003906369,-301.253700369274
738546.46724063635338097811,-21.6302224799341,-13.607745597705,-301.26293221839
738546.46724072680808603764,-21.7317728202155,-13.6816003906369,-301.161381878109
738546.46724081726279109716,-21.6394543290506,-13.6169774468215,-301.216772972808
738546.46724090771749615669,-21.704077272866,-13.6631366924039,-301.198309274575
738546.46724099817220121622,-21.6486861781671,-13.6354411450545,-301.198309274575
738546.46724108851049095392,-21.7133091219825,-13.6631366924039,-301.161381878109
738546.46724117896519601345,-21.7779320657979,-13.626209295938,-301.235236671041
738546.46724126941990107298,-21.8148594622639,-13.5708182012391,-301.179845576342
738546.46724135987460613251,-21.5840632343516,-13.2477034821619,-301.170613727226
738546.46724145032931119204,-21.251716666158,-12.9799798577837,-301.050599688711
738546.46724154078401625156,-20.5500961333048,-12.6014740440077,-300.865962706381
738546.46724163123872131109,-20.023880733665,-12.8415021210364,-300.930585650197
738546.46724172157701104879,-21.0855433820612,-13.626209295938,-301.161381878109
738546.46724181203171610832,-21.5563676870022,-13.7277596362194,-301.198309274575
738546.46724190248642116785,-21.8702505569628,-13.626209295938,-301.253700369274
738546.46724199294112622738,-21.741004669332,-13.4600360118412,-301.244468520157
738546.46724208339583128691,-21.722540971099,-13.5523545030061,-301.179845576342
738546.46724217385053634644,-21.6209906308176,-13.5523545030061,-301.207541123691
738546.46724226430524140596,-21.6948454237495,-13.6169774468215,-301.216772972808
738546.46724235475994646549,-21.6394543290506,-13.589281899472,-301.216772972808
738546.46724244509823620319,-21.6671498764,-13.6169774468215,-301.226004821925
738546.46724253555294126272,-21.6394543290506,-13.5985137485885,-301.198309274575
738546.46724262600764632225,-21.6486861781671,-13.5985137485885,-301.226004821925
738546.46724271646235138178,-21.6302224799341,-13.5985137485885,-301.216772972808
738546.46724280691705644131,-21.6117587817011,-13.5800500503555,-301.189077425459
738546.46724289737176150084,-21.6209906308176,-13.589281899472,-301.226004821925
738546.46724298782646656036,-21.5932950834681,-13.5615863521226,-301.013672292245
738546.46724307816475629807,-21.6302224799341,-13.589281899472,-301.189077425459
738546.46724316861946135759,-21.5563676870022,-13.5246589556566,-301.226004821925
738546.46724325907416641712,-21.6117587817011,-13.5708182012391,-301.253700369274
738546.46724334952887147665,-21.5286721396527,-13.5061952574236,-301.198309274575
738546.46724343998357653618,-21.5655995361187,-13.5154271065401,-301.226004821925
738546.46724353043828159571,-21.4917447431867,-13.4508041627247,-301.235236671041
738546.46724362089298665524,-21.5102084414197,-13.4415723136082,-301.170613727226
738546.46724371134769171476,-21.4640491958373,-13.3861812189093,-301.207541123691
738546.46724380168598145247,-21.4363536484878,-13.3400219733268,-301.226004821925
738546.46724389214068651199,-21.3901944029054,-13.2846308786279,-301.189077425459
738546.46724398259539157152,-21.3624988555559,-13.2200079348125,-301.115222632527
738546.46724407305009663105,-21.3440351573229,-13.192312387463,-301.152150028993
738546.46724416350480169058,-21.288644062624,-13.1276894436476,-301.189077425459
738546.46724425395950675011,-21.3163396099734,-13.1369212927641,-301.161381878109
738546.46724434441421180964,-21.233252967925,-13.0722983489486,-301.115222632527
738546.46724443486891686916,-21.288644062624,-13.1092257454146,-301.189077425459
738546.46724452520720660686,-21.233252967925,-13.0815301980651,-301.161381878109
738546.46724461566191166639,-21.3348033082064,-13.192312387463,-301.13368633076
738546.46724470611661672592,-21.270180364391,-13.1830805383465,-301.161381878109
738546.46724479657132178545,-21.4178899502548,-13.3307901242103,-301.189077425459
738546.46724488702602684498,-21.3624988555559,-13.3123264259774,-301.179845576342
738546.46724497748073190451,-21.4917447431867,-13.4508041627247,-301.244468520157
738546.46724506793543696404,-21.4178899502548,-13.4231086153752,-301.216772972808
738546.46724515827372670174,-21.4825128940703,-13.4692678609577,-301.253700369274
738546.46724524872843176126,-21.5194402905362,-13.5338908047731,-301.207541123691
738546.46724533918313682079,-21.5009765923032,-13.5154271065401,-301.244468520157
738546.46724542963784188032,-21.5748313852351,-13.5800500503555,-301.299859614856
738546.46724552009254693985,-21.5194402905362,-13.5431226538896,-301.272164067507
738546.46724561054725199938,-21.5932950834681,-13.5985137485885,-301.226004821925
738546.46724570100195705891,-21.5102084414197,-13.5338908047731,-301.281395916623
738546.46724579145666211843,-21.5748313852351,-13.589281899472,-301.29062776574
738546.46724588179495185614,-21.4917447431867,-13.5338908047731,-301.216772972808
738546.46724597224965691566,-21.6117587817011,-13.6354411450545,-301.179845576342
738546.46724606270436197519,-21.5009765923032,-13.5338908047731,-301.170613727226
738546.46724615315906703472,-21.5471358378857,-13.5615863521226,-301.189077425459
738546.46724624361377209425,-21.4825128940703,-13.5246589556566,-301.179845576342
738546.46724633406847715378,-21.6025269325846,-13.6169774468215,-301.216772972808
738546.46724642452318221331,-21.4917447431867,-13.5338908047731,-301.179845576342
738546.46724651486147195101,-21.5748313852351,-13.5800500503555,-301.022904141362
738546.46724660531617701054,-21.4732810449538,-13.5061952574236,-301.115222632527
738546.46724669577088207006,-21.5655995361187,-13.5800500503555,-301.179845576342
738546.46724678622558712959,-21.4917447431867,-13.5246589556566,-301.189077425459
738546.46724687668029218912,-21.5840632343516,-13.607745597705,-301.179845576342
738546.46724696713499724865,-21.5286721396527,-13.5708182012391,-301.189077425459
738546.46724705758970230818,-21.5102084414197,-13.5523545030061,-301.170613727226
738546.46724714804440736771,-21.5748313852351,-13.5985137485885,-301.170613727226
738546.46724723838269710541,-21.5194402905362,-13.5615863521226,-301.179845576342
738546.46724732883740216494,-21.6209906308176,-13.6354411450545,-301.189077425459
738546.46724741929210722446,-21.5102084414197,-13.5523545030061,-301.216772972808
738546.46724750974681228399,-21.6117587817011,-13.644672994171,-301.253700369274
738546.46724760020151734352,-21.5194402905362,-13.5708182012391,-301.207541123691
738546.46724769065622240305,-21.6025269325846,-13.6354411450545,-301.170613727226
738546.46724778111092746258,-21.5102084414197,-13.5800500503555,-301.226004821925
738546.46724787144921720028,-21.5655995361187,-13.626209295938,-301.244468520157
738546.46724796190392225981,-21.4640491958373,-13.5615863521226,-301.216772972808
738546.46724805235862731934,-21.5471358378857,-13.607745597705,-301.235236671041
738546.46724814281333237886,-21.5009765923032,-13.5708182012391,-301.253700369274
738546.46724823326803743839,-21.5009765923032,-13.5615863521226,-301.198309274575
738546.46724832372274249792,-21.4086581011383,-13.4692678609577,-301.226004821925
738546.46724841417744755745,-21.4548173467208,-13.4969634083071,-301.207541123691
738546.46724850463215261698,-21.4732810449538,-13.5246589556566,-301.189077425459
738546.46724859497044235468,-21.5009765923032,-13.5431226538896,-301.216772972808
738546.46724868542514741421,-21.5471358378857,-13.5800500503555,-301.244468520157
738546.46724877587985247374,-21.5286721396527,-13.5800500503555,-301.244468520157
738546.46724886633455753326,-21.6117587817011,-13.644672994171,-301.207541123691
738546.46724895678926259279,-21.5471358378857,-13.607745597705,-301.26293221839
738546.46724904724396765232,-21.6394543290506,-13.6816003906369,-301.244468520157
738546.46724913769867271185,-21.5563676870022,-13.626209295938,-301.207541123691
738546.46724922815337777138,-21.6394543290506,-13.6908322397534,-301.244468520157
738546.46724931849166750908,-21.5655995361187,-13.626209295938,-301.253700369274
738546.46724940894637256861,-21.6025269325846,-13.6631366924039,-301.235236671041
738546.46724949940107762814,-21.5840632343516,-13.6539048432875,-301.253700369274
738546.46724958985578268766,-21.6394543290506,-13.6816003906369,-301.235236671041
738546.46724968031048774719,-21.7317728202155,-13.6631366924039,-301.179845576342
738546.46724977076519280672,-21.6579180272835,-13.5061952574236,-301.10599078341
738546.46724986121989786625,-21.2978759117405,-13.0353709524827,-301.013672292245
738546.46724995155818760395,-20.5500961333048,-12.6107058931242,-300.893658253731
738546.46725004201289266348,-20.0331125827815,-12.8691976683859,-300.801339762566
738546.46725013246759772301,-20.9101382488479,-13.5246589556566,-301.022904141362
738546.46725022292230278254,-21.5009765923032,-13.7462233344523,-301.244468520157
738546.46725031337700784206,-21.6486861781671,-13.5523545030061,-301.216772972808
738546.46725040383171290159,-21.6763817255165,-13.5246589556566,-301.207541123691
738546.46725049428641796112,-21.5194402905362,-13.4877315591906,-301.244468520157
738546.46725058474112302065,-21.5840632343516,-13.6169774468215,-301.170613727226
738546.46725067507941275835,-21.5102084414197,-13.5708182012391,-301.179845576342
738546.46725076553411781788,-21.5748313852351,-13.626209295938,-301.198309274575
738546.46725085598882287741,-21.5748313852351,-13.626209295938,-301.207541123691
738546.46725094644352793694,-21.5655995361187,-13.6169774468215,-301.207541123691
738546.46725103689823299646,-21.5471358378857,-13.5985137485885,-301.216772972808
738546.46725112735293805599,-21.5009765923032,-13.5708182012391,-301.244468520157
738546.46725121780764311552,-21.5563676870022,-13.6169774468215,-301.26293221839
738546.46725130814593285322,-21.5194402905362,-13.589281899472,-301.179845576342
738546.46725139860063791275,-21.5563676870022,-13.6169774468215,-301.216772972808
738546.46725148905534297228,-21.4640491958373,-13.5431226538896,-301.207541123691
738546.46725157951004803181,-21.5379039887692,-13.589281899472,-301.216772972808
738546.46725166996475309134,-21.4455854976043,-13.5246589556566,-301.115222632527
738546.46725176041945815086,-21.5009765923032,-13.5523545030061,-301.207541123691
738546.46725185087416321039,-21.3809625537889,-13.4508041627247,-301.152150028993
738546.46725194132886826992,-21.4640491958373,-13.4969634083071,-301.096758934294
738546.46725203166715800762,-21.3255714590899,-13.3769493697928,-301.115222632527
738546.46725212212186306715,-21.3901944029054,-13.4046449171422,-301.096758934294
738546.46725221257656812668,-21.270180364391,-13.2938627277444,-301.069063386944
738546.46725230303127318621,-21.3440351573229,-13.3123264259774,-301.078295236061
738546.46725239348597824574,-21.2055574205756,-13.17384868923,-301.124454481643
738546.46725248394068330526,-21.251716666158,-13.1830805383465,-301.152150028993
738546.46725257439538836479,-21.2240211188086,-13.1461531418805,-301.096758934294
738546.46725266473367810249,-21.1409344767602,-13.0630664998321,-301.13368633076
738546.46725275518838316202,-21.1870937223426,-13.0907620471816,-301.13368633076
738546.46725284564308822155,-21.0855433820612,-13.0261391033662,-301.022904141362
738546.46725293609779328108,-21.1686300241096,-13.0907620471816,-301.087527085177
738546.46725302655249834061,-21.0763115329447,-13.0446028015992,-301.142918179876
738546.46725311700720340014,-21.1870937223426,-13.1461531418805,-301.142918179876
738546.46725320746190845966,-21.1132389294107,-13.1369212927641,-301.069063386944
738546.46725329791661351919,-21.2978759117405,-13.3307901242103,-301.152150028993
738546.46725338825490325689,-21.2424848170415,-13.3215582750938,-301.142918179876
738546.46725347870960831642,-21.3809625537889,-13.4508041627247,-301.115222632527
738546.46725356916431337595,-21.307107760857,-13.4323404644917,-301.069063386944
738546.46725365961901843548,-21.4178899502548,-13.5338908047731,-301.13368633076
738546.46725375007372349501,-21.3532670064394,-13.4969634083071,-301.189077425459
738546.46725384052842855453,-21.4455854976043,-13.5708182012391,-301.161381878109
738546.46725393098313361406,-21.3809625537889,-13.5246589556566,-301.198309274575
738546.46725402143783867359,-21.4363536484878,-13.5615863521226,-301.198309274575
738546.46725411177612841129,-21.4178899502548,-13.5523545030061,-301.13368633076
738546.46725420223083347082,-21.4548173467208,-13.5708182012391,-301.216772972808
738546.46725429268553853035,-21.4178899502548,-13.5523545030061,-301.207541123691
738546.46725438314024358988,-21.4271217993713,-13.5615863521226,-301.124454481643
738546.46725447359494864941,-21.4732810449538,-13.589281899472,-301.161381878109
738546.46725456404965370893,-21.3717307046724,-13.5246589556566,-301.115222632527
738546.46725465450435876846,-21.4640491958373,-13.5985137485885,-301.142918179876
738546.46725474484264850616,-21.3624988555559,-13.5154271065401,-301.115222632527
738546.46725483529735356569,-21.4548173467208,-13.5985137485885,-301.124454481643
738546.46725492575205862522,-21.3717307046724,-13.5246589556566,-301.198309274575
738546.46725501620676368475,-21.4455854976043,-13.589281899472,-301.124454481643
738546.46725510666146874428,-21.3717307046724,-13.5431226538896,-301.170613727226
738546.46725519711617380381,-21.4363536484878,-13.5800500503555,-301.142918179876
738546.46725528757087886333,-21.3901944029054,-13.5615863521226,-301.142918179876
738546.46725537802558392286,-21.4363536484878,-13.5800500503555,-301.142918179876
738546.46725546836387366056,-21.4086581011383,-13.5523545030061,-301.198309274575
738546.46725555881857872009,-21.4363536484878,-13.589281899472,-301.198309274575
738546.46725564927328377962,-21.4363536484878,-13.5985137485885,-301.170613727226
738546.46725573972798883915,-21.4178899502548,-13.589281899472,-301.179845576342
738546.46725583018269389868,-21.4548173467208,-13.6169774468215,-301.207541123691
738546.46725592063739895821,-21.4086581011383,-13.5800500503555,-301.096758934294
738546.46725601109210401773,-21.4548173467208,-13.607745597705,-301.152150028993
738546.46725610143039375544,-21.4086581011383,-13.5800500503555,-301.115222632527
738546.46725619188509881496,-21.4732810449538,-13.6354411450545,-301.124454481643
738546.46725628233980387449,-21.3994262520219,-13.5800500503555,-301.115222632527
738546.46725637279450893402,-21.4732810449538,-13.6354411450545,-301.124454481643
738546.46725646324921399355,-21.4086581011383,-13.5708182012391,-301.087527085177
738546.46725655370391905308,-21.4548173467208,-13.626209295938,-301.152150028993
738546.46725664415862411261,-21.4455854976043,-13.626209295938,-301.179845576342
738546.46725673461332917213,-21.4363536484878,-13.626209295938,-301.189077425459
738546.46725682495161890984,-21.3901944029054,-13.5985137485885,-301.161381878109
738546.46725691540632396936,-21.3624988555559,-13.5985137485885,-301.207541123691
738546.46725700586102902889,-21.3901944029054,-13.6169774468215,-301.207541123691
738546.46725709631573408842,-21.3624988555559,-13.589281899472,-301.041367839595
738546.46725718677043914795,-21.307107760857,-13.5615863521226,-301.096758934294
738546.46725727722514420748,-21.233252967925,-13.4877315591906,-301.207541123691
738546.46725736767984926701,-21.3440351573229,-13.5431226538896,-301.170613727226
738546.46725745801813900471,-21.270180364391,-13.4969634083071,-301.207541123691
738546.46725754847284406424,-21.3809625537889,-13.607745597705,-301.216772972808
738546.46725763892754912376,-21.3440351573229,-13.5615863521226,-301.142918179876
738546.46725772938225418329,-21.4548173467208,-13.6354411450545,-301.189077425459
738546.46725781983695924282,-21.4178899502548,-13.5985137485885,-301.124454481643
738546.46725791029166430235,-21.5286721396527,-13.7000640888699,-301.142918179876
738546.46725800074636936188,-21.4363536484878,-13.626209295938,-301.179845576342
738546.46725809120107442141,-21.5194402905362,-13.6908322397534,-301.161381878109
738546.46725818153936415911,-21.4825128940703,-13.6631366924039,-301.152150028993
738546.46725827199406921864,-21.4825128940703,-13.6539048432875,-301.142918179876
738546.46725836244877427816,-21.5009765923032,-13.6816003906369,-301.142918179876
738546.46725845290347933769,-21.4640491958373,-13.644672994171,-301.216772972808
738546.46725854335818439722,-21.6025269325846,-13.6908322397534,-301.253700369274
738546.46725863381288945675,-21.5563676870022,-13.5615863521226,-301.207541123691
738546.46725872426759451628,-21.4825128940703,-13.3400219733268,-301.115222632527
738546.46725881472229957581,-20.7531968138676,-12.7307199316385,-300.976744895779
738546.46725890506058931351,-20.0146488845485,-12.5645466475417,-300.893658253731
738546.46725899551529437304,-20.1531266212958,-13.0907620471816,-300.939817499313
738546.46725908596999943256,-21.1778618732261,-13.7462233344523,-301.226004821925
738546.46725917642470449209,-21.5009765923032,-13.6816003906369,-301.235236671041
738546.46725926687940955162,-21.6671498764,-13.5800500503555,-301.13368633076
738546.46725935733411461115,-21.4732810449538,-13.4692678609577,-301.179845576342
738546.46725944778881967068,-21.5009765923032,-13.5985137485885,-301.198309274575
738546.46725953812710940838,-21.3994262520219,-13.5615863521226,-301.198309274575
738546.46725962858181446791,-21.4825128940703,-13.644672994171,-301.170613727226
738546.46725971903651952744,-21.3994262520219,-13.5800500503555,-301.189077425459
738546.46725980949122458696,-21.4917447431867,-13.6539048432875,-301.207541123691
738546.46725989994592964649,-21.4086581011383,-13.5800500503555,-301.226004821925
738546.46725999040063470602,-21.4548173467208,-13.626209295938,-301.179845576342
738546.46726008085533976555,-21.4917447431867,-13.644672994171,-301.189077425459
738546.46726017131004482508,-21.3717307046724,-13.5615863521226,-301.207541123691
738546.46726026164833456278,-21.4640491958373,-13.6354411450545,-301.152150028993
738546.46726035210303962231,-21.3717307046724,-13.5615863521226,-301.096758934294
738546.46726044255774468184,-21.4548173467208,-13.607745597705,-301.115222632527
738546.46726053301244974136,-21.3348033082064,-13.4969634083071,-301.087527085177
738546.46726062346715480089,-21.4086581011383,-13.5523545030061,-301.041367839595
738546.46726071392185986042,-21.3163396099734,-13.4784997100742,-301.022904141362
738546.46726080437656491995,-21.3901944029054,-13.5246589556566,-301.078295236061
738546.46726089471485465765,-21.251716666158,-13.3954130680258,-301.152150028993
738546.46726098516955971718,-21.251716666158,-13.3677175206763,-301.170613727226
738546.46726107562426477671,-21.2424848170415,-13.3492538224433,-301.142918179876
738546.46726116607896983624,-21.2424848170415,-13.3215582750938,-301.13368633076
738546.46726125653367489576,-21.1593981749931,-13.2384716330454,-301.13368633076
738546.46726134698837995529,-21.1593981749931,-13.210776085696,-301.096758934294
738546.46726143744308501482,-21.1132389294107,-13.155384990997,-301.078295236061
738546.46726152789779007435,-21.0947752311777,-13.1369212927641,-301.124454481643
738546.46726161823607981205,-21.0855433820612,-13.1276894436476,-301.13368633076
738546.46726170869078487158,-21.0393841364788,-13.0907620471816,-301.004440443129
738546.46726179914548993111,-21.0578478347118,-13.0999938962981,-301.087527085177
738546.46726188960019499063,-21.0393841364788,-13.0907620471816,-301.115222632527
738546.46726198005490005016,-21.1132389294107,-13.1646168401135,-301.096758934294
738546.46726207050960510969,-21.0578478347118,-13.17384868923,-301.050599688711
738546.46726216096431016922,-21.1593981749931,-13.2846308786279,-301.115222632527
738546.46726225130259990692,-21.1409344767602,-13.2938627277444,-301.152150028993
738546.46726234175730496645,-21.2240211188086,-13.3677175206763,-301.170613727226
738546.46726243221201002598,-21.233252967925,-13.4231086153752,-301.13368633076
738546.46726252266671508551,-21.288644062624,-13.4969634083071,-301.170613727226
738546.46726261312142014503,-21.2978759117405,-13.5061952574236,-301.207541123691
738546.46726270357612520456,-21.3255714590899,-13.5246589556566,-301.115222632527
738546.46726279403083026409,-21.3255714590899,-13.5338908047731,-301.152150028993
738546.46726288448553532362,-21.307107760857,-13.5246589556566,-301.078295236061
738546.46726297482382506132,-21.3532670064394,-13.5708182012391,-301.087527085177
738546.46726306527853012085,-21.307107760857,-13.5246589556566,-301.10599078341
738546.46726315573323518038,-21.3809625537889,-13.5800500503555,-301.096758934294
738546.46726324618794023991,-21.3163396099734,-13.5154271065401,-301.124454481643
738546.46726333664264529943,-21.3809625537889,-13.5800500503555,-301.152150028993
738546.46726342709735035896,-21.2978759117405,-13.5061952574236,-301.096758934294
738546.46726351755205541849,-21.3809625537889,-13.5708182012391,-301.096758934294
738546.46726360800676047802,-21.288644062624,-13.4969634083071,-301.124454481643
738546.46726369834505021572,-21.3809625537889,-13.5800500503555,-301.142918179876
738546.46726378879975527525,-21.3255714590899,-13.5338908047731,-301.087527085177
738546.46726387925446033478,-21.3440351573229,-13.5431226538896,-301.161381878109
738546.46726396970916539431,-21.3348033082064,-13.5431226538896,-301.152150028993
738546.46726406016387045383,-21.3163396099734,-13.5338908047731,-301.179845576342
738546.46726415061857551336,-21.3532670064394,-13.5708182012391,-301.069063386944
738546.46726424107328057289,-21.3163396099734,-13.5431226538896,-301.059831537828
738546.46726433141157031059,-21.3901944029054,-13.589281899472,-301.189077425459
738546.46726442186627537012,-21.3163396099734,-13.5431226538896,-301.10599078341
738546.46726451232098042965,-21.3901944029054,-13.607745597705,-301.179845576342
738546.46726460277568548918,-21.3255714590899,-13.5431226538896,-301.179845576342
738546.46726469323039054871,-21.4086581011383,-13.6169774468215,-301.161381878109
738546.46726478368509560823,-21.3348033082064,-13.5523545030061,-301.161381878109
738546.46726487413980066776,-21.4455854976043,-13.6354411450545,-301.216772972808
738546.46726496459450572729,-21.3440351573229,-13.5615863521226,-301.189077425459
738546.46726505493279546499,-21.4271217993713,-13.6354411450545,-301.179845576342
738546.46726514538750052452,-21.3255714590899,-13.5615863521226,-301.189077425459
738546.46726523584220558405,-21.4455854976043,-13.6354411450545,-301.216772972808
738546.46726532629691064358,-21.3348033082064,-13.5523545030061,-301.189077425459
738546.46726541675161570311,-21.4363536484878,-13.626209295938,-301.226004821925
738546.46726550720632076263,-21.3348033082064,-13.5708182012391,-301.207541123691
738546.46726559766102582216,-21.4086581011383,-13.6169774468215,-301.207541123691
738546.46726568799931555986,-21.4178899502548,-13.6354411450545,-301.179845576342
738546.46726577845402061939,-21.3255714590899,-13.5708182012391,-301.189077425459
738546.46726586890872567892,-21.4178899502548,-13.6354411450545,-301.198309274575
738546.46726595936343073845,-21.3255714590899,-13.5615863521226,-301.142918179876
738546.46726604981813579798,-21.4271217993713,-13.644672994171,-301.124454481643
738546.46726614027284085751,-21.3348033082064,-13.5708182012391,-301.115222632527
738546.46726623072754591703,-21.4363536484878,-13.644672994171,-301.10599078341
738546.46726632118225097656,-21.3163396099734,-13.5615863521226,-301.10599078341
738546.46726641152054071426,-21.4086581011383,-13.6354411450545,-301.152150028993
738546.46726650197524577379,-21.270180364391,-13.5431226538896,-301.087527085177
738546.46726659242995083332,-21.3717307046724,-13.6354411450545,-301.10599078341
738546.46726668288465589285,-21.288644062624,-13.5615863521226,-301.142918179876
738546.46726677333936095238,-21.3348033082064,-13.607745597705,-301.124454481643
738546.46726686379406601191,-21.1963255714591,-13.4969634083071,-301.10599078341
738546.46726695424877107143,-21.2794122135075,-13.5431226538896,-301.124454481643
738546.46726704458706080914,-21.270180364391,-13.5154271065401,-301.115222632527
738546.46726713504176586866,-21.307107760857,-13.5708182012391,-301.115222632527
738546.46726722549647092819,-21.3163396099734,-13.5708182012391,-301.161381878109
738546.46726731595117598772,-21.3717307046724,-13.5985137485885,-301.179845576342
738546.46726740640588104725,-21.4178899502548,-13.6169774468215,-301.179845576342
738546.46726749686058610678,-21.3809625537889,-13.589281899472,-301.152150028993
738546.46726758731529116631,-21.4732810449538,-13.6723685415204,-301.152150028993
738546.46726767776999622583,-21.3901944029054,-13.5985137485885,-301.124454481643
738546.46726776810828596354,-21.4732810449538,-13.6631366924039,-301.059831537828
738546.46726785856299102306,-21.4086581011383,-13.6169774468215,-301.13368633076
738546.46726794901769608259,-21.5009765923032,-13.6723685415204,-301.115222632527
738546.46726803947240114212,-21.3994262520219,-13.607745597705,-301.198309274575
738546.46726812992710620165,-21.5194402905362,-13.6631366924039,-301.152150028993
738546.46726822038181126118,-21.5379039887692,-13.5800500503555,-301.170613727226
738546.46726831083651632071,-21.4825128940703,-13.4323404644917,-301.078295236061
738546.46726840129122138023,-20.9470656453139,-12.9522843104343,-300.976744895779
738546.46726849162951111794,-20.1161992248299,-12.5922421948912,-300.829035309915
738546.46726858208421617746,-19.8854029969176,-12.9338206122013,-300.92135380108
738546.46726867253892123699,-20.9101382488479,-13.5523545030061,-301.096758934294
738546.46726876299362629652,-21.4086581011383,-13.6631366924039,-301.170613727226
738546.46726885344833135605,-21.5379039887692,-13.4877315591906,-301.161381878109
738546.46726894390303641558,-21.5102084414197,-13.4877315591906,-301.179845576342
738546.46726903435774147511,-21.3901944029054,-13.4969634083071,-301.198309274575
738546.46726912469603121281,-21.4455854976043,-13.5985137485885,-301.170613727226
738546.46726921515073627234,-21.3809625537889,-13.5523545030061,-301.189077425459
738546.46726930560544133186,-21.4548173467208,-13.6169774468215,-301.179845576342
738546.46726939606014639139,-21.3901944029054,-13.5708182012391,-301.161381878109
738546.46726948651485145092,-21.4271217993713,-13.607745597705,-301.152150028993
738546.46726957696955651045,-21.3901944029054,-13.5708182012391,-301.198309274575
738546.46726966742426156998,-21.4086581011383,-13.5708182012391,-301.226004821925
738546.46726975787896662951,-21.3901944029054,-13.5708182012391,-301.115222632527
738546.46726984821725636721,-21.3809625537889,-13.5523545030061,-301.207541123691
738546.46726993867196142673,-21.3901944029054,-13.5615863521226,-301.179845576342
738546.46727002912666648626,-21.3440351573229,-13.5246589556566,-301.152150028993
738546.46727011958137154579,-21.3624988555559,-13.5431226538896,-301.189077425459
738546.46727021003607660532,-21.307107760857,-13.4784997100742,-301.216772972808
738546.46727030049078166485,-21.3532670064394,-13.5154271065401,-301.189077425459
738546.46727039094548672438,-21.2609485152745,-13.4323404644917,-301.087527085177
738546.46727048128377646208,-21.3255714590899,-13.4600360118412,-301.161381878109
738546.46727057173848152161,-21.2055574205756,-13.3492538224433,-301.142918179876
738546.46727066219318658113,-21.270180364391,-13.3861812189093,-301.10599078341
738546.46727075264789164066,-21.1317026276437,-13.2569353312784,-301.13368633076
738546.46727084310259670019,-21.233252967925,-13.3215582750938,-301.115222632527
738546.46727093355730175972,-21.0763115329447,-13.1830805383465,-301.10599078341
738546.46727102401200681925,-21.1132389294107,-13.17384868923,-301.041367839595
738546.46727111446671187878,-21.0024567400128,-13.0815301980651,-301.087527085177
738546.46727120480500161648,-21.1317026276437,-13.1830805383465,-301.022904141362
738546.46727129525970667601,-21.0947752311777,-13.155384990997,-300.893658253731
738546.46727138571441173553,-21.0209204382458,-13.0999938962981,-300.976744895779
738546.46727147616911679506,-21.0855433820612,-13.155384990997,-300.976744895779
738546.46727156662382185459,-21.0024567400128,-13.1092257454146,-300.976744895779
738546.46727165707852691412,-21.1040070802942,-13.2200079348125,-301.004440443129
738546.46727174753323197365,-21.0578478347118,-13.2015442365795,-301.004440443129
738546.46727183787152171135,-21.1870937223426,-13.3307901242103,-301.032135990478
738546.46727192832622677088,-21.1224707785272,-13.3215582750938,-301.096758934294
738546.46727201878093183041,-21.270180364391,-13.4508041627247,-301.115222632527
738546.46727210923563688993,-21.1963255714591,-13.4046449171422,-301.10599078341
738546.46727219969034194946,-21.3532670064394,-13.5246589556566,-301.142918179876
738546.46727229014504700899,-21.251716666158,-13.4600360118412,-301.152150028993
738546.46727238059975206852,-21.3624988555559,-13.5615863521226,-301.096758934294
738546.46727247105445712805,-21.288644062624,-13.4969634083071,-301.124454481643
738546.46727256139274686575,-21.3901944029054,-13.5800500503555,-301.087527085177
738546.46727265184745192528,-21.307107760857,-13.5061952574236,-301.142918179876
738546.46727274230215698481,-21.3809625537889,-13.5615863521226,-301.142918179876
738546.46727283275686204433,-21.2978759117405,-13.5061952574236,-301.161381878109
738546.46727292321156710386,-21.3624988555559,-13.5523545030061,-301.115222632527
738546.46727301366627216339,-21.3255714590899,-13.5246589556566,-301.115222632527
738546.46727310412097722292,-21.288644062624,-13.4969634083071,-301.13368633076
738546.46727319445926696062,-21.3901944029054,-13.5615863521226,-301.13368633076
738546.46727328491397202015,-21.270180364391,-13.4600360118412,-301.161381878109
738546.46727337536867707968,-21.3809625537889,-13.5615863521226,-301.216772972808
738546.46727346582338213921,-21.2978759117405,-13.4877315591906,-301.10599078341
738546.46727355627808719873,-21.3809625537889,-13.5523545030061,-301.189077425459
738546.46727364673279225826,-21.2978759117405,-13.4969634083071,-301.161381878109
738546.46727373718749731779,-21.3717307046724,-13.5523545030061,-301.152150028993
738546.46727382764220237732,-21.2978759117405,-13.4969634083071,-301.179845576342
738546.46727391798049211502,-21.3901944029054,-13.5615863521226,-301.216772972808
738546.46727400843519717455,-21.3440351573229,-13.5246589556566,-301.198309274575
738546.46727409888990223408,-21.3901944029054,-13.5708182012391,-301.115222632527
738546.46727418934460729361,-21.3532670064394,-13.5338908047731,-301.179845576342
738546.46727427979931235313,-21.3717307046724,-13.5523545030061,-301.198309274575
738546.46727437025401741266,-21.3624988555559,-13.5431226538896,-301.124454481643
738546.46727446070872247219,-21.3901944029054,-13.5708182012391,-301.179845576342
738546.46727455116342753172,-21.3994262520219,-13.5615863521226,-301.179845576342
738546.46727464150171726942,-21.3901944029054,-13.5615863521226,-301.087527085177
738546.46727473195642232895,-21.4455854976043,-13.5985137485885,-300.939817499313
738546.46727482241112738848,-21.3901944029054,-13.5615863521226,-301.050599688711
738546.46727491286583244801,-21.4363536484878,-13.5985137485885,-301.096758934294
738546.46727500332053750753,-21.3717307046724,-13.5523545030061,-301.096758934294
738546.46727509377524256706,-21.4455854976043,-13.607745597705,-301.170613727226
738546.46727518422994762659,-21.3717307046724,-13.5523545030061,-301.207541123691
738546.46727527456823736429,-21.4363536484878,-13.589281899472,-301.152150028993
738546.46727536502294242382,-21.3901944029054,-13.5615863521226,-301.207541123691
738546.46727545547764748335,-21.4363536484878,-13.5985137485885,-301.235236671041
738546.46727554593235254288,-21.3994262520219,-13.5615863521226,-301.152150028993
738546.46727563638705760241,-21.3994262520219,-13.5523545030061,-301.207541123691
738546.46727572684176266193,-21.3994262520219,-13.5615863521226,-301.216772972808
738546.46727581729646772146,-21.3994262520219,-13.5708182012391,-301.179845576342
738546.46727590775117278099,-21.4548173467208,-13.6169774468215,-301.161381878109
738546.46727599808946251869,-21.4086581011383,-13.5800500503555,-301.216772972808
738546.46727608854416757822,-21.4271217993713,-13.589281899472,-301.189077425459
738546.46727617899887263775,-21.3901944029054,-13.5615863521226,-301.13368633076
738546.46727626945357769728,-21.4825128940703,-13.644672994171,-301.207541123691
738546.46727635990828275681,-21.3532670064394,-13.5246589556566,-301.170613727226
738546.46727645036298781633,-21.4640491958373,-13.626209295938,-301.115222632527
738546.46727654081769287586,-21.3255714590899,-13.5338908047731,-301.170613727226
738546.46727663115598261356,-21.4086581011383,-13.626209295938,-301.142918179876
738546.46727672161068767309,-21.3163396099734,-13.5431226538896,-301.161381878109
738546.46727681206539273262,-21.3901944029054,-13.5800500503555,-301.179845576342
738546.46727690252009779215,-21.3348033082064,-13.5523545030061,-301.10599078341
738546.46727699297480285168,-21.270180364391,-13.4877315591906,-301.096758934294
738546.46727708342950791121,-21.2978759117405,-13.4784997100742,-301.096758934294
738546.46727717388421297073,-21.2978759117405,-13.4692678609577,-301.152150028993
738546.46727726433891803026,-21.3809625537889,-13.5523545030061,-301.13368633076
738546.46727735467720776796,-21.3809625537889,-13.5431226538896,-301.142918179876
738546.46727744513191282749,-21.4640491958373,-13.5985137485885,-301.13368633076
738546.46727753558661788702,-21.4271217993713,-13.5708182012391,-301.13368633076
738546.46727762604132294655,-21.5194402905362,-13.6354411450545,-301.207541123691
738546.46727771649602800608,-21.4363536484878,-13.5800500503555,-301.235236671041
738546.46727780695073306561,-21.5471358378857,-13.6539048432875,-301.235236671041
738546.46727789740543812513,-21.4271217993713,-13.5615863521226,-301.161381878109
738546.46727798774372786283,-21.5194402905362,-13.6354411450545,-301.179845576342
738546.46727807819843292236,-21.4455854976043,-13.5800500503555,-301.244468520157
738546.46727816865313798189,-21.5655995361187,-13.6539048432875,-301.235236671041
738546.46727825910784304142,-21.5748313852351,-13.5708182012391,-301.022904141362
738546.46727834956254810095,-21.6209906308176,-13.5338908047731,-301.13368633076
738546.46727844001725316048,-21.2055574205756,-13.0630664998321,-301.096758934294
738546.46727853047195822001,-20.5224005859554,-12.6476332895901,-300.884426404614
738546.46727862092666327953,-19.7469252601703,-12.6845606860561,-300.912121951964
738546.46727871126495301723,-20.0146488845485,-12.9892117069002,-300.976744895779
738546.46727880171965807676,-21.0855433820612,-13.6169774468215,-301.142918179876
738546.46727889217436313629,-21.4548173467208,-13.5800500503555,-301.179845576342
738546.46727898262906819582,-21.6486861781671,-13.5061952574236,-301.179845576342
738546.46727907308377325535,-21.4732810449538,-13.4138767662587,-301.13368633076
738546.46727916353847831488,-21.5194402905362,-13.5523545030061,-301.087527085177
738546.46727925399318337440,-21.4086581011383,-13.5154271065401,-301.096758934294
738546.46727934444788843393,-21.5102084414197,-13.607745597705,-301.115222632527
738546.46727943478617817163,-21.4086581011383,-13.5338908047731,-301.115222632527
738546.46727952524088323116,-21.5009765923032,-13.5985137485885,-301.124454481643
738546.46727961569558829069,-21.4086581011383,-13.5338908047731,-301.142918179876
738546.46727970615029335022,-21.4732810449538,-13.5800500503555,-301.161381878109
738546.46727979660499840975,-21.3994262520219,-13.5246589556566,-301.13368633076
738546.46727988705970346928,-21.4732810449538,-13.5615863521226,-301.170613727226
738546.46727997751440852880,-21.4086581011383,-13.5154271065401,-301.13368633076
738546.46728006785269826651,-21.4363536484878,-13.5431226538896,-301.142918179876
738546.46728015830740332603,-21.3901944029054,-13.5061952574236,-301.161381878109
738546.46728024876210838556,-21.3994262520219,-13.5061952574236,-301.152150028993
738546.46728033921681344509,-21.3717307046724,-13.4784997100742,-301.096758934294
738546.46728042967151850462,-21.3440351573229,-13.4508041627247,-301.10599078341
738546.46728052012622356415,-21.3532670064394,-13.4415723136082,-301.10599078341
738546.46728061058092862368,-21.288644062624,-13.3769493697928,-301.142918179876
738546.46728070103563368320,-21.3532670064394,-13.4138767662587,-301.124454481643
738546.46728079137392342091,-21.2240211188086,-13.3030945768609,-301.087527085177
738546.46728088182862848043,-21.270180364391,-13.3030945768609,-301.124454481643
738546.46728097228333353996,-21.1593981749931,-13.210776085696,-301.096758934294
738546.46728106273803859949,-21.1870937223426,-13.2200079348125,-301.022904141362
738546.46728115319274365902,-21.0855433820612,-13.1276894436476,-301.087527085177
738546.46728124364744871855,-21.1132389294107,-13.1184575945311,-301.087527085177
738546.46728133410215377808,-21.0578478347118,-13.0630664998321,-301.032135990478
738546.46728142444044351578,-21.0670796838282,-13.0630664998321,-301.041367839595
738546.46728151489514857531,-21.0301522873623,-13.0630664998321,-301.004440443129
738546.46728160534985363483,-21.0393841364788,-13.0630664998321,-301.032135990478
738546.46728169580455869436,-21.0763115329447,-13.1276894436476,-301.032135990478
738546.46728178625926375389,-21.0763115329447,-13.1461531418805,-300.958281197546
738546.46728187671396881342,-21.1501663258766,-13.2384716330454,-301.041367839595
738546.46728196716867387295,-21.1317026276437,-13.2569353312784,-301.078295236061
738546.46728205762337893248,-21.251716666158,-13.3769493697928,-301.124454481643
738546.46728214796166867018,-21.2240211188086,-13.3584856715598,-301.078295236061
738546.46728223841637372971,-21.3255714590899,-13.4600360118412,-301.087527085177
738546.46728232887107878923,-21.2609485152745,-13.4323404644917,-301.087527085177
738546.46728241932578384876,-21.3717307046724,-13.5246589556566,-301.078295236061
738546.46728250978048890829,-21.3255714590899,-13.4784997100742,-301.10599078341
738546.46728260023519396782,-21.3532670064394,-13.5061952574236,-301.161381878109
738546.46728269068989902735,-21.3440351573229,-13.5061952574236,-301.142918179876
738546.46728278102818876505,-21.3440351573229,-13.5061952574236,-301.170613727226
738546.46728287148289382458,-21.3717307046724,-13.5246589556566,-301.216772972808
738546.46728296193759888411,-21.3348033082064,-13.4969634083071,-301.198309274575
738546.46728305239230394363,-21.3624988555559,-13.5246589556566,-301.189077425459
738546.46728314284700900316,-21.307107760857,-13.4784997100742,-301.152150028993
738546.46728323330171406269,-21.3809625537889,-13.5338908047731,-301.179845576342
738546.46728332375641912222,-21.307107760857,-13.4692678609577,-301.13368633076
738546.46728341421112418175,-21.3809625537889,-13.5338908047731,-301.179845576342
738546.46728350454941391945,-21.288644062624,-13.4600360118412,-301.216772972808
738546.46728359500411897898,-21.3717307046724,-13.5431226538896,-301.198309274575
738546.46728368545882403851,-21.2794122135075,-13.4600360118412,-301.115222632527
738546.46728377591352909803,-21.3901944029054,-13.5431226538896,-301.050599688711
738546.46728386636823415756,-21.288644062624,-13.4692678609577,-301.087527085177
738546.46728395682293921709,-21.3901944029054,-13.5431226538896,-301.096758934294
738546.46728404727764427662,-21.288644062624,-13.4692678609577,-301.115222632527
738546.46728413773234933615,-21.3994262520219,-13.5523545030061,-301.115222632527
738546.46728422807063907385,-21.307107760857,-13.4784997100742,-301.124454481643
738546.46728431852534413338,-21.3348033082064,-13.4969634083071,-301.124454481643
738546.46728440898004919291,-21.3901944029054,-13.5523545030061,-301.124454481643
738546.46728449943475425243,-21.3255714590899,-13.4969634083071,-301.115222632527
738546.46728458988945931196,-21.4086581011383,-13.5615863521226,-301.124454481643
738546.46728468034416437149,-21.3163396099734,-13.4969634083071,-301.13368633076
738546.46728477079886943102,-21.4086581011383,-13.5708182012391,-301.152150028993
738546.46728486113715916872,-21.3163396099734,-13.4969634083071,-301.152150028993
738546.46728495159186422825,-21.4178899502548,-13.5800500503555,-301.198309274575
738546.46728504204656928778,-21.3255714590899,-13.4969634083071,-301.170613727226
738546.46728513250127434731,-21.4271217993713,-13.5800500503555,-301.124454481643
738546.46728522295597940683,-21.3440351573229,-13.5061952574236,-301.142918179876
738546.46728531341068446636,-21.4271217993713,-13.5800500503555,-300.995208594012
738546.46728540386538952589,-21.3255714590899,-13.5061952574236,-301.013672292245
738546.46728549432009458542,-21.3901944029054,-13.5431226538896,-301.096758934294
738546.46728558465838432312,-21.3440351573229,-13.5246589556566,-301.115222632527
738546.46728567511308938265,-21.4178899502548,-13.5708182012391,-301.115222632527
738546.46728576556779444218,-21.3440351573229,-13.5246589556566,-301.059831537828
738546.46728585602249950171,-21.4086581011383,-13.5523545030061,-301.161381878109
738546.46728594647720456123,-21.3717307046724,-13.5431226538896,-301.198309274575
738546.46728603693190962076,-21.4178899502548,-13.5800500503555,-301.115222632527
738546.46728612738661468029,-21.3994262520219,-13.5708182012391,-301.189077425459
738546.46728621772490441799,-21.3532670064394,-13.5338908047731,-301.216772972808
738546.46728630817960947752,-21.4363536484878,-13.5985137485885,-301.170613727226
738546.46728639863431453705,-21.3348033082064,-13.5154271065401,-301.170613727226
738546.46728648908901959658,-21.4455854976043,-13.5985137485885,-301.189077425459
738546.46728657954372465611,-21.3532670064394,-13.5246589556566,-301.207541123691
738546.46728666999842971563,-21.4178899502548,-13.5800500503555,-301.142918179876
738546.46728676045313477516,-21.3440351573229,-13.5246589556566,-301.179845576342
738546.46728685090783983469,-21.4086581011383,-13.5708182012391,-301.170613727226
738546.46728694124612957239,-21.3624988555559,-13.5431226538896,-301.124454481643
738546.46728703170083463192,-21.4271217993713,-13.589281899472,-301.226004821925
738546.46728712215553969145,-21.3717307046724,-13.5523545030061,-301.216772972808
738546.46728721261024475098,-21.3994262520219,-13.5708182012391,-301.198309274575
738546.46728730306494981050,-21.3624988555559,-13.5431226538896,-301.170613727226
738546.46728739351965487003,-21.3624988555559,-13.5431226538896,-301.170613727226
738546.46728748397435992956,-21.3624988555559,-13.5615863521226,-301.179845576342
738546.46728757431264966726,-21.307107760857,-13.5246589556566,-301.152150028993
738546.46728766476735472679,-21.3255714590899,-13.5338908047731,-301.216772972808
738546.46728775522205978632,-21.2978759117405,-13.5061952574236,-301.179845576342
738546.46728784567676484585,-21.3163396099734,-13.5246589556566,-301.10599078341
738546.46728793613146990538,-21.2055574205756,-13.4231086153752,-301.142918179876
738546.46728802658617496490,-21.2794122135075,-13.4784997100742,-301.087527085177
738546.46728811704088002443,-21.233252967925,-13.4231086153752,-301.13368633076
738546.46728820749558508396,-21.288644062624,-13.4784997100742,-301.152150028993
738546.46728829783387482166,-21.2978759117405,-13.4784997100742,-301.179845576342
738546.46728838828857988119,-21.3624988555559,-13.5246589556566,-301.152150028993
738546.46728847874328494072,-21.3717307046724,-13.5431226538896,-301.170613727226
738546.46728856919799000025,-21.4271217993713,-13.5800500503555,-301.179845576342
738546.46728865965269505978,-21.4455854976043,-13.589281899472,-301.170613727226
738546.46728875010740011930,-21.4178899502548,-13.5708182012391,-301.161381878109
738546.46728884056210517883,-21.4548173467208,-13.5985137485885,-301.087527085177
738546.46728893101681023836,-21.4271217993713,-13.5708182012391,-301.022904141362
738546.46728902135509997606,-21.4640491958373,-13.607745597705,-301.142918179876
738546.46728911180980503559,-21.4271217993713,-13.5708182012391,-301.124454481643
738546.46728920226451009512,-21.5840632343516,-13.6169774468215,-301.161381878109
738546.46728929271921515465,-21.5286721396527,-13.4784997100742,-301.142918179876
738546.46728938317392021418,-21.4178899502548,-13.2569353312784,-301.142918179876
738546.46728947362862527370,-20.7347331156346,-12.6753288369396,-300.930585650197
738546.46728956408333033323,-19.9592577898495,-12.5922421948912,-300.819803460799
738546.46728965442162007093,-20.0977355265969,-13.0538346507157,-300.893658253731
738546.46728974487632513046,-21.1040070802942,-13.6354411450545,-301.050599688711
738546.46728983533103018999,-21.4548173467208,-13.5523545030061,-301.087527085177
738546.46728992578573524952,-21.5471358378857,-13.4784997100742,-301.078295236061
738546.46729001624044030905,-21.5102084414197,-13.4323404644917,-301.078295236061
738546.46729010669514536858,-21.4178899502548,-13.4323404644917,-301.096758934294
738546.46729019714985042810,-21.4548173467208,-13.5431226538896,-301.124454481643
738546.46729028760455548763,-21.3809625537889,-13.4969634083071,-301.152150028993
738546.46729037794284522533,-21.4548173467208,-13.5615863521226,-301.216772972808
738546.46729046839755028486,-21.3624988555559,-13.4877315591906,-301.216772972808
738546.46729055885225534439,-21.4732810449538,-13.5800500503555,-301.179845576342
738546.46729064930696040392,-21.3717307046724,-13.4969634083071,-301.189077425459
738546.46729073976166546345,-21.4548173467208,-13.5615863521226,-301.216772972808
738546.46729083021637052298,-21.3255714590899,-13.4600360118412,-301.161381878109
738546.46729092067107558250,-21.4455854976043,-13.5523545030061,-301.189077425459
738546.46729101100936532021,-21.3348033082064,-13.4508041627247,-301.161381878109
738546.46729110146407037973,-21.4271217993713,-13.5338908047731,-301.161381878109
738546.46729119191877543926,-21.307107760857,-13.4323404644917,-301.142918179876
738546.46729128237348049879,-21.3901944029054,-13.4877315591906,-301.170613727226
738546.46729137282818555832,-21.270180364391,-13.3861812189093,-301.170613727226
738546.46729146328289061785,-21.3348033082064,-13.4138767662587,-301.115222632527
738546.46729155373759567738,-21.2424848170415,-13.3307901242103,-301.142918179876
738546.46729164419230073690,-21.270180364391,-13.3307901242103,-301.087527085177
738546.46729173453059047461,-21.2055574205756,-13.2661671803949,-301.032135990478
738546.46729182498529553413,-21.1686300241096,-13.2200079348125,-300.995208594012
738546.46729191544000059366,-21.2240211188086,-13.2384716330454,-301.032135990478
738546.46729200589470565319,-21.1040070802942,-13.1092257454146,-301.050599688711
738546.46729209634941071272,-21.1593981749931,-13.1184575945311,-301.022904141362
738546.46729218680411577225,-21.0209204382458,-13.0076754051332,-301.041367839595
738546.46729227725882083178,-21.1132389294107,-13.0538346507157,-301.022904141362
738546.46729236759711056948,-20.9839930417798,-12.9430524613178,-300.967513046663
738546.46729245805181562901,-21.0670796838282,-13.0076754051332,-300.958281197546
738546.46729254850652068853,-20.9747611926634,-12.9522843104343,-301.022904141362
738546.46729263896122574806,-21.0578478347118,-13.0353709524827,-300.985976744896
738546.46729272941593080759,-20.9932248908963,-13.0261391033662,-300.976744895779
738546.46729281987063586712,-21.1040070802942,-13.1369212927641,-301.059831537828
738546.46729291032534092665,-21.0670796838282,-13.1461531418805,-301.087527085177
738546.46729300078004598618,-21.1686300241096,-13.2569353312784,-301.124454481643
738546.46729309111833572388,-21.1593981749931,-13.2846308786279,-301.096758934294
738546.46729318157304078341,-21.233252967925,-13.3584856715598,-301.069063386944
738546.46729327202774584293,-21.251716666158,-13.3861812189093,-301.069063386944
738546.46729336248245090246,-21.2609485152745,-13.3954130680258,-301.087527085177
738546.46729345293715596199,-21.2978759117405,-13.4415723136082,-301.115222632527
738546.46729354339186102152,-21.307107760857,-13.4508041627247,-301.142918179876
738546.46729363384656608105,-21.3717307046724,-13.4969634083071,-301.170613727226
738546.46729372430127114058,-21.2794122135075,-13.4231086153752,-301.124454481643
738546.46729381463956087828,-21.3717307046724,-13.4877315591906,-301.10599078341
738546.46729390509426593781,-21.288644062624,-13.4415723136082,-301.069063386944
738546.46729399554897099733,-21.3624988555559,-13.4877315591906,-301.078295236061
738546.46729408600367605686,-21.2978759117405,-13.4323404644917,-301.096758934294
738546.46729417645838111639,-21.3440351573229,-13.4784997100742,-301.096758934294
738546.46729426691308617592,-21.288644062624,-13.4323404644917,-301.078295236061
738546.46729435736779123545,-21.3255714590899,-13.4600360118412,-301.078295236061
738546.46729444770608097315,-21.3163396099734,-13.4508041627247,-301.087527085177
738546.46729453816078603268,-21.288644062624,-13.4231086153752,-301.041367839595
738546.46729462861549109221,-21.3348033082064,-13.4692678609577,-301.124454481643
738546.46729471907019615173,-21.307107760857,-13.4508041627247,-301.142918179876
738546.46729480952490121126,-21.3348033082064,-13.4784997100742,-301.115222632527
738546.46729489997960627079,-21.288644062624,-13.4323404644917,-301.152150028993
738546.46729499043431133032,-21.3624988555559,-13.5061952574236,-301.152150028993
738546.46729508088901638985,-21.2978759117405,-13.4508041627247,-301.179845576342
738546.46729517122730612755,-21.3809625537889,-13.5154271065401,-301.152150028993
738546.46729526168201118708,-21.2978759117405,-13.4415723136082,-301.170613727226
738546.46729535213671624660,-21.3809625537889,-13.5154271065401,-301.161381878109
738546.46729544259142130613,-21.2794122135075,-13.4415723136082,-301.10599078341
738546.46729553304612636566,-21.3532670064394,-13.4969634083071,-301.115222632527
738546.46729562350083142519,-21.3532670064394,-13.4969634083071,-301.161381878109
738546.46729571395553648472,-21.3440351573229,-13.4784997100742,-301.198309274575
738546.46729580429382622242,-21.3717307046724,-13.5061952574236,-301.124454481643
738546.46729589474853128195,-21.3440351573229,-13.4877315591906,-301.115222632527
738546.46729598520323634148,-21.4086581011383,-13.5431226538896,-301.059831537828
738546.46729607565794140100,-21.3532670064394,-13.4877315591906,-301.142918179876
738546.46729616611264646053,-21.4086581011383,-13.5431226538896,-301.179845576342
738546.46729625656735152006,-21.3532670064394,-13.4877315591906,-301.198309274575
738546.46729634702205657959,-21.4363536484878,-13.5523545030061,-301.189077425459
738546.46729643747676163912,-21.3532670064394,-13.4877315591906,-301.161381878109
738546.46729652781505137682,-21.4178899502548,-13.5338908047731,-301.207541123691
738546.46729661826975643635,-21.3348033082064,-13.4784997100742,-301.179845576342
738546.46729670872446149588,-21.4548173467208,-13.5708182012391,-301.13368633076
738546.46729679917916655540,-21.3255714590899,-13.4692678609577,-301.170613727226
738546.46729688963387161493,-21.4548173467208,-13.5708182012391,-301.189077425459
738546.46729698008857667446,-21.3532670064394,-13.4877315591906,-301.10599078341
738546.46729707054328173399,-21.4455854976043,-13.5615863521226,-301.170613727226
738546.46729716088157147169,-21.3532670064394,-13.4969634083071,-301.198309274575
738546.46729725133627653122,-21.4363536484878,-13.5708182012391,-301.10599078341
738546.46729734179098159075,-21.3624988555559,-13.5154271065401,-301.115222632527
738546.46729743224568665028,-21.3717307046724,-13.5061952574236,-301.13368633076
738546.46729752270039170980,-21.4455854976043,-13.5708182012391,-301.115222632527
738546.46729761315509676933,-21.3532670064394,-13.4969634083071,-301.152150028993
738546.46729770360980182886,-21.4548173467208,-13.5708182012391,-301.142918179876
738546.46729779406450688839,-21.3624988555559,-13.4969634083071,-301.087527085177
738546.46729788440279662609,-21.4548173467208,-13.5708182012391,-301.096758934294
738546.46729797485750168562,-21.3532670064394,-13.4877315591906,-301.096758934294
738546.46729806531220674515,-21.4548173467208,-13.5708182012391,-301.13368633076
738546.46729815576691180468,-21.3624988555559,-13.4877315591906,-301.115222632527
738546.46729824622161686420,-21.4640491958373,-13.5615863521226,-301.115222632527
738546.46729833667632192373,-21.3717307046724,-13.4969634083071,-301.115222632527
738546.46729842713102698326,-21.4548173467208,-13.5615863521226,-301.152150028993
738546.46729851758573204279,-21.3809625537889,-13.5061952574236,-301.124454481643
738546.46729860792402178049,-21.4455854976043,-13.5523545030061,-301.078295236061
738546.46729869837872684002,-21.3717307046724,-13.5061952574236,-301.10599078341
738546.46729878883343189955,-21.4271217993713,-13.5431226538896,-301.096758934294
738546.46729887928813695908,-21.3624988555559,-13.4969634083071,-301.10599078341
738546.46729896974284201860,-21.3717307046724,-13.5246589556566,-301.10599078341
738546.46729906019754707813,-21.3348033082064,-13.5061952574236,-301.115222632527
738546.46729915065225213766,-21.3532670064394,-13.4969634083071,-301.152150028993
738546.46729924099054187536,-21.3994262520219,-13.5338908047731,-301.161381878109
738546.46729933144524693489,-21.2424848170415,-13.4231086153752,-301.161381878109
738546.46729942189995199442,-21.3163396099734,-13.4508041627247,-301.087527085177
738546.46729951235465705395,-21.233252967925,-13.3677175206763,-301.004440443129
738546.46729960280936211348,-21.3440351573229,-13.4600360118412,-301.152150028993
738546.46729969326406717300,-21.2794122135075,-13.4415723136082,-301.13368633076
738546.46729978371877223253,-21.4086581011383,-13.5154271065401,-301.142918179876
738546.46729987417347729206,-21.3532670064394,-13.4692678609577,-301.170613727226
738546.46729996451176702976,-21.4548173467208,-13.5615863521226,-301.189077425459
738546.46730005496647208929,-21.4271217993713,-13.5431226538896,-301.152150028993
738546.46730014542117714882,-21.4640491958373,-13.5615863521226,-301.170613727226
738546.46730023587588220835,-21.4455854976043,-13.5523545030061,-301.189077425459
738546.46730032633058726788,-21.4548173467208,-13.5615863521226,-301.13368633076
738546.46730041678529232740,-21.4455854976043,-13.5615863521226,-301.161381878109
738546.46730050723999738693,-21.4455854976043,-13.5523545030061,-301.198309274575
738546.46730059757828712463,-21.5102084414197,-13.5708182012391,-301.13368633076
738546.46730068803299218416,-21.5840632343516,-13.4969634083071,-301.161381878109
738546.46730077848769724369,-21.5379039887692,-13.3492538224433,-301.078295236061
738546.46730086894240230322,-21.0393841364788,-12.8230384228034,-300.94904934843
738546.46730095939710736275,-20.2639088106937,-12.5276192510758,-300.838267159032
738546.46730104985181242228,-19.8392437513352,-12.8322702719199,-300.810571611682
738546.46730114030651748180,-20.383922849208,-13.229239783929,-300.939817499313
738546.46730123076122254133,-21.1317026276437,-13.5800500503555,-301.096758934294
738546.46730132109951227903,-21.5379039887692,-13.5061952574236,-301.115222632527
738546.46730141155421733856,-21.5379039887692,-13.3861812189093,-301.096758934294
738546.46730150200892239809,-21.4640491958373,-13.4046449171422,-301.087527085177
738546.46730159246362745762,-21.4363536484878,-13.4784997100742,-301.10599078341
738546.46730168291833251715,-21.4178899502548,-13.4784997100742,-301.096758934294
738546.46730177337303757668,-21.4548173467208,-13.5246589556566,-301.10599078341
738546.46730186382774263620,-21.4271217993713,-13.4969634083071,-301.124454481643
738546.46730195416603237391,-21.4548173467208,-13.5338908047731,-301.124454481643
738546.46730204462073743343,-21.3901944029054,-13.4784997100742,-301.152150028993
738546.46730213507544249296,-21.4548173467208,-13.5246589556566,-301.152150028993
738546.46730222553014755249,-21.3624988555559,-13.4415723136082,-301.069063386944
738546.46730231598485261202,-21.4548173467208,-13.5154271065401,-301.124454481643
738546.46730240643955767155,-21.3532670064394,-13.4415723136082,-301.087527085177
738546.46730249689426273108,-21.4178899502548,-13.4877315591906,-301.10599078341
738546.46730258734896779060,-21.3255714590899,-13.4046449171422,-301.124454481643
738546.46730267768725752831,-21.3994262520219,-13.4600360118412,-301.124454481643
738546.46730276814196258783,-21.2794122135075,-13.3584856715598,-301.10599078341
738546.46730285859666764736,-21.3717307046724,-13.4046449171422,-301.050599688711
738546.46730294905137270689,-21.3255714590899,-13.3677175206763,-300.985976744896
738546.46730303950607776642,-21.2609485152745,-13.2938627277444,-300.92135380108
738546.46730312996078282595,-21.288644062624,-13.2938627277444,-301.032135990478
738546.46730322041548788548,-21.2055574205756,-13.210776085696,-301.032135990478
738546.46730331087019294500,-21.233252967925,-13.2015442365795,-301.013672292245
738546.46730340120848268270,-21.1317026276437,-13.0999938962981,-301.069063386944
738546.46730349166318774223,-21.1778618732261,-13.1184575945311,-301.087527085177
738546.46730358211789280176,-21.0670796838282,-12.9892117069002,-300.995208594012
738546.46730367257259786129,-21.1409344767602,-13.0353709524827,-301.050599688711
738546.46730376302730292082,-21.0116885891293,-12.9338206122013,-301.096758934294
738546.46730385348200798035,-21.0947752311777,-12.9892117069002,-301.069063386944
738546.46730394393671303988,-20.9747611926634,-12.8968932157353,-301.041367839595
738546.46730403427500277758,-21.0763115329447,-12.9892117069002,-301.087527085177
738546.46730412472970783710,-21.0024567400128,-12.9615161595508,-301.078295236061
738546.46730421518441289663,-21.1224707785272,-13.0907620471816,-301.032135990478
738546.46730430563911795616,-21.0670796838282,-13.0815301980651,-301.078295236061
738546.46730439609382301569,-21.1870937223426,-13.210776085696,-301.115222632527
738546.46730448654852807522,-21.1593981749931,-13.229239783929,-301.124454481643
738546.46730457700323313475,-21.251716666158,-13.3215582750938,-301.124454481643
738546.46730466745793819427,-21.2424848170415,-13.3307901242103,-301.115222632527
