time_dn,ecg_projection_ll_ra_mV,ecg_projection_la_ra_mV,ecg_projection_vx_rl_mV
738234.56255036091897636652,5.8714560380871,0.849330118717002,341.615344706565
738234.56255045137368142605,6.24073000274667,1.32938627277444,341.23376160975
738234.56255054182838648558,6.67154962818283,1.698660237434,340.65523239845
738234.56255063228309154510,6.22842087059135,0.849330118717002,340.605995869828
738234.56255072262138128281,5.78529211299987,0.283110039572334,340.802941984313
738234.56255081307608634233,5.63758252713604,0.356964832504247,341.159906816818
738234.56255090353079140186,5.6129642628254,0.529292682678711,341.430707724235
738234.56255099398549646139,5.72374645222327,0.6523840042319,341.393780327769
738234.56255108444020152092,5.73605558437859,0.701620532853175,341.529180781477
738234.56255117489490658045,5.78529211299987,0.750857061474451,341.516871649322
738234.56255126534961163998,5.74836471653391,0.750857061474451,341.529180781477
738234.56255135568790137768,5.76067384868923,0.787784457940408,341.541489913633
738234.56255144614260643721,5.74836471653391,0.775475325785089,341.393780327769
738234.56255153659731149673,5.79760124515519,0.787784457940408,341.541489913633
738234.56255162705201655626,5.76067384868923,0.76316619362977,341.553799045788
738234.56255171750672161579,5.82221950946582,0.837020986561683,341.529180781477
738234.56255180796142667532,5.77298298084455,0.787784457940408,341.529180781477
738234.56255189829971641302,5.79760124515519,0.812402722251045,341.553799045788
738234.56255198875442147255,5.82221950946582,0.837020986561683,341.578417310099
738234.56255207920912653208,5.85914690593178,0.898566647338277,341.455325988545
738234.56255216966383159161,5.82221950946582,0.87394838302764,341.529180781477
738234.56255226011853665113,5.8714560380871,0.886257515182958,341.566108177943
738234.56255235057324171066,5.90838343455306,0.923184911648915,341.344543799148
738234.56255244091153144836,5.8714560380871,0.910875779493596,341.455325988545
738234.56255253136623650789,5.99454735964029,1.0462762332021,341.529180781477
738234.56255262182094156742,5.93300169886369,0.984730572425509,341.603035574409
738234.56255271227564662695,5.98223822748497,1.03396710104678,341.541489913633
738234.56255280273035168648,6.05609302041688,1.12013102613402,341.455325988545
738234.56255289318505674601,6.09302041688284,1.16936755475529,341.541489913633
738234.56255298352334648371,6.11763868119348,1.18167668691061,341.578417310099
738234.56255307397805154324,6.20380260628071,1.28014974415316,341.566108177943
738234.56255316443275660276,6.19149347412539,1.3047680084638,341.356852931303
738234.56255325488746166229,6.17918434197007,1.29245887630848,341.479944252856
738234.56255334534216672182,6.15456607765943,1.26784061199784,341.430707724235
738234.56255343579687178135,6.1299478133488,1.25553147984252,341.406089459924
738234.56255352613516151905,6.08071128472752,1.16936755475529,341.332234666992
738234.56255361658986657858,5.95761996317433,0.997039704580828,341.393780327769
738234.56255370704457163811,5.96992909532965,1.02165796889147,341.406089459924
738234.56255379749927669764,5.82221950946582,0.849330118717002,341.393780327769
738234.56255388795398175716,5.82221950946582,0.849330118717002,341.406089459924
738234.56255397840868681669,5.76067384868923,0.775475325785089,341.479944252856
738234.56255406886339187622,5.71143732006795,0.726238797163813,341.479944252856
738234.56255415920168161392,5.72374645222327,0.726238797163813,341.430707724235
738234.56255424965638667345,5.72374645222327,0.726238797163813,341.479944252856
738234.56255434011109173298,5.63758252713604,0.664693136387219,341.479944252856
738234.56255443056579679251,5.66220079144668,0.689311400697857,341.467635120701
738234.56255452102050185204,5.674509923602,0.689311400697857,341.467635120701
738234.56255461147520691156,5.674509923602,0.689311400697857,341.504562517167
738234.56255470181349664927,5.64989165929136,0.6523840042319,341.44301685639
738234.56255479226820170879,5.69912818791264,0.701620532853175,341.455325988545
738234.56255488272290676832,5.68681905575732,0.701620532853175,341.430707724235
738234.56255497317761182785,5.62527339498072,0.615456607765943,341.430707724235
738234.56255506363231688738,5.74836471653391,0.76316619362977,341.430707724235
738234.56255515408702194691,5.66220079144668,0.677002268542538,341.356852931303
738234.56255524442531168461,5.69912818791264,0.713929665008494,341.492253385011
738234.56255533488001674414,5.63758252713604,0.664693136387219,341.516871649322
738234.56255542533472180367,5.68681905575732,0.689311400697857,341.479944252856
738234.56255551578942686319,5.69912818791264,0.713929665008494,341.455325988545
738234.56255560624413192272,5.674509923602,0.701620532853175,341.504562517167
738234.56255569669883698225,5.6129642628254,0.640074872076581,341.492253385011
738234.56255578703712671995,5.66220079144668,0.677002268542538,341.44301685639
738234.56255587749183177948,5.71143732006795,0.738547929319132,341.319925534837
738234.56255596794653683901,5.62527339498072,0.664693136387219,341.393780327769
738234.56255605840124189854,5.62527339498072,0.664693136387219,341.406089459924
738234.56255614885594695807,5.674509923602,0.701620532853175,341.492253385011
738234.56255623931065201759,5.69912818791264,0.726238797163813,341.492253385011
738234.56255632964894175529,5.69912818791264,0.738547929319132,341.479944252856
738234.56255642010364681482,5.62527339498072,0.6523840042319,341.467635120701
738234.56255651055835187435,5.62527339498072,0.677002268542538,341.492253385011
738234.56255660101305693388,5.57603686635945,0.627765739921262,341.492253385011
738234.56255669146776199341,5.64989165929136,0.689311400697857,341.430707724235
738234.56255678192246705294,5.62527339498072,0.664693136387219,341.479944252856
738234.56255687237717211246,5.64989165929136,0.689311400697857,341.479944252856
738234.56255696271546185017,5.66220079144668,0.713929665008494,341.455325988545
738234.56255705317016690969,5.69912818791264,0.726238797163813,341.479944252856
738234.56255714362487196922,5.71143732006795,0.750857061474451,341.492253385011
738234.56255723407957702875,5.55141860204881,0.627765739921262,341.467635120701
738234.56255732453428208828,5.63758252713604,0.689311400697857,341.479944252856
738234.56255741498898714781,5.6129642628254,0.664693136387219,341.492253385011
738234.56255750532727688551,5.60065513067009,0.664693136387219,341.492253385011
738234.56255759578198194504,5.62527339498072,0.677002268542538,341.467635120701
738234.56255768623668700457,5.66220079144668,0.701620532853175,341.492253385011
738234.56255777669139206409,5.71143732006795,0.76316619362977,341.479944252856
738234.56255786714609712362,5.57603686635945,0.640074872076581,341.369162063458
738234.56255795760080218315,5.63758252713604,0.677002268542538,341.479944252856
738234.56255804793909192085,5.63758252713604,0.677002268542538,341.430707724235
738234.56255813839379698038,5.63758252713604,0.677002268542538,341.430707724235
738234.56255822884850203991,5.68681905575732,0.750857061474451,341.418398592079
738234.56255831930320709944,5.60065513067009,0.664693136387219,341.430707724235
738234.56255840975791215897,5.64989165929136,0.701620532853175,341.467635120701
738234.56255850021261721849,5.62527339498072,0.701620532853175,341.516871649322
738234.56255859055090695620,5.66220079144668,0.738547929319132,341.566108177943
738234.56255868100561201572,5.63758252713604,0.689311400697857,341.529180781477
738234.56255877146031707525,5.62527339498072,0.689311400697857,341.479944252856
738234.56255886191502213478,5.63758252713604,0.689311400697857,341.418398592079
738234.56255895236972719431,5.72374645222327,0.76316619362977,341.418398592079
738234.56255904282443225384,5.57603686635945,0.615456607765943,341.492253385011
738234.56255913327913731337,5.62527339498072,0.664693136387219,341.430707724235
738234.56255922361742705107,5.57603686635945,0.615456607765943,341.44301685639
738234.56255931407213211060,5.6129642628254,0.664693136387219,341.529180781477
738234.56255940452683717012,5.76067384868923,0.812402722251045,341.455325988545
738234.56255949498154222965,5.94531083101901,0.997039704580828,341.23376160975
738234.56255958543624728918,6.56076743878496,1.55095065157018,340.815251116469
738234.56255967589095234871,6.47460351369772,1.13244015828934,340.569068473362
738234.56255976622924208641,5.57603686635945,0.0738547929319132,340.913724173711
738234.56255985668394714594,5.57603686635945,0.295419171727653,341.172215948973
738234.56255994713865220547,5.62527339498072,0.578529211299987,341.44301685639
738234.56256003759335726500,5.56372773420413,0.578529211299987,341.479944252856
738234.56256012804806232452,5.6129642628254,0.640074872076581,341.492253385011
738234.56256021850276738405,5.76067384868923,0.787784457940408,341.393780327769
738234.56256030884105712175,5.73605558437859,0.750857061474451,341.381471195613
738234.56256039929576218128,5.72374645222327,0.800093590095726,341.467635120701
738234.56256048975046724081,5.68681905575732,0.738547929319132,341.467635120701
738234.56256058020517230034,5.71143732006795,0.76316619362977,341.430707724235
738234.56256067065987735987,5.64989165929136,0.738547929319132,341.479944252856
738234.56256076111458241940,5.82221950946582,0.886257515182958,341.479944252856
738234.56256085145287215710,5.72374645222327,0.787784457940408,341.467635120701
738234.56256094190757721663,5.71143732006795,0.787784457940408,341.455325988545
738234.56256103236228227615,5.78529211299987,0.849330118717002,341.467635120701
738234.56256112281698733568,5.78529211299987,0.849330118717002,341.479944252856
738234.56256121327169239521,5.84683777377646,0.935494043804234,341.455325988545
738234.56256130372639745474,5.80991037731051,0.898566647338277,341.455325988545
738234.56256139406468719244,5.8714560380871,0.935494043804234,341.467635120701
738234.56256148451939225197,5.82221950946582,0.935494043804234,341.332234666992
738234.56256157497409731150,5.94531083101901,1.0462762332021,341.479944252856
738234.56256166542880237103,5.88376517024242,1.0462762332021,341.430707724235
738234.56256175588350743055,5.88376517024242,1.05858536535742,341.319925534837
738234.56256184633821249008,6.03147475610625,1.12013102613402,341.418398592079
738234.56256193679291754961,6.08071128472752,1.16936755475529,341.381471195613
738234.56256202713120728731,6.08071128472752,1.19398581906593,341.393780327769
738234.56256211758591234684,6.10532954903816,1.24322234768721,341.393780327769
738234.56256220804061740637,6.22842087059135,1.37862280139571,341.356852931303
738234.56256229849532246590,6.1299478133488,1.28014974415316,341.369162063458
738234.56256238895002752542,6.14225694550411,1.29245887630848,341.319925534837
738234.56256247940473258495,6.11763868119348,1.25553147984252,341.332234666992
738234.56256256974302232265,6.05609302041688,1.20629495122125,341.393780327769
738234.56256266019772738218,6.01916562395093,1.13244015828934,341.381471195613
738234.56256275065243244171,5.80991037731051,0.923184911648915,341.381471195613
738234.56256284110713750124,5.85914690593178,0.935494043804234,341.418398592079
738234.56256293156184256077,5.73605558437859,0.800093590095726,341.319925534837
738234.56256302201654762030,5.69912818791264,0.750857061474451,341.295307270526
738234.56256311235483735800,5.72374645222327,0.787784457940408,341.381471195613
738234.56256320280954241753,5.64989165929136,0.701620532853175,341.406089459924
738234.56256329326424747705,5.56372773420413,0.627765739921262,341.467635120701
738234.56256338371895253658,5.71143732006795,0.775475325785089,341.430707724235
738234.56256347417365759611,5.55141860204881,0.603147475610625,341.479944252856
738234.56256356462836265564,5.66220079144668,0.701620532853175,341.393780327769
738234.56256365496665239334,5.66220079144668,0.701620532853175,341.418398592079
738234.56256374542135745287,5.62527339498072,0.677002268542538,341.467635120701
738234.56256383587606251240,5.60065513067009,0.664693136387219,341.44301685639
738234.56256392633076757193,5.62527339498072,0.677002268542538,341.418398592079
738234.56256401678547263145,5.66220079144668,0.701620532853175,341.479944252856
738234.56256410724017769098,5.64989165929136,0.689311400697857,341.418398592079
738234.56256419757846742868,5.57603686635945,0.615456607765943,341.393780327769
738234.56256428803317248821,5.57603686635945,0.603147475610625,341.504562517167
738234.56256437848787754774,5.68681905575732,0.701620532853175,341.529180781477
738234.56256446894258260727,5.71143732006795,0.750857061474451,341.418398592079
738234.56256455939728766680,5.58834599851477,0.627765739921262,341.492253385011
738234.56256464985199272633,5.66220079144668,0.701620532853175,341.529180781477
738234.56256474030669778585,5.63758252713604,0.677002268542538,341.516871649322
738234.56256483064498752356,5.62527339498072,0.677002268542538,341.504562517167
738234.56256492109969258308,5.58834599851477,0.640074872076581,341.504562517167
738234.56256501155439764261,5.66220079144668,0.713929665008494,341.504562517167
738234.56256510200910270214,5.66220079144668,0.701620532853175,341.455325988545
738234.56256519246380776167,5.58834599851477,0.627765739921262,341.516871649322
738234.56256528291851282120,5.6129642628254,0.664693136387219,341.541489913633
738234.56256537325680255890,5.62527339498072,0.664693136387219,341.418398592079
738234.56256546371150761843,5.62527339498072,0.677002268542538,341.529180781477
738234.56256555416621267796,5.55141860204881,0.615456607765943,341.566108177943
738234.56256564462091773748,5.62527339498072,0.677002268542538,341.541489913633
738234.56256573507562279701,5.60065513067009,0.627765739921262,341.44301685639
738234.56256582553032785654,5.57603686635945,0.627765739921262,341.418398592079
738234.56256591586861759424,5.69912818791264,0.738547929319132,341.492253385011
738234.56256600632332265377,5.60065513067009,0.640074872076581,341.553799045788
738234.56256609677802771330,5.64989165929136,0.677002268542538,341.44301685639
738234.56256618723273277283,5.62527339498072,0.664693136387219,341.418398592079
738234.56256627768743783236,5.64989165929136,0.689311400697857,341.430707724235
738234.56256636814214289188,5.6129642628254,0.664693136387219,341.381471195613
738234.56256645848043262959,5.55141860204881,0.603147475610625,341.25837987406
738234.56256654893513768911,5.64989165929136,0.677002268542538,341.295307270526
738234.56256663938984274864,5.55141860204881,0.603147475610625,341.406089459924
738234.56256672984454780817,5.58834599851477,0.627765739921262,341.455325988545
738234.56256682029925286770,5.62527339498072,0.6523840042319,341.418398592079
738234.56256691075395792723,5.73605558437859,0.787784457940408,341.467635120701
738234.56256700120866298676,5.58834599851477,0.664693136387219,341.455325988545
738234.56256709154695272446,5.60065513067009,0.6523840042319,341.44301685639
738234.56256718200165778399,5.66220079144668,0.750857061474451,341.455325988545
738234.56256727245636284351,5.6129642628254,0.701620532853175,341.455325988545
738234.56256736291106790304,5.66220079144668,0.713929665008494,341.430707724235
738234.56256745336577296257,5.63758252713604,0.701620532853175,341.455325988545
738234.56256754382047802210,5.62527339498072,0.689311400697857,341.418398592079
738234.56256763415876775980,5.71143732006795,0.738547929319132,341.479944252856
738234.56256772461347281933,5.62527339498072,0.590838343455306,341.467635120701
738234.56256781506817787886,5.56372773420413,0.603147475610625,341.492253385011
738234.56256790552288293839,5.63758252713604,0.677002268542538,341.479944252856
738234.56256799597758799791,5.66220079144668,0.689311400697857,341.504562517167
738234.56256808643229305744,5.56372773420413,0.603147475610625,341.529180781477
738234.56256817677058279514,5.58834599851477,0.615456607765943,341.393780327769
738234.56256826722528785467,5.68681905575732,0.726238797163813,341.603035574409
738234.56256835767999291420,5.77298298084455,0.800093590095726,341.639962970875
738234.56256844813469797373,6.00685649179561,1.03396710104678,341.369162063458
738234.56256853858940303326,6.53614917447432,1.52633238725954,340.741396323537
738234.56256862904410809278,6.43767611723177,1.09551276182338,340.532141076896
738234.56256871938239783049,5.73605558437859,0.246182643106377,340.926033305867
738234.56256880983710289001,5.51449120558285,0.283110039572334,341.270689006216
738234.56256890029180794954,5.58834599851477,0.504674418368074,341.393780327769
738234.56256899074651300907,5.674509923602,0.627765739921262,341.430707724235
738234.56256908120121806860,5.68681905575732,0.664693136387219,341.467635120701
738234.56256917165592312813,5.76067384868923,0.775475325785089,341.516871649322
738234.56256926199421286583,5.68681905575732,0.713929665008494,341.393780327769
738234.56256935244891792536,5.68681905575732,0.713929665008494,341.406089459924
738234.56256944290362298489,5.78529211299987,0.812402722251045,341.430707724235
738234.56256953335832804441,5.77298298084455,0.812402722251045,341.406089459924
738234.56256962381303310394,5.64989165929136,0.664693136387219,341.406089459924
738234.56256971426773816347,5.78529211299987,0.800093590095726,341.430707724235
738234.56256980472244322300,5.79760124515519,0.812402722251045,341.504562517167
738234.56256989506073296070,5.76067384868923,0.775475325785089,341.479944252856
738234.56256998551543802023,5.77298298084455,0.787784457940408,341.455325988545
738234.56257007597014307976,5.88376517024242,0.910875779493596,341.369162063458
738234.56257016642484813929,5.93300169886369,0.947803175959553,341.393780327769
738234.56257025687955319881,5.73605558437859,0.750857061474451,341.418398592079
738234.56257034733425825834,5.85914690593178,0.886257515182958,341.430707724235
738234.56257043767254799604,5.93300169886369,0.960112308114872,341.430707724235
738234.56257052812725305557,5.99454735964029,1.02165796889147,341.504562517167
738234.56257061858195811510,5.89607430239774,0.935494043804234,341.406089459924
738234.56257070903666317463,6.01916562395093,1.05858536535742,341.393780327769
738234.56257079949136823416,6.17918434197007,1.23091321553189,341.492253385011
738234.56257088994607329369,6.01916562395093,1.07089449751274,341.467635120701
738234.56257098028436303139,6.10532954903816,1.18167668691061,341.529180781477
738234.56257107073906809092,6.22842087059135,1.29245887630848,341.406089459924
738234.56257116119377315044,6.20380260628071,1.29245887630848,341.44301685639
738234.56257125164847820997,6.24073000274667,1.31707714061912,341.44301685639
738234.56257134210318326950,6.09302041688284,1.18167668691061,341.430707724235
738234.56257143255788832903,6.10532954903816,1.21860408337657,341.467635120701
738234.56257152289617806673,6.09302041688284,1.15705842259997,341.418398592079
738234.56257161335088312626,6.03147475610625,1.08320362966806,341.504562517167
738234.56257170380558818579,5.94531083101901,0.972421440270191,341.44301685639
738234.56257179426029324532,5.85914690593178,0.923184911648915,341.492253385011
738234.56257188471499830484,5.79760124515519,0.837020986561683,341.44301685639
738234.56257197516970336437,5.77298298084455,0.775475325785089,341.455325988545
738234.56257206550799310207,6.01916562395093,0.984730572425509,341.455325988545
738234.56257215596269816160,5.63758252713604,0.603147475610625,341.492253385011
738234.56257224641740322113,5.64989165929136,0.640074872076581,341.393780327769
738234.56257233687210828066,5.73605558437859,0.726238797163813,341.492253385011
738234.56257242732681334019,5.71143732006795,0.713929665008494,341.479944252856
738234.56257251778151839972,5.69912818791264,0.701620532853175,341.492253385011
738234.56257260823622345924,5.674509923602,0.677002268542538,341.44301685639
738234.56257269857451319695,5.76067384868923,0.750857061474451,341.504562517167
738234.56257278902921825647,5.76067384868923,0.76316619362977,341.504562517167
738234.56257287948392331600,5.66220079144668,0.6523840042319,341.430707724235
738234.56257296993862837553,5.69912818791264,0.701620532853175,341.504562517167
738234.56257306039333343506,5.72374645222327,0.713929665008494,341.504562517167
738234.56257315084803849459,5.74836471653391,0.738547929319132,341.504562517167
738234.56257324118632823229,5.71143732006795,0.713929665008494,341.479944252856
738234.56257333164103329182,5.74836471653391,0.738547929319132,341.467635120701
738234.56257342209573835135,5.71143732006795,0.701620532853175,341.504562517167
738234.56257351255044341087,5.71143732006795,0.726238797163813,341.147597684662
738234.56257360300514847040,5.674509923602,0.689311400697857,341.196834213284
738234.56257369345985352993,5.69912818791264,0.701620532853175,341.381471195613
738234.56257378379814326763,5.78529211299987,0.775475325785089,341.406089459924
738234.56257387425284832716,5.73605558437859,0.726238797163813,341.393780327769
738234.56257396470755338669,5.69912818791264,0.689311400697857,341.492253385011
738234.56257405516225844622,5.69912818791264,0.726238797163813,341.504562517167
738234.56257414561696350574,5.78529211299987,0.800093590095726,341.479944252856
738234.56257423607166856527,5.63758252713604,0.627765739921262,341.529180781477
738234.56257432640995830297,5.674509923602,0.701620532853175,341.504562517167
738234.56257441686466336250,5.71143732006795,0.726238797163813,341.516871649322
738234.56257450731936842203,5.72374645222327,0.713929665008494,341.44301685639
738234.56257459777407348156,5.64989165929136,0.677002268542538,341.418398592079
738234.56257468822877854109,5.71143732006795,0.738547929319132,341.369162063458
738234.56257477868348360062,5.72374645222327,0.750857061474451,341.406089459924
738234.56257486913818866014,5.64989165929136,0.664693136387219,341.430707724235
738234.56257495947647839785,5.63758252713604,0.640074872076581,341.430707724235
738234.56257504993118345737,5.64989165929136,0.664693136387219,341.406089459924
738234.56257514038588851690,5.73605558437859,0.750857061474451,341.516871649322
738234.56257523084059357643,5.77298298084455,0.775475325785089,341.492253385011
738234.56257532129529863596,5.62527339498072,0.627765739921262,341.492253385011
738234.56257541175000369549,5.69912818791264,0.701620532853175,341.492253385011
738234.56257550208829343319,5.76067384868923,0.750857061474451,341.504562517167
738234.56257559254299849272,5.62527339498072,0.615456607765943,341.516871649322
738234.56257568299770355225,5.74836471653391,0.738547929319132,341.430707724235
738234.56257577345240861177,5.69912818791264,0.701620532853175,341.516871649322
738234.56257586390711367130,5.66220079144668,0.664693136387219,341.504562517167
738234.56257595436181873083,5.71143732006795,0.689311400697857,341.418398592079
738234.56257604470010846853,5.69912818791264,0.689311400697857,341.430707724235
738234.56257613515481352806,5.72374645222327,0.726238797163813,341.467635120701
738234.56257622560951858759,5.73605558437859,0.750857061474451,341.492253385011
738234.56257631606422364712,5.72374645222327,0.750857061474451,341.504562517167
738234.56257640651892870665,5.73605558437859,0.738547929319132,341.44301685639
738234.56257649697363376617,5.69912818791264,0.738547929319132,341.406089459924
738234.56257658731192350388,5.68681905575732,0.701620532853175,341.455325988545
738234.56257667776662856340,5.71143732006795,0.726238797163813,341.492253385011
738234.56257676822133362293,5.78529211299987,0.800093590095726,341.516871649322
738234.56257685867603868246,5.58834599851477,0.603147475610625,341.529180781477
738234.56257694913074374199,5.77298298084455,0.775475325785089,341.430707724235
738234.56257703958544880152,5.58834599851477,0.603147475610625,341.492253385011
738234.56257712992373853922,5.69912818791264,0.701620532853175,341.319925534837
738234.56257722037844359875,5.71143732006795,0.726238797163813,341.369162063458
738234.56257731083314865828,5.63758252713604,0.677002268542538,341.603035574409
738234.56257740128785371780,5.92069256670838,0.898566647338277,341.430707724235
738234.56257749174255877733,6.36382132429985,1.41555019786167,340.999888098799
738234.56257758219726383686,6.59769483525091,1.47709585863826,340.507522812586
738234.56257767265196889639,5.99454735964029,0.492365286212755,340.704468927071
738234.56257776299025863409,5.68681905575732,0.307728303882972,341.122979420352
738234.56257785344496369362,5.69912818791264,0.566220079144668,341.332234666992
738234.56257794389966875315,5.69912818791264,0.615456607765943,341.430707724235
738234.56257803435437381268,5.69912818791264,0.6523840042319,341.479944252856
738234.56257812480907887220,5.79760124515519,0.775475325785089,341.516871649322
738234.56257821526378393173,5.72374645222327,0.726238797163813,341.467635120701
738234.56257830560207366943,5.78529211299987,0.787784457940408,341.504562517167
738234.56257839605677872896,5.82221950946582,0.812402722251045,341.553799045788
738234.56257848651148378849,5.74836471653391,0.76316619362977,341.430707724235
738234.56257857696618884802,5.73605558437859,0.738547929319132,341.492253385011
738234.56257866742089390755,5.80991037731051,0.812402722251045,341.529180781477
738234.56257875787559896708,5.78529211299987,0.775475325785089,341.553799045788
738234.56257884821388870478,5.85914690593178,0.849330118717002,341.406089459924
738234.56257893866859376431,5.84683777377646,0.861639250872321,341.504562517167
738234.56257902912329882383,5.82221950946582,0.849330118717002,341.529180781477
738234.56257911957800388336,5.92069256670838,0.923184911648915,341.566108177943
738234.56257921003270894289,5.94531083101901,0.947803175959553,341.430707724235
738234.56257930048741400242,5.78529211299987,0.824711854406364,341.529180781477
738234.56257939082570374012,5.98223822748497,1.00934883673615,341.553799045788
738234.56257948128040879965,5.95761996317433,0.984730572425509,341.553799045788
738234.56257957173511385918,5.98223822748497,1.00934883673615,341.504562517167
738234.56257966218981891870,6.01916562395093,1.05858536535742,341.590726442254
738234.56257975264452397823,6.14225694550411,1.19398581906593,341.492253385011
738234.56257984309922903776,6.14225694550411,1.19398581906593,341.504562517167
738234.56257993343751877546,6.15456607765943,1.20629495122125,341.467635120701
738234.56258002389222383499,6.21611173843603,1.32938627277444,341.578417310099
738234.56258011434692889452,6.14225694550411,1.23091321553189,341.504562517167
738234.56258020480163395405,6.25303913490198,1.36631366924039,341.504562517167
738234.56258029525633901358,6.21611173843603,1.34169540492976,341.430707724235
738234.56258038571104407310,6.14225694550411,1.26784061199784,341.467635120701
738234.56258047616574913263,6.15456607765943,1.25553147984252,341.418398592079
738234.56258056650403887033,6.16687520981475,1.21860408337657,341.44301685639
738234.56258065695874392986,6.00685649179561,1.05858536535742,341.319925534837
738234.56258074741344898939,5.93300169886369,0.960112308114872,341.541489913633
738234.56258083786815404892,5.83452864162114,0.849330118717002,341.492253385011
738234.56258092832285910845,5.89607430239774,0.886257515182958,341.553799045788
738234.56258101877756416798,5.73605558437859,0.738547929319132,341.418398592079
738234.56258110911585390568,5.78529211299987,0.787784457940408,341.479944252856
738234.56258119957055896521,5.66220079144668,0.6523840042319,341.553799045788
738234.56258129002526402473,5.82221950946582,0.812402722251045,341.44301685639
738234.56258138047996908426,5.68681905575732,0.689311400697857,341.516871649322
738234.56258147093467414379,5.79760124515519,0.787784457940408,341.529180781477
738234.56258156138937920332,5.674509923602,0.664693136387219,341.504562517167
738234.56258165172766894102,5.76067384868923,0.738547929319132,341.479944252856
738234.56258174218237400055,5.74836471653391,0.738547929319132,341.541489913633
738234.56258183263707906008,5.68681905575732,0.689311400697857,341.566108177943
738234.56258192309178411961,5.76067384868923,0.76316619362977,341.479944252856
738234.56258201354648917913,5.69912818791264,0.689311400697857,341.516871649322
738234.56258210400119423866,5.73605558437859,0.713929665008494,341.492253385011
738234.56258219433948397636,5.77298298084455,0.76316619362977,341.467635120701
738234.56258228479418903589,5.77298298084455,0.76316619362977,341.44301685639
738234.56258237524889409542,5.73605558437859,0.726238797163813,341.492253385011
738234.56258246570359915495,5.82221950946582,0.800093590095726,341.430707724235
738234.56258255615830421448,5.77298298084455,0.76316619362977,341.406089459924
738234.56258264661300927401,5.74836471653391,0.726238797163813,341.418398592079
738234.56258273706771433353,5.72374645222327,0.713929665008494,341.430707724235
738234.56258282740600407124,5.74836471653391,0.738547929319132,341.455325988545
738234.56258291786070913076,5.76067384868923,0.738547929319132,341.492253385011
738234.56258300831541419029,5.76067384868923,0.750857061474451,341.516871649322
738234.56258309877011924982,5.82221950946582,0.812402722251045,341.492253385011
738234.56258318922482430935,5.77298298084455,0.750857061474451,341.479944252856
738234.56258327967952936888,5.69912818791264,0.664693136387219,341.492253385011
738234.56258337001781910658,5.88376517024242,0.849330118717002,341.492253385011
738234.56258346047252416611,5.68681905575732,0.677002268542538,341.430707724235
738234.56258355092722922564,5.66220079144668,0.6523840042319,341.479944252856
738234.56258364138193428516,5.80991037731051,0.787784457940408,341.467635120701
738234.56258373183663934469,5.72374645222327,0.689311400697857,341.467635120701
738234.56258382229134440422,5.77298298084455,0.76316619362977,341.467635120701
738234.56258391262963414192,5.74836471653391,0.738547929319132,341.44301685639
738234.56258400308433920145,5.71143732006795,0.689311400697857,341.516871649322
738234.56258409353904426098,5.76067384868923,0.750857061474451,341.319925534837
738234.56258418399374932051,5.79760124515519,0.76316619362977,341.369162063458
738234.56258427444845438004,5.63758252713604,0.615456607765943,341.455325988545
738234.56258436490315943956,5.71143732006795,0.713929665008494,341.566108177943
738234.56258445524144917727,5.80991037731051,0.787784457940408,341.541489913633
738234.56258454569615423679,5.64989165929136,0.615456607765943,341.430707724235
738234.56258463615085929632,5.77298298084455,0.713929665008494,341.467635120701
738234.56258472660556435585,5.72374645222327,0.713929665008494,341.529180781477
738234.56258481706026941538,5.77298298084455,0.76316619362977,341.541489913633
738234.56258490751497447491,5.73605558437859,0.726238797163813,341.418398592079
738234.56258499785326421261,5.69912818791264,0.689311400697857,341.516871649322
738234.56258508830796927214,5.73605558437859,0.701620532853175,341.492253385011
738234.56258517876267433167,5.78529211299987,0.76316619362977,341.492253385011
738234.56258526921737939119,5.69912818791264,0.6523840042319,341.467635120701
738234.56258535967208445072,5.76067384868923,0.713929665008494,341.492253385011
738234.56258545012678951025,5.78529211299987,0.76316619362977,341.504562517167
738234.56258554058149456978,5.85914690593178,0.812402722251045,341.479944252856
738234.56258563091978430748,5.76067384868923,0.750857061474451,341.467635120701
738234.56258572137448936701,5.73605558437859,0.713929665008494,341.516871649322
738234.56258581182919442654,5.85914690593178,0.861639250872321,341.516871649322
738234.56258590228389948606,5.68681905575732,0.664693136387219,341.44301685639
738234.56258599273860454559,5.73605558437859,0.701620532853175,341.516871649322
738234.56258608319330960512,5.72374645222327,0.689311400697857,341.516871649322
738234.56258617353159934282,5.76067384868923,0.738547929319132,341.504562517167
738234.56258626398630440235,5.71143732006795,0.677002268542538,341.479944252856
738234.56258635444100946188,5.76067384868923,0.726238797163813,341.516871649322
738234.56258644489571452141,5.78529211299987,0.76316619362977,341.516871649322
738234.56258653535041958094,5.71143732006795,0.689311400697857,341.541489913633
738234.56258662580512464046,5.72374645222327,0.701620532853175,341.676890367341
738234.56258671614341437817,6.11763868119348,1.08320362966806,341.455325988545
738234.56258680659811943769,6.46229438154241,1.51402325510422,341.012197230954
738234.56258689705282449722,6.7823318175807,1.58787804803613,340.519831944741
738234.56258698750752955675,5.8714560380871,0.369273964659566,340.778323720003
738234.56258707796223461628,5.674509923602,0.344655700348928,341.172215948973
738234.56258716841693967581,5.68681905575732,0.566220079144668,341.393780327769
738234.56258725875522941351,5.76067384868923,0.664693136387219,341.332234666992
738234.56258734920993447304,5.83452864162114,0.775475325785089,341.430707724235
738234.56258743966463953257,5.82221950946582,0.750857061474451,341.455325988545
738234.56258753011934459209,5.85914690593178,0.800093590095726,341.44301685639
738234.56258762057404965162,5.77298298084455,0.76316619362977,341.282998138371
738234.56258771102875471115,5.83452864162114,0.800093590095726,341.369162063458
738234.56258780136704444885,5.80991037731051,0.800093590095726,341.430707724235
738234.56258789182174950838,5.85914690593178,0.861639250872321,341.44301685639
738234.56258798227645456791,5.80991037731051,0.787784457940408,341.455325988545
738234.56258807273115962744,5.94531083101901,0.923184911648915,341.504562517167
738234.56258816318586468697,5.84683777377646,0.837020986561683,341.566108177943
738234.56258825364056974649,5.88376517024242,0.87394838302764,341.479944252856
738234.56258834409527480602,5.88376517024242,0.87394838302764,341.479944252856
738234.56258843443356454372,5.95761996317433,0.960112308114872,341.467635120701
738234.56258852488826960325,5.92069256670838,0.923184911648915,341.418398592079
738234.56258861534297466278,5.93300169886369,0.960112308114872,341.504562517167
738234.56258870579767972231,6.00685649179561,1.00934883673615,341.455325988545
738234.56258879625238478184,6.05609302041688,1.05858536535742,341.479944252856
738234.56258888670708984137,6.1299478133488,1.16936755475529,341.529180781477
738234.56258897704537957907,6.00685649179561,1.03396710104678,341.467635120701
738234.56258906750008463860,6.16687520981475,1.19398581906593,341.418398592079
738234.56258915795478969812,6.1299478133488,1.20629495122125,341.529180781477
738234.56258924840949475765,6.17918434197007,1.25553147984252,341.566108177943
738234.56258933886419981718,6.33920305998922,1.42785933001699,341.541489913633
738234.56258942931890487671,6.25303913490198,1.32938627277444,341.44301685639
738234.56258951965719461441,6.30227566352326,1.37862280139571,341.504562517167
738234.56258961011189967394,6.36382132429985,1.45247759432763,341.553799045788
738234.56258970056660473347,6.21611173843603,1.29245887630848,341.467635120701
738234.56258979102130979300,6.16687520981475,1.24322234768721,341.406089459924
738234.56258988147601485252,6.05609302041688,1.12013102613402,341.467635120701
738234.56258997193071991205,6.1299478133488,1.12013102613402,341.467635120701
738234.56259006226900964975,5.96992909532965,0.947803175959553,341.455325988545
738234.56259015272371470928,5.92069256670838,0.886257515182958,341.430707724235
738234.56259024317841976881,5.80991037731051,0.775475325785089,341.44301685639
738234.56259033363312482834,5.88376517024242,0.837020986561683,341.44301685639
738234.56259042408782988787,5.8714560380871,0.837020986561683,341.406089459924
738234.56259051454253494740,5.78529211299987,0.750857061474451,341.44301685639
738234.56259060499724000692,5.76067384868923,0.701620532853175,341.467635120701
738234.56259069533552974463,5.94531083101901,0.87394838302764,341.430707724235
738234.56259078579023480415,5.69912818791264,0.6523840042319,341.455325988545
738234.56259087624493986368,5.85914690593178,0.812402722251045,341.467635120701
738234.56259096669964492321,5.72374645222327,0.677002268542538,341.455325988545
738234.56259105715434998274,5.83452864162114,0.787784457940408,341.369162063458
738234.56259114760905504227,5.76067384868923,0.713929665008494,341.221452477594
738234.56259123794734477997,5.83452864162114,0.787784457940408,341.307616402682
738234.56259132840204983950,5.82221950946582,0.787784457940408,341.369162063458
738234.56259141885675489902,5.76067384868923,0.701620532853175,341.344543799148
738234.56259150931145995855,5.76067384868923,0.701620532853175,341.356852931303
738234.56259159976616501808,5.90838343455306,0.861639250872321,341.369162063458
738234.56259169022087007761,5.79760124515519,0.76316619362977,341.393780327769
738234.56259178055915981531,5.85914690593178,0.800093590095726,341.418398592079
738234.56259187101386487484,5.84683777377646,0.787784457940408,341.430707724235
738234.56259196146856993437,5.79760124515519,0.738547929319132,341.381471195613
738234.56259205192327499390,5.82221950946582,0.775475325785089,341.455325988545
738234.56259214237798005342,5.80991037731051,0.775475325785089,341.479944252856
738234.56259223283268511295,5.80991037731051,0.787784457940408,341.455325988545
738234.56259232317097485065,5.76067384868923,0.750857061474451,341.529180781477
738234.56259241362567991018,5.83452864162114,0.787784457940408,341.529180781477
738234.56259250408038496971,5.77298298084455,0.713929665008494,341.455325988545
738234.56259259453509002924,5.78529211299987,0.750857061474451,341.455325988545
738234.56259268498979508877,5.82221950946582,0.750857061474451,341.418398592079
738234.56259277544450014830,5.77298298084455,0.726238797163813,341.467635120701
738234.56259286578278988600,5.79760124515519,0.775475325785089,341.455325988545
738234.56259295623749494553,5.89607430239774,0.861639250872321,341.479944252856
738234.56259304669220000505,5.71143732006795,0.689311400697857,341.393780327769
738234.56259313714690506458,5.73605558437859,0.689311400697857,341.479944252856
738234.56259322760161012411,5.76067384868923,0.738547929319132,341.529180781477
738234.56259331805631518364,5.82221950946582,0.787784457940408,341.541489913633
738234.56259340851102024317,5.76067384868923,0.726238797163813,341.455325988545
738234.56259349884930998087,5.79760124515519,0.76316619362977,341.492253385011
738234.56259358930401504040,5.84683777377646,0.812402722251045,341.553799045788
738234.56259367975872009993,5.72374645222327,0.689311400697857,341.455325988545
738234.56259377021342515945,5.79760124515519,0.76316619362977,341.492253385011
738234.56259386066813021898,5.73605558437859,0.689311400697857,341.504562517167
738234.56259395112283527851,5.77298298084455,0.738547929319132,341.504562517167
738234.56259404146112501621,5.80991037731051,0.775475325785089,341.418398592079
738234.56259413191583007574,5.82221950946582,0.787784457940408,341.479944252856
738234.56259422237053513527,5.79760124515519,0.775475325785089,341.44301685639
738234.56259431282524019480,5.79760124515519,0.750857061474451,341.418398592079
738234.56259440327994525433,5.82221950946582,0.76316619362977,341.406089459924
738234.56259449373465031385,5.79760124515519,0.750857061474451,341.44301685639
738234.56259458407294005156,5.79760124515519,0.738547929319132,341.44301685639
738234.56259467452764511108,5.83452864162114,0.775475325785089,341.25837987406
738234.56259476498235017061,5.85914690593178,0.800093590095726,341.356852931303
738234.56259485543705523014,5.68681905575732,0.627765739921262,341.44301685639
738234.56259494589176028967,5.76067384868923,0.726238797163813,341.44301685639
738234.56259503634646534920,5.79760124515519,0.738547929319132,341.44301685639
738234.56259512668475508690,5.80991037731051,0.76316619362977,341.44301685639
738234.56259521713946014643,5.79760124515519,0.738547929319132,341.455325988545
738234.56259530759416520596,5.82221950946582,0.76316619362977,341.603035574409
738234.56259539804887026548,5.89607430239774,0.837020986561683,341.701508631652
738234.56259548850357532501,6.05609302041688,0.984730572425509,341.541489913633
738234.56259557895828038454,6.523840042319,1.57556891588082,341.110670288196
738234.56259566941298544407,6.65924049602751,1.5017141229489,340.569068473362
738234.56259575975127518177,5.98223822748497,0.43081962543616,340.766014587848
738234.56259585020598024130,5.69912818791264,0.270800907417015,341.086052023886
738234.56259594066068530083,5.69912818791264,0.516983550523392,341.369162063458
738234.56259603111539036036,5.82221950946582,0.664693136387219,341.381471195613
738234.56259612157009541988,5.88376517024242,0.76316619362977,341.406089459924
738234.56259621202480047941,5.94531083101901,0.849330118717002,341.467635120701
738234.56259630236309021711,5.77298298084455,0.689311400697857,341.455325988545
738234.56259639281779527664,5.89607430239774,0.812402722251045,341.44301685639
738234.56259648327250033617,5.84683777377646,0.775475325785089,341.504562517167
738234.56259657372720539570,5.89607430239774,0.837020986561683,341.492253385011
738234.56259666418191045523,5.92069256670838,0.861639250872321,341.504562517167
738234.56259675463661551476,5.8714560380871,0.812402722251045,341.566108177943
738234.56259684497490525246,5.88376517024242,0.812402722251045,341.516871649322
738234.56259693542961031199,6.00685649179561,0.923184911648915,341.541489913633
738234.56259702588431537151,5.85914690593178,0.787784457940408,341.541489913633
738234.56259711633902043104,5.94531083101901,0.861639250872321,341.492253385011
738234.56259720679372549057,5.98223822748497,0.910875779493596,341.467635120701
738234.56259729724843055010,5.99454735964029,0.898566647338277,341.455325988545
738234.56259738758672028780,5.96992909532965,0.960112308114872,341.467635120701
738234.56259747804142534733,6.0684021525722,1.03396710104678,341.467635120701
738234.56259756849613040686,6.05609302041688,1.02165796889147,341.516871649322
738234.56259765895083546638,6.08071128472752,0.984730572425509,341.467635120701
738234.56259774940554052591,6.17918434197007,1.18167668691061,341.455325988545
738234.56259783986024558544,6.19149347412539,1.21860408337657,341.578417310099
738234.56259793019853532314,6.20380260628071,1.18167668691061,341.541489913633
738234.56259802065324038267,6.24073000274667,1.21860408337657,341.479944252856
738234.56259811110794544220,6.33920305998922,1.40324106570635,341.553799045788
738234.56259820156265050173,6.30227566352326,1.36631366924039,341.467635120701
738234.56259829201735556126,6.28996653136794,1.32938627277444,341.455325988545
738234.56259838247206062078,6.3268939278339,1.41555019786167,341.529180781477
738234.56259847292676568031,6.27765739921262,1.32938627277444,341.553799045788
738234.56259856326505541801,6.24073000274667,1.21860408337657,341.566108177943
738234.56259865371976047754,6.09302041688284,1.08320362966806,341.455325988545
738234.56259874417446553707,6.01916562395093,1.02165796889147,341.541489913633
738234.56259883462917059660,5.99454735964029,0.972421440270191,341.566108177943
738234.56259892508387565613,5.95761996317433,0.910875779493596,341.479944252856
738234.56259901553858071566,5.89607430239774,0.849330118717002,341.541489913633
738234.56259910587687045336,5.82221950946582,0.775475325785089,341.578417310099
738234.56259919633157551289,5.77298298084455,0.824711854406364,341.541489913633
738234.56259928678628057241,5.83452864162114,0.824711854406364,341.455325988545
738234.56259937724098563194,5.83452864162114,0.787784457940408,341.529180781477
738234.56259946769569069147,5.82221950946582,0.787784457940408,341.590726442254
738234.56259955815039575100,5.84683777377646,0.787784457940408,341.492253385011
738234.56259964848868548870,5.8714560380871,0.812402722251045,341.504562517167
738234.56259973894339054823,5.83452864162114,0.76316619362977,341.455325988545
738234.56259982939809560776,5.84683777377646,0.775475325785089,341.44301685639
738234.56259991985280066729,5.83452864162114,0.800093590095726,341.418398592079
738234.56260001030750572681,5.82221950946582,0.76316619362977,341.430707724235
738234.56260010076221078634,5.82221950946582,0.775475325785089,341.418398592079
738234.56260019110050052404,5.88376517024242,0.861639250872321,341.393780327769
738234.56260028155520558357,5.76067384868923,0.750857061474451,341.492253385011
738234.56260037200991064310,5.77298298084455,0.76316619362977,341.492253385011
738234.56260046246461570263,5.83452864162114,0.812402722251045,341.455325988545
738234.56260055291932076216,5.79760124515519,0.750857061474451,341.492253385011
738234.56260064337402582169,5.84683777377646,0.787784457940408,341.492253385011
738234.56260073371231555939,5.82221950946582,0.824711854406364,341.479944252856
738234.56260082416702061892,5.84683777377646,0.861639250872321,341.467635120701
738234.56260091462172567844,5.84683777377646,0.812402722251045,341.455325988545
738234.56260100507643073797,5.84683777377646,0.824711854406364,341.381471195613
738234.56260109553113579750,5.79760124515519,0.76316619362977,341.455325988545
738234.56260118598584085703,5.78529211299987,0.750857061474451,341.479944252856
738234.56260127644054591656,5.83452864162114,0.837020986561683,341.418398592079
738234.56260136677883565426,5.74836471653391,0.701620532853175,341.406089459924
738234.56260145723354071379,5.83452864162114,0.824711854406364,341.504562517167
738234.56260154768824577332,5.76067384868923,0.750857061474451,341.516871649322
738234.56260163814295083284,5.78529211299987,0.750857061474451,341.455325988545
738234.56260172859765589237,5.77298298084455,0.738547929319132,341.418398592079
738234.56260181905236095190,5.74836471653391,0.738547929319132,341.418398592079
738234.56260190939065068960,5.88376517024242,0.861639250872321,341.566108177943
738234.56260199984535574913,5.74836471653391,0.775475325785089,341.504562517167
738234.56260209030006080866,5.77298298084455,0.750857061474451,341.541489913633
738234.56260218075476586819,5.82221950946582,0.812402722251045,341.578417310099
738234.56260227120947092772,5.68681905575732,0.6523840042319,341.529180781477
738234.56260236166417598724,5.72374645222327,0.701620532853175,341.541489913633
738234.56260245200246572495,5.82221950946582,0.800093590095726,341.590726442254
738234.56260254245717078447,5.73605558437859,0.677002268542538,341.541489913633
738234.56260263291187584400,5.77298298084455,0.750857061474451,341.553799045788
738234.56260272336658090353,5.71143732006795,0.689311400697857,341.590726442254
738234.56260281382128596306,5.78529211299987,0.738547929319132,341.62765383872
738234.56260290427599102259,5.78529211299987,0.726238797163813,341.590726442254
738234.56260299461428076029,5.78529211299987,0.750857061474451,341.529180781477
738234.56260308506898581982,5.85914690593178,0.787784457940408,341.62765383872
738234.56260317552369087934,5.72374645222327,0.689311400697857,341.553799045788
738234.56260326597839593887,5.78529211299987,0.750857061474451,341.516871649322
738234.56260335643310099840,5.85914690593178,0.837020986561683,341.541489913633
738234.56260344688780605793,5.76067384868923,0.726238797163813,341.541489913633
738234.56260353734251111746,5.74836471653391,0.726238797163813,341.492253385011
738234.56260362768080085516,5.80991037731051,0.76316619362977,341.504562517167
738234.56260371813550591469,5.80991037731051,0.76316619362977,341.541489913633
738234.56260380859021097422,5.82221950946582,0.750857061474451,341.516871649322
738234.56260389904491603374,5.84683777377646,0.775475325785089,341.418398592079
738234.56260398949962109327,5.85914690593178,0.787784457940408,341.504562517167
738234.56260407995432615280,5.84683777377646,0.787784457940408,341.529180781477
738234.56260417029261589050,5.82221950946582,0.775475325785089,341.467635120701
738234.56260426074732095003,5.82221950946582,0.787784457940408,341.553799045788
738234.56260435120202600956,5.77298298084455,0.738547929319132,341.566108177943
738234.56260444165673106909,5.85914690593178,0.861639250872321,341.541489913633
738234.56260453211143612862,5.79760124515519,0.76316619362977,341.492253385011
738234.56260462256614118814,5.76067384868923,0.726238797163813,341.492253385011
738234.56260471290443092585,5.79760124515519,0.812402722251045,341.516871649322
738234.56260480335913598537,5.78529211299987,0.787784457940408,341.492253385011
738234.56260489381384104490,5.76067384868923,0.76316619362977,341.603035574409
738234.56260498426854610443,5.82221950946582,0.800093590095726,341.676890367341
738234.56260507472325116396,6.10532954903816,1.09551276182338,341.492253385011
738234.56260516517795622349,6.61000396740623,1.698660237434,340.975269834488
738234.56260525551624596119,6.7207861568041,1.57556891588082,340.458286283965
738234.56260534597095102072,6.05609302041688,0.590838343455306,340.716778059226
738234.56260543642565608025,5.71143732006795,0.418510493280842,341.196834213284
738234.56260552688036113977,5.8714560380871,0.750857061474451,341.455325988545
738234.56260561733506619930,5.77298298084455,0.689311400697857,341.455325988545
738234.56260570778977125883,5.84683777377646,0.775475325785089,341.467635120701
738234.56260579812806099653,5.8714560380871,0.849330118717002,341.541489913633
738234.56260588858276605606,5.79760124515519,0.787784457940408,341.566108177943
738234.56260597903747111559,5.85914690593178,0.837020986561683,341.504562517167
738234.56260606949217617512,5.90838343455306,0.923184911648915,341.504562517167
738234.56260615994688123465,5.84683777377646,0.849330118717002,341.516871649322
738234.56260625040158629417,5.88376517024242,0.87394838302764,341.516871649322
738234.56260634085629135370,5.90838343455306,0.910875779493596,341.529180781477
738234.56260643119458109140,5.93300169886369,0.935494043804234,341.566108177943
738234.56260652164928615093,5.92069256670838,0.923184911648915,341.615344706565
738234.56260661210399121046,5.95761996317433,0.960112308114872,341.553799045788
738234.56260670255869626999,5.93300169886369,0.947803175959553,341.541489913633
738234.56260679301340132952,5.96992909532965,0.984730572425509,341.65227210303
738234.56260688346810638905,5.99454735964029,0.997039704580828,341.578417310099
738234.56260697380639612675,6.0684021525722,1.05858536535742,341.516871649322
738234.56260706426110118628,6.01916562395093,1.08320362966806,341.541489913633
738234.56260715471580624580,6.05609302041688,1.07089449751274,341.566108177943
738234.56260724517051130533,6.10532954903816,1.14474929044465,341.566108177943
738234.56260733562521636486,6.14225694550411,1.16936755475529,341.516871649322
738234.56260742607992142439,6.17918434197007,1.24322234768721,341.590726442254
738234.56260751641821116209,6.24073000274667,1.3047680084638,341.590726442254
738234.56260760687291622162,6.2653482670573,1.34169540492976,341.566108177943
738234.56260769732762128115,6.30227566352326,1.39093193355103,341.566108177943
738234.56260778778232634068,6.31458479567858,1.41555019786167,341.566108177943
738234.56260787823703140020,6.35151219214454,1.46478672648295,341.553799045788
738234.56260796869173645973,6.3268939278339,1.41555019786167,341.492253385011
738234.56260805903002619743,6.31458479567858,1.39093193355103,341.553799045788
738234.56260814948473125696,6.21611173843603,1.28014974415316,341.529180781477
738234.56260823993943631649,6.11763868119348,1.16936755475529,341.455325988545
738234.56260833039414137602,6.05609302041688,1.07089449751274,341.541489913633
738234.56260842084884643555,6.00685649179561,1.00934883673615,341.529180781477
738234.56260851130355149508,5.95761996317433,0.960112308114872,341.529180781477
738234.56260860164184123278,5.89607430239774,0.910875779493596,341.467635120701
738234.56260869209654629230,5.85914690593178,0.849330118717002,341.529180781477
738234.56260878255125135183,5.90838343455306,0.898566647338277,341.467635120701
738234.56260887300595641136,5.82221950946582,0.800093590095726,341.344543799148
738234.56260896346066147089,5.83452864162114,0.824711854406364,341.541489913633
738234.56260905391536653042,5.84683777377646,0.824711854406364,341.553799045788
738234.56260914437007158995,5.83452864162114,0.824711854406364,341.529180781477
738234.56260923470836132765,5.84683777377646,0.824711854406364,341.430707724235
738234.56260932516306638718,5.84683777377646,0.837020986561683,341.529180781477
738234.56260941561777144670,5.84683777377646,0.837020986561683,341.529180781477
738234.56260950607247650623,5.83452864162114,0.837020986561683,341.504562517167
738234.56260959652718156576,5.83452864162114,0.837020986561683,341.541489913633
738234.56260968698188662529,5.82221950946582,0.837020986561683,341.553799045788
738234.56260977732017636299,5.82221950946582,0.837020986561683,341.516871649322
738234.56260986777488142252,5.83452864162114,0.837020986561683,341.492253385011
738234.56260995822958648205,5.83452864162114,0.824711854406364,341.455325988545
738234.56261004868429154158,5.83452864162114,0.837020986561683,341.467635120701
738234.56261013913899660110,5.84683777377646,0.837020986561683,341.430707724235
738234.56261022959370166063,5.83452864162114,0.824711854406364,341.467635120701
738234.56261031993199139833,5.82221950946582,0.824711854406364,341.455325988545
738234.56261041038669645786,5.84683777377646,0.849330118717002,341.504562517167
738234.56261050084140151739,5.82221950946582,0.824711854406364,341.529180781477
738234.56261059129610657692,5.82221950946582,0.812402722251045,341.516871649322
738234.56261068175081163645,5.82221950946582,0.800093590095726,341.529180781477
738234.56261077220551669598,5.83452864162114,0.824711854406364,341.541489913633
738234.56261086254380643368,5.80991037731051,0.800093590095726,341.504562517167
738234.56261095299851149321,5.80991037731051,0.800093590095726,341.541489913633
738234.56261104345321655273,5.80991037731051,0.812402722251045,341.529180781477
738234.56261113390792161226,5.79760124515519,0.812402722251045,341.467635120701
738234.56261122436262667179,5.79760124515519,0.812402722251045,341.529180781477
738234.56261131481733173132,5.79760124515519,0.800093590095726,341.541489913633
738234.56261140527203679085,5.78529211299987,0.800093590095726,341.529180781477
738234.56261149561032652855,5.8714560380871,0.87394838302764,341.529180781477
738234.56261158606503158808,5.76067384868923,0.787784457940408,341.541489913633
738234.56261167651973664761,5.78529211299987,0.800093590095726,341.541489913633
738234.56261176697444170713,5.78529211299987,0.800093590095726,341.529180781477
738234.56261185742914676666,5.77298298084455,0.787784457940408,341.553799045788
738234.56261194788385182619,5.79760124515519,0.800093590095726,341.553799045788
738234.56261203822214156389,5.79760124515519,0.824711854406364,341.455325988545
738234.56261212867684662342,5.78529211299987,0.800093590095726,341.504562517167
738234.56261221913155168295,5.82221950946582,0.837020986561683,341.541489913633
738234.56261230958625674248,5.69912818791264,0.726238797163813,341.504562517167
738234.56261240004096180201,5.89607430239774,0.923184911648915,341.307616402682
738234.56261249049566686153,5.68681905575732,0.677002268542538,341.541489913633
738234.56261258083395659924,5.85914690593178,0.849330118717002,341.529180781477
738234.56261267128866165876,5.85914690593178,0.849330118717002,341.44301685639
738234.56261276174336671829,5.82221950946582,0.812402722251045,341.516871649322
738234.56261285219807177782,5.74836471653391,0.750857061474451,341.492253385011
738234.56261294265277683735,5.78529211299987,0.787784457940408,341.492253385011
738234.56261303310748189688,5.88376517024242,0.898566647338277,341.529180781477
738234.56261312344577163458,5.74836471653391,0.76316619362977,341.516871649322
738234.56261321390047669411,5.82221950946582,0.849330118717002,341.516871649322
738234.56261330435518175364,5.674509923602,0.726238797163813,341.529180781477
738234.56261339480988681316,5.77298298084455,0.812402722251045,341.615344706565
738234.56261348526459187269,5.8714560380871,0.898566647338277,341.529180781477
738234.56261357571929693222,5.66220079144668,0.701620532853175,341.541489913633
738234.56261366605758666992,5.90838343455306,0.935494043804234,341.492253385011
738234.56261375651229172945,5.68681905575732,0.76316619362977,341.689199499496
738234.56261384696699678898,5.76067384868923,0.800093590095726,341.726126895962
738234.56261393742170184851,6.11763868119348,1.19398581906593,341.455325988545
738234.56261402787640690804,6.7823318175807,1.93253374838506,341.23376160975
738234.56261411833111196756,6.77002268542538,1.83406069114251,340.667541530605
738234.56261420878581702709,6.20380260628071,0.87394838302764,340.605995869828
738234.56261429912410676479,5.674509923602,0.344655700348928,341.086052023886
738234.56261438957881182432,5.73605558437859,0.627765739921262,341.467635120701
738234.56261448003351688385,5.89607430239774,0.861639250872321,341.479944252856
738234.56261457048822194338,5.89607430239774,0.898566647338277,341.467635120701
738234.56261466094292700291,5.72374645222327,0.726238797163813,341.479944252856
738234.56261475139763206244,5.80991037731051,0.849330118717002,341.479944252856
738234.56261484173592180014,5.88376517024242,0.910875779493596,341.479944252856
738234.56261493219062685966,5.74836471653391,0.800093590095726,341.492253385011
738234.56261502264533191919,5.90838343455306,0.947803175959553,341.516871649322
738234.56261511310003697872,5.73605558437859,0.787784457940408,341.492253385011
738234.56261520355474203825,5.85914690593178,0.910875779493596,341.516871649322
738234.56261529400944709778,5.88376517024242,0.935494043804234,341.553799045788
738234.56261538434773683548,5.94531083101901,0.997039704580828,341.516871649322
738234.56261547480244189501,5.88376517024242,0.935494043804234,341.578417310099
738234.56261556525714695454,5.85914690593178,0.898566647338277,341.590726442254
738234.56261565571185201406,5.93300169886369,0.972421440270191,341.603035574409
738234.56261574616655707359,5.88376517024242,0.935494043804234,341.590726442254
738234.56261583662126213312,6.11763868119348,1.16936755475529,341.393780327769
738234.56261592695955187082,5.89607430239774,0.960112308114872,341.455325988545
738234.56261601741425693035,6.14225694550411,1.19398581906593,341.566108177943
738234.56261610786896198988,5.94531083101901,0.984730572425509,341.590726442254
738234.56261619832366704941,6.16687520981475,1.20629495122125,341.62765383872
738234.56261628877837210894,6.17918434197007,1.26784061199784,341.578417310099
738234.56261637923307716846,6.05609302041688,1.16936755475529,341.590726442254
738234.56261646957136690617,6.25303913490198,1.37862280139571,341.676890367341
738234.56261656002607196569,6.28996653136794,1.37862280139571,341.65227210303
738234.56261665048077702522,6.21611173843603,1.34169540492976,341.553799045788
738234.56261674093548208475,6.30227566352326,1.46478672648295,341.578417310099
738234.56261683139018714428,6.2653482670573,1.41555019786167,341.553799045788
738234.56261692184489220381,6.3268939278339,1.44016846217231,341.479944252856
738234.56261701229959726334,6.22842087059135,1.31707714061912,341.369162063458
738234.56261710263788700104,6.10532954903816,1.16936755475529,341.455325988545
738234.56261719309259206057,6.01916562395093,1.05858536535742,341.430707724235
738234.56261728354729712009,5.93300169886369,0.960112308114872,341.467635120701
738234.56261737400200217962,5.92069256670838,0.935494043804234,341.455325988545
738234.56261746445670723915,5.80991037731051,0.812402722251045,341.455325988545
738234.56261755491141229868,5.88376517024242,0.861639250872321,341.516871649322
738234.56261764524970203638,5.72374645222327,0.726238797163813,341.529180781477
738234.56261773570440709591,5.80991037731051,0.800093590095726,341.529180781477
738234.56261782615911215544,5.77298298084455,0.76316619362977,341.529180781477
738234.56261791661381721497,5.83452864162114,0.812402722251045,341.516871649322
738234.56261800706852227449,5.79760124515519,0.787784457940408,341.553799045788
738234.56261809752322733402,5.89607430239774,0.886257515182958,341.578417310099
738234.56261818786151707172,5.76067384868923,0.750857061474451,341.516871649322
738234.56261827831622213125,5.80991037731051,0.800093590095726,341.504562517167
738234.56261836877092719078,5.79760124515519,0.787784457940408,341.553799045788
738234.56261845922563225031,5.78529211299987,0.775475325785089,341.516871649322
738234.56261854968033730984,5.89607430239774,0.886257515182958,341.492253385011
738234.56261864013504236937,5.82221950946582,0.812402722251045,341.44301685639
738234.56261873047333210707,5.88376517024242,0.87394838302764,341.369162063458
738234.56261882092803716660,5.79760124515519,0.787784457940408,341.418398592079
738234.56261891138274222612,5.80991037731051,0.812402722251045,341.344543799148
738234.56261900183744728565,5.99454735964029,0.984730572425509,341.406089459924
738234.56261909229215234518,5.71143732006795,0.677002268542538,341.504562517167
738234.56261918274685740471,5.79760124515519,0.775475325785089,341.479944252856
738234.56261927320156246424,5.79760124515519,0.800093590095726,341.467635120701
738234.56261936353985220194,5.84683777377646,0.837020986561683,341.319925534837
738234.56261945399455726147,5.73605558437859,0.775475325785089,341.44301685639
738234.56261954444926232100,5.77298298084455,0.800093590095726,341.479944252856
738234.56261963490396738052,5.82221950946582,0.849330118717002,341.541489913633
738234.56261972535867244005,5.83452864162114,0.861639250872321,341.553799045788
738234.56261981581337749958,5.82221950946582,0.837020986561683,341.541489913633
738234.56261990615166723728,5.69912818791264,0.738547929319132,341.455325988545
738234.56261999660637229681,5.80991037731051,0.849330118717002,341.553799045788
738234.56262008706107735634,5.73605558437859,0.738547929319132,341.516871649322
738234.56262017751578241587,5.76067384868923,0.812402722251045,341.566108177943
738234.56262026797048747540,5.76067384868923,0.800093590095726,341.479944252856
738234.56262035842519253492,5.71143732006795,0.775475325785089,341.553799045788
738234.56262044876348227262,5.69912818791264,0.76316619362977,341.566108177943
738234.56262053921818733215,5.69912818791264,0.750857061474451,341.590726442254
738234.56262062967289239168,5.68681905575732,0.713929665008494,341.529180781477
738234.56262072012759745121,5.82221950946582,0.837020986561683,341.455325988545
738234.56262081058230251074,5.674509923602,0.713929665008494,341.393780327769
738234.56262090103700757027,5.674509923602,0.738547929319132,341.418398592079
738234.56262099137529730797,5.76067384868923,0.76316619362977,341.44301685639
738234.56262108183000236750,5.74836471653391,0.76316619362977,341.393780327769
738234.56262117228470742702,5.72374645222327,0.76316619362977,341.455325988545
738234.56262126273941248655,5.76067384868923,0.750857061474451,341.455325988545
738234.56262135319411754608,5.84683777377646,0.87394838302764,341.430707724235
738234.56262144364882260561,5.74836471653391,0.775475325785089,341.479944252856
738234.56262153398711234331,5.78529211299987,0.812402722251045,341.455325988545
738234.56262162444181740284,5.78529211299987,0.812402722251045,341.492253385011
738234.56262171489652246237,5.72374645222327,0.775475325785089,341.553799045788
738234.56262180535122752190,5.68681905575732,0.713929665008494,341.529180781477
738234.56262189580593258142,5.68681905575732,0.76316619362977,341.541489913633
738234.56262198626063764095,5.72374645222327,0.787784457940408,341.529180781477
738234.56262207671534270048,5.69912818791264,0.713929665008494,341.553799045788
738234.56262216705363243818,5.74836471653391,0.800093590095726,341.430707724235
738234.56262225750833749771,5.76067384868923,0.837020986561683,341.516871649322
738234.56262234796304255724,5.72374645222327,0.76316619362977,341.603035574409
738234.56262243841774761677,5.77298298084455,0.861639250872321,341.713817763807
738234.56262252887245267630,6.08071128472752,1.16936755475529,341.44301685639
738234.56262261932715773582,6.58538570309559,1.63711457665741,340.950651570177
738234.56262270966544747353,6.47460351369772,1.24322234768721,340.581377605518
738234.56262280012015253305,5.76067384868923,0.258491775261696,340.913724173711
738234.56262289057485759258,5.68681905575732,0.467747021902117,341.135288552507
738234.56262298102956265211,5.66220079144668,0.627765739921262,341.381471195613
738234.56262307148426771164,5.77298298084455,0.750857061474451,341.44301685639
738234.56262316193897277117,5.74836471653391,0.787784457940408,341.504562517167
738234.56262325227726250887,5.82221950946582,0.886257515182958,341.504562517167
738234.56262334273196756840,5.68681905575732,0.787784457940408,341.566108177943
738234.56262343318667262793,5.76067384868923,0.812402722251045,341.479944252856
738234.56262352364137768745,5.79760124515519,0.886257515182958,341.553799045788
738234.56262361409608274698,5.79760124515519,0.886257515182958,341.553799045788
738234.56262370455078780651,5.82221950946582,0.87394838302764,341.529180781477
738234.56262379488907754421,5.80991037731051,0.923184911648915,341.603035574409
738234.56262388534378260374,5.82221950946582,0.935494043804234,341.479944252856
738234.56262397579848766327,5.8714560380871,0.984730572425509,341.553799045788
738234.56262406625319272280,5.92069256670838,0.984730572425509,341.430707724235
738234.56262415670789778233,5.79760124515519,0.87394838302764,341.455325988545
738234.56262424716260284185,5.83452864162114,0.972421440270191,341.467635120701
738234.56262433750089257956,5.8714560380871,0.984730572425509,341.455325988545
738234.56262442795559763908,5.92069256670838,1.03396710104678,341.553799045788
738234.56262451841030269861,5.90838343455306,1.02165796889147,341.541489913633
738234.56262460886500775814,5.99454735964029,1.09551276182338,341.590726442254
738234.56262469931971281767,6.0684021525722,1.20629495122125,341.578417310099
738234.56262478977441787720,5.95761996317433,1.08320362966806,341.553799045788
738234.56262488022912293673,6.05609302041688,1.21860408337657,341.553799045788
738234.56262497056741267443,6.10532954903816,1.3047680084638,341.553799045788
738234.56262506102211773396,6.22842087059135,1.40324106570635,341.504562517167
738234.56262515147682279348,6.11763868119348,1.3047680084638,341.603035574409
738234.56262524193152785301,6.17918434197007,1.36631366924039,341.590726442254
738234.56262533238623291254,6.16687520981475,1.31707714061912,341.467635120701
738234.56262542284093797207,6.15456607765943,1.37862280139571,341.578417310099
738234.56262551317922770977,6.1299478133488,1.32938627277444,341.590726442254
738234.56262560363393276930,6.09302041688284,1.24322234768721,341.418398592079
738234.56262569408863782883,6.01916562395093,1.15705842259997,341.504562517167
738234.56262578454334288836,5.93300169886369,1.0462762332021,341.541489913633
738234.56262587499804794788,5.79760124515519,0.87394838302764,341.455325988545
738234.56262596545275300741,5.79760124515519,0.837020986561683,341.492253385011
738234.56262605579104274511,5.78529211299987,0.861639250872321,341.529180781477
738234.56262614624574780464,5.674509923602,0.76316619362977,341.492253385011
738234.56262623670045286417,5.64989165929136,0.713929665008494,341.492253385011
738234.56262632715515792370,5.72374645222327,0.750857061474451,341.529180781477
738234.56262641760986298323,5.68681905575732,0.76316619362977,341.381471195613
738234.56262650806456804276,5.71143732006795,0.800093590095726,341.332234666992
738234.56262659840285778046,5.63758252713604,0.677002268542538,341.541489913633
738234.56262668885756283998,5.76067384868923,0.800093590095726,341.516871649322
738234.56262677931226789951,5.66220079144668,0.713929665008494,341.393780327769
738234.56262686976697295904,5.69912818791264,0.738547929319132,341.381471195613
738234.56262696022167801857,5.6129642628254,0.6523840042319,341.393780327769
738234.56262705067638307810,5.674509923602,0.713929665008494,341.381471195613
738234.56262714113108813763,5.674509923602,0.713929665008494,341.406089459924
738234.56262723146937787533,5.71143732006795,0.726238797163813,341.430707724235
738234.56262732192408293486,5.62527339498072,0.677002268542538,341.418398592079
738234.56262741237878799438,5.60065513067009,0.689311400697857,341.516871649322
738234.56262750283349305391,5.674509923602,0.750857061474451,341.492253385011
738234.56262759328819811344,5.74836471653391,0.775475325785089,341.467635120701
738234.56262768374290317297,5.66220079144668,0.726238797163813,341.541489913633
738234.56262777408119291067,5.69912818791264,0.775475325785089,341.479944252856
738234.56262786453589797020,5.72374645222327,0.775475325785089,341.541489913633
738234.56262795499060302973,5.68681905575732,0.750857061474451,341.566108177943
738234.56262804544530808926,5.58834599851477,0.615456607765943,341.553799045788
738234.56262813590001314878,5.69912818791264,0.738547929319132,341.479944252856
738234.56262822635471820831,5.674509923602,0.750857061474451,341.516871649322
738234.56262831669300794601,5.64989165929136,0.726238797163813,341.516871649322
738234.56262840714771300554,5.71143732006795,0.787784457940408,341.319925534837
738234.56262849760241806507,5.64989165929136,0.726238797163813,341.44301685639
738234.56262858805712312460,5.55141860204881,0.640074872076581,341.406089459924
738234.56262867851182818413,5.62527339498072,0.775475325785089,341.418398592079
738234.56262876896653324366,5.6129642628254,0.701620532853175,341.44301685639
738234.56262885930482298136,5.60065513067009,0.640074872076581,341.430707724235
738234.56262894975952804089,5.74836471653391,0.76316619362977,341.455325988545
738234.56262904021423310041,5.71143732006795,0.738547929319132,341.467635120701
738234.56262913066893815994,5.62527339498072,0.640074872076581,341.393780327769
738234.56262922112364321947,5.76067384868923,0.738547929319132,341.430707724235
738234.56262931157834827900,5.69912818791264,0.713929665008494,341.44301685639
738234.56262940191663801670,5.72374645222327,0.738547929319132,341.369162063458
738234.56262949237134307623,5.69912818791264,0.726238797163813,341.418398592079
738234.56262958282604813576,5.69912818791264,0.76316619362977,341.479944252856
738234.56262967328075319529,5.64989165929136,0.713929665008494,341.455325988545
738234.56262976373545825481,5.63758252713604,0.713929665008494,341.479944252856
738234.56262985419016331434,5.55141860204881,0.640074872076581,341.430707724235
738234.56262994464486837387,5.55141860204881,0.701620532853175,341.307616402682
738234.56263003498315811157,5.64989165929136,0.750857061474451,341.332234666992
738234.56263012543786317110,5.62527339498072,0.726238797163813,341.406089459924
738234.56263021589256823063,5.674509923602,0.738547929319132,341.541489913633
738234.56263030634727329016,5.66220079144668,0.775475325785089,341.689199499496
738234.56263039680197834969,5.95761996317433,0.984730572425509,341.319925534837
738234.56263048725668340921,6.33920305998922,1.32938627277444,340.926033305867
738234.56263057759497314692,6.53614917447432,1.21860408337657,340.445977151809
738234.56263066804967820644,5.88376517024242,0.307728303882972,340.618305001984
738234.56263075850438326597,5.55141860204881,0.258491775261696,341.110670288196
738234.56263084895908832550,5.50218207342753,0.406201361125523,341.295307270526
738234.56263093941379338503,5.63758252713604,0.627765739921262,341.356852931303
738234.56263102986849844456,5.74836471653391,0.775475325785089,341.356852931303
738234.56263112020678818226,5.64989165929136,0.664693136387219,341.430707724235
738234.56263121066149324179,5.78529211299987,0.787784457940408,341.467635120701
738234.56263130111619830132,5.78529211299987,0.824711854406364,341.479944252856
738234.56263139157090336084,5.69912818791264,0.750857061474451,341.479944252856
738234.56263148202560842037,5.73605558437859,0.787784457940408,341.492253385011
738234.56263157248031347990,5.69912818791264,0.76316619362977,341.418398592079
738234.56263166281860321760,5.69912818791264,0.787784457940408,341.44301685639
738234.56263175327330827713,5.74836471653391,0.837020986561683,341.418398592079
738234.56263184372801333666,5.73605558437859,0.824711854406364,341.455325988545
738234.56263193418271839619,5.80991037731051,0.898566647338277,341.479944252856
738234.56263202463742345572,5.66220079144668,0.76316619362977,341.504562517167
738234.56263211509212851524,5.79760124515519,0.898566647338277,341.504562517167
738234.56263220554683357477,5.78529211299987,0.87394838302764,341.430707724235
738234.56263229588512331247,5.80991037731051,0.910875779493596,341.504562517167
738234.56263238633982837200,5.78529211299987,0.861639250872321,341.467635120701
738234.56263247679453343153,5.94531083101901,1.02165796889147,341.418398592079
738234.56263256724923849106,5.83452864162114,0.935494043804234,341.504562517167
738234.56263265770394355059,5.90838343455306,0.997039704580828,341.479944252856
738234.56263274815864861012,5.93300169886369,1.02165796889147,341.504562517167
738234.56263283849693834782,5.96992909532965,1.07089449751274,341.479944252856
738234.56263292895164340734,6.0684021525722,1.12013102613402,341.418398592079
738234.56263301940634846687,6.04378388826156,1.13244015828934,341.418398592079
738234.56263310986105352640,6.10532954903816,1.19398581906593,341.381471195613
738234.56263320031575858593,6.14225694550411,1.24322234768721,341.307616402682
738234.56263329077046364546,6.1299478133488,1.21860408337657,341.295307270526
738234.56263338110875338316,6.0684021525722,1.20629495122125,341.295307270526
738234.56263347156345844269,6.01916562395093,1.12013102613402,341.221452477594
738234.56263356201816350222,5.99454735964029,1.03396710104678,341.25837987406
738234.56263365247286856174,5.89607430239774,0.947803175959553,341.430707724235
738234.56263374292757362127,5.73605558437859,0.775475325785089,341.406089459924
738234.56263383338227868080,5.76067384868923,0.787784457940408,341.516871649322
738234.56263392372056841850,5.73605558437859,0.750857061474451,341.529180781477
738234.56263401417527347803,5.76067384868923,0.76316619362977,341.418398592079
738234.56263410462997853756,5.71143732006795,0.750857061474451,341.381471195613
738234.56263419508468359709,5.69912818791264,0.750857061474451,341.406089459924
738234.56263428553938865662,5.64989165929136,0.689311400697857,341.44301685639
738234.56263437599409371614,5.69912818791264,0.726238797163813,341.406089459924
738234.56263446633238345385,5.68681905575732,0.738547929319132,341.393780327769
738234.56263455678708851337,5.64989165929136,0.689311400697857,341.344543799148
738234.56263464724179357290,5.68681905575732,0.726238797163813,341.418398592079
738234.56263473769649863243,5.64989165929136,0.701620532853175,341.381471195613
738234.56263482815120369196,5.68681905575732,0.738547929319132,341.406089459924
738234.56263491860590875149,5.68681905575732,0.713929665008494,341.418398592079
738234.56263500906061381102,5.69912818791264,0.738547929319132,341.369162063458
738234.56263509939890354872,5.64989165929136,0.677002268542538,341.44301685639
738234.56263518985360860825,5.64989165929136,0.677002268542538,341.467635120701
738234.56263528030831366777,5.66220079144668,0.689311400697857,341.455325988545
738234.56263537076301872730,5.64989165929136,0.677002268542538,341.406089459924
738234.56263546121772378683,5.68681905575732,0.713929665008494,341.44301685639
738234.56263555167242884636,5.66220079144668,0.701620532853175,341.381471195613
738234.56263564201071858406,5.674509923602,0.713929665008494,341.44301685639
738234.56263573246542364359,5.6129642628254,0.664693136387219,341.504562517167
738234.56263582292012870312,5.674509923602,0.701620532853175,341.393780327769
738234.56263591337483376265,5.6129642628254,0.713929665008494,341.479944252856
738234.56263600382953882217,5.68681905575732,0.701620532853175,341.467635120701
738234.56263609428424388170,5.72374645222327,0.726238797163813,341.406089459924
738234.56263618462253361940,5.674509923602,0.713929665008494,341.406089459924
738234.56263627507723867893,5.64989165929136,0.664693136387219,341.418398592079
738234.56263636553194373846,5.71143732006795,0.750857061474451,341.406089459924
738234.56263645598664879799,5.71143732006795,0.750857061474451,341.369162063458
738234.56263654644135385752,5.63758252713604,0.701620532853175,341.393780327769
738234.56263663689605891705,5.66220079144668,0.677002268542538,341.381471195613
738234.56263672723434865475,5.69912818791264,0.701620532853175,341.406089459924
738234.56263681768905371428,5.674509923602,0.664693136387219,341.406089459924
738234.56263690814375877380,5.68681905575732,0.677002268542538,341.455325988545
738234.56263699859846383333,5.76067384868923,0.750857061474451,341.356852931303
738234.56263708905316889286,5.68681905575732,0.677002268542538,341.221452477594
738234.56263717950787395239,5.68681905575732,0.664693136387219,341.418398592079
738234.56263726984616369009,5.72374645222327,0.701620532853175,341.430707724235
738234.56263736030086874962,5.674509923602,0.726238797163813,341.393780327769
738234.56263745075557380915,5.66220079144668,0.701620532853175,341.504562517167
738234.56263754121027886868,5.64989165929136,0.701620532853175,341.541489913633
738234.56263763166498392820,5.64989165929136,0.701620532853175,341.430707724235
738234.56263772211968898773,5.68681905575732,0.726238797163813,341.479944252856
738234.56263781257439404726,5.69912818791264,0.738547929319132,341.492253385011
738234.56263790291268378496,5.68681905575732,0.738547929319132,341.479944252856
738234.56263799336738884449,5.62527339498072,0.738547929319132,341.590726442254
738234.56263808382209390402,5.68681905575732,0.812402722251045,341.62765383872
738234.56263817427679896355,6.03147475610625,0.984730572425509,341.184525081128
738234.56263826473150402308,6.53614917447432,1.35400453708508,340.987578966643
738234.56263835518620908260,6.68385876033815,1.3047680084638,340.409049755343
738234.56263844552449882030,6.11763868119348,0.480056154057436,340.495213680431
738234.56263853597920387983,5.60065513067009,0.209255246640421,341.036815495265
738234.56263862643390893936,5.62527339498072,0.54160181483403,341.381471195613
738234.56263871688861399889,5.64989165929136,0.615456607765943,341.381471195613
738234.56263880734331905842,5.76067384868923,0.775475325785089,341.406089459924
738234.56263889779802411795,5.69912818791264,0.713929665008494,341.467635120701
738234.56263898813631385565,5.76067384868923,0.824711854406364,341.369162063458
738234.56263907859101891518,5.69912818791264,0.738547929319132,341.504562517167
738234.56263916904572397470,5.82221950946582,0.837020986561683,341.356852931303
738234.56263925950042903423,5.72374645222327,0.726238797163813,341.492253385011
738234.56263934995513409376,5.76067384868923,0.824711854406364,341.467635120701
738234.56263944040983915329,5.82221950946582,0.87394838302764,341.406089459924
738234.56263953074812889099,5.76067384868923,0.812402722251045,341.406089459924
738234.56263962120283395052,5.79760124515519,0.824711854406364,341.430707724235
738234.56263971165753901005,5.80991037731051,0.898566647338277,341.418398592079
738234.56263980211224406958,5.88376517024242,0.947803175959553,341.393780327769
738234.56263989256694912910,5.85914690593178,0.910875779493596,341.393780327769
738234.56263998302165418863,5.82221950946582,0.861639250872321,341.504562517167
738234.56264007347635924816,5.89607430239774,0.935494043804234,341.479944252856
738234.56264016381464898586,5.83452864162114,0.898566647338277,341.492253385011
738234.56264025426935404539,5.92069256670838,0.960112308114872,341.44301685639
738234.56264034472405910492,6.00685649179561,1.0462762332021,341.44301685639
738234.56264043517876416445,5.94531083101901,0.984730572425509,341.332234666992
738234.56264052563346922398,6.01916562395093,1.05858536535742,341.381471195613
738234.56264061608817428350,6.04378388826156,1.09551276182338,341.282998138371
738234.56264070642646402121,6.05609302041688,1.09551276182338,341.381471195613
738234.56264079688116908073,6.16687520981475,1.20629495122125,341.393780327769
738234.56264088733587414026,6.17918434197007,1.23091321553189,341.393780327769
738234.56264097779057919979,6.20380260628071,1.24322234768721,341.381471195613
738234.56264106824528425932,6.10532954903816,1.12013102613402,341.295307270526
738234.56264115869998931885,6.1299478133488,1.16936755475529,341.356852931303
738234.56264124903827905655,6.0684021525722,1.09551276182338,341.369162063458
738234.56264133949298411608,5.98223822748497,0.984730572425509,341.369162063458
738234.56264142994768917561,5.92069256670838,0.923184911648915,341.406089459924
738234.56264152040239423513,5.8714560380871,0.87394838302764,341.406089459924
738234.56264161085709929466,5.85914690593178,0.849330118717002,341.430707724235
738234.56264170131180435419,5.83452864162114,0.824711854406364,341.418398592079
738234.56264179165009409189,5.73605558437859,0.726238797163813,341.319925534837
738234.56264188210479915142,5.72374645222327,0.713929665008494,341.455325988545
738234.56264197255950421095,5.82221950946582,0.812402722251045,341.455325988545
738234.56264206301420927048,5.76067384868923,0.726238797163813,341.44301685639
738234.56264215346891433001,5.69912818791264,0.689311400697857,341.430707724235
738234.56264224392361938953,5.73605558437859,0.726238797163813,341.430707724235
738234.56264233426190912724,5.73605558437859,0.713929665008494,341.455325988545
738234.56264242471661418676,5.76067384868923,0.775475325785089,341.467635120701
738234.56264251517131924629,5.78529211299987,0.800093590095726,341.393780327769
738234.56264260562602430582,5.78529211299987,0.775475325785089,341.418398592079
738234.56264269608072936535,5.78529211299987,0.824711854406364,341.467635120701
738234.56264278653543442488,5.77298298084455,0.787784457940408,341.356852931303
738234.56264287699013948441,5.78529211299987,0.775475325785089,341.393780327769
738234.56264296732842922211,5.79760124515519,0.750857061474451,341.418398592079
738234.56264305778313428164,5.78529211299987,0.775475325785089,341.356852931303
738234.56264314823783934116,5.79760124515519,0.800093590095726,341.44301685639
738234.56264323869254440069,5.79760124515519,0.775475325785089,341.418398592079
738234.56264332914724946022,5.77298298084455,0.812402722251045,341.418398592079
738234.56264341960195451975,5.78529211299987,0.787784457940408,341.332234666992
738234.56264350994024425745,5.78529211299987,0.787784457940408,341.319925534837
738234.56264360039494931698,5.80991037731051,0.824711854406364,341.418398592079
738234.56264369084965437651,5.74836471653391,0.76316619362977,341.381471195613
738234.56264378130435943604,5.73605558437859,0.76316619362977,341.369162063458
738234.56264387175906449556,5.94531083101901,0.960112308114872,341.369162063458
738234.56264396221376955509,5.74836471653391,0.76316619362977,341.356852931303
738234.56264405255205929279,5.74836471653391,0.750857061474451,341.307616402682
738234.56264414300676435232,5.74836471653391,0.76316619362977,341.172215948973
738234.56264423346146941185,5.73605558437859,0.76316619362977,341.332234666992
738234.56264432391617447138,5.82221950946582,0.824711854406364,341.282998138371
738234.56264441437087953091,5.73605558437859,0.76316619362977,341.344543799148
738234.56264450482558459044,5.8714560380871,0.898566647338277,341.381471195613
738234.56264459516387432814,5.72374645222327,0.738547929319132,341.356852931303
738234.56264468561857938766,5.74836471653391,0.775475325785089,341.393780327769
738234.56264477607328444719,5.77298298084455,0.787784457940408,341.356852931303
738234.56264486652798950672,5.77298298084455,0.775475325785089,341.332234666992
738234.56264495698269456625,5.73605558437859,0.750857061474451,341.393780327769
738234.56264504743739962578,5.72374645222327,0.738547929319132,341.393780327769
738234.56264513777568936348,5.85914690593178,0.861639250872321,341.369162063458
738234.56264522823039442301,5.73605558437859,0.750857061474451,341.344543799148
738234.56264531868509948254,5.84683777377646,0.849330118717002,341.319925534837
738234.56264540913980454206,5.72374645222327,0.713929665008494,341.418398592079
738234.56264549959450960159,5.80991037731051,0.837020986561683,341.44301685639
738234.56264559004921466112,5.72374645222327,0.775475325785089,341.418398592079
738234.56264568050391972065,5.77298298084455,0.812402722251045,341.479944252856
738234.56264577084220945835,5.78529211299987,0.824711854406364,341.504562517167
738234.56264586129691451788,5.74836471653391,0.824711854406364,341.479944252856
738234.56264595175161957741,5.77298298084455,0.849330118717002,341.455325988545
738234.56264604220632463694,5.77298298084455,0.837020986561683,341.504562517167
738234.56264613266102969646,5.77298298084455,0.824711854406364,341.504562517167
738234.56264622311573475599,5.72374645222327,0.837020986561683,341.553799045788
738234.56264631345402449369,5.90838343455306,0.935494043804234,341.479944252856
738234.56264640390872955322,6.43767611723177,1.46478672648295,341.07374289173
738234.56264649436343461275,6.79464094973601,1.60018718019145,340.445977151809
738234.56264658481813967228,6.2653482670573,0.775475325785089,340.495213680431
738234.56264667527284473181,5.674509923602,0.356964832504247,341.04912462742
738234.56264676572754979134,5.66220079144668,0.603147475610625,341.307616402682
738234.56264685606583952904,5.78529211299987,0.750857061474451,341.332234666992
738234.56264694652054458857,5.82221950946582,0.812402722251045,341.344543799148
738234.56264703697524964809,5.84683777377646,0.861639250872321,341.344543799148
738234.56264712742995470762,5.88376517024242,0.910875779493596,341.332234666992
738234.56264721788465976715,5.82221950946582,0.861639250872321,341.418398592079
738234.56264730833936482668,5.84683777377646,0.898566647338277,341.430707724235
738234.56264739867765456438,5.79760124515519,0.849330118717002,341.406089459924
738234.56264748913235962391,5.83452864162114,0.87394838302764,341.406089459924
738234.56264757958706468344,5.8714560380871,0.910875779493596,341.369162063458
738234.56264767004176974297,5.83452864162114,0.87394838302764,341.172215948973
738234.56264776049647480249,5.80991037731051,0.849330118717002,341.369162063458
738234.56264785095117986202,5.92069256670838,0.947803175959553,341.344543799148
738234.56264794140588492155,5.8714560380871,0.910875779493596,341.430707724235
738234.56264803174417465925,5.90838343455306,0.947803175959553,341.418398592079
738234.56264812219887971878,5.93300169886369,0.984730572425509,341.356852931303
738234.56264821265358477831,5.89607430239774,0.935494043804234,341.418398592079
738234.56264830310828983784,6.05609302041688,1.09551276182338,341.418398592079
738234.56264839356299489737,5.95761996317433,0.997039704580828,341.381471195613
738234.56264848401769995689,6.09302041688284,1.12013102613402,341.418398592079
738234.56264857435598969460,6.08071128472752,1.12013102613402,341.44301685639
738234.56264866481069475412,6.08071128472752,1.12013102613402,341.430707724235
738234.56264875526539981365,6.17918434197007,1.23091321553189,341.295307270526
738234.56264884572010487318,6.21611173843603,1.25553147984252,341.393780327769
738234.56264893617480993271,6.24073000274667,1.29245887630848,341.430707724235
738234.56264902662951499224,6.31458479567858,1.36631366924039,341.406089459924
738234.56264911696780472994,6.3268939278339,1.39093193355103,341.319925534837
738234.56264920742250978947,6.27765739921262,1.34169540492976,341.406089459924
738234.56264929787721484900,6.2653482670573,1.31707714061912,341.393780327769
738234.56264938833191990852,6.21611173843603,1.25553147984252,341.406089459924
738234.56264947878662496805,6.14225694550411,1.15705842259997,341.381471195613
738234.56264956924133002758,6.11763868119348,1.12013102613402,341.406089459924
738234.56264965957961976528,6.03147475610625,1.0462762332021,341.406089459924
738234.56264975003432482481,5.95761996317433,0.960112308114872,341.418398592079
738234.56264984048902988434,5.95761996317433,0.947803175959553,341.307616402682
738234.56264993094373494387,5.90838343455306,0.886257515182958,341.406089459924
738234.56265002139844000340,5.8714560380871,0.861639250872321,341.418398592079
738234.56265011185314506292,5.84683777377646,0.837020986561683,341.418398592079
738234.56265020219143480062,5.89607430239774,0.87394838302764,341.381471195613
738234.56265029264613986015,5.85914690593178,0.861639250872321,341.418398592079
738234.56265038310084491968,5.85914690593178,0.861639250872321,341.418398592079
738234.56265047355554997921,5.85914690593178,0.849330118717002,341.369162063458
738234.56265056401025503874,5.85914690593178,0.849330118717002,341.418398592079
738234.56265065446496009827,5.8714560380871,0.861639250872321,341.344543799148
738234.56265074491966515779,5.8714560380871,0.87394838302764,341.406089459924
738234.56265083525795489550,5.89607430239774,0.886257515182958,341.344543799148
738234.56265092571265995502,5.8714560380871,0.87394838302764,341.356852931303
738234.56265101616736501455,5.85914690593178,0.87394838302764,341.393780327769
738234.56265110662207007408,5.85914690593178,0.87394838302764,341.246070741905
738234.56265119707677513361,5.85914690593178,0.87394838302764,341.369162063458
738234.56265128753148019314,5.84683777377646,0.87394838302764,341.344543799148
738234.56265137786976993084,5.84683777377646,0.861639250872321,341.418398592079
738234.56265146832447499037,5.83452864162114,0.861639250872321,341.44301685639
738234.56265155877918004990,5.83452864162114,0.849330118717002,341.406089459924
738234.56265164923388510942,5.82221950946582,0.861639250872321,341.344543799148
738234.56265173968859016895,5.83452864162114,0.861639250872321,341.406089459924
738234.56265183014329522848,5.80991037731051,0.837020986561683,341.393780327769
738234.56265192048158496618,5.79760124515519,0.837020986561683,341.332234666992
738234.56265201093629002571,5.79760124515519,0.837020986561683,341.381471195613
738234.56265210139099508524,5.79760124515519,0.861639250872321,341.319925534837
738234.56265219184570014477,5.77298298084455,0.812402722251045,341.344543799148
738234.56265228230040520430,5.77298298084455,0.824711854406364,341.344543799148
738234.56265237275511026382,5.76067384868923,0.812402722251045,341.332234666992
738234.56265246309340000153,5.77298298084455,0.824711854406364,341.282998138371
738234.56265255354810506105,5.77298298084455,0.812402722251045,341.344543799148
738234.56265264400281012058,5.78529211299987,0.824711854406364,341.319925534837
738234.56265273445751518011,5.77298298084455,0.812402722251045,341.344543799148
738234.56265282491222023964,5.78529211299987,0.812402722251045,341.356852931303
738234.56265291536692529917,5.78529211299987,0.812402722251045,341.356852931303
738234.56265300570521503687,5.79760124515519,0.800093590095726,341.319925534837
738234.56265309615992009640,5.79760124515519,0.800093590095726,341.307616402682
738234.56265318661462515593,5.79760124515519,0.812402722251045,341.332234666992
738234.56265327706933021545,5.79760124515519,0.812402722251045,341.332234666992
738234.56265336752403527498,5.77298298084455,0.800093590095726,341.356852931303
738234.56265345797874033451,5.73605558437859,0.812402722251045,341.381471195613
738234.56265354843344539404,5.73605558437859,0.812402722251045,341.418398592079
738234.56265363877173513174,5.73605558437859,0.787784457940408,341.406089459924
738234.56265372922644019127,5.72374645222327,0.800093590095726,341.393780327769
738234.56265381968114525080,5.72374645222327,0.775475325785089,341.430707724235
738234.56265391013585031033,5.72374645222327,0.800093590095726,341.430707724235
738234.56265400059055536985,5.69912818791264,0.775475325785089,341.430707724235
738234.56265409104526042938,5.72374645222327,0.812402722251045,341.578417310099
738234.56265418138355016708,5.95761996317433,1.0462762332021,341.455325988545
738234.56265427183825522661,6.41305785292113,1.5632597837255,341.07374289173
738234.56265436229296028614,6.65924049602751,1.58787804803613,340.605995869828
738234.56265445274766534567,5.8714560380871,0.418510493280842,340.716778059226
738234.56265454320237040520,5.62527339498072,0.209255246640421,340.975269834488
738234.56265463365707546473,5.66220079144668,0.529292682678711,341.07374289173
738234.56265472399536520243,5.69912818791264,0.713929665008494,341.282998138371
738234.56265481445007026196,5.76067384868923,0.812402722251045,341.369162063458
738234.56265490490477532148,5.76067384868923,0.849330118717002,341.418398592079
738234.56265499535948038101,5.78529211299987,0.87394838302764,341.369162063458
738234.56265508581418544054,5.78529211299987,0.861639250872321,341.393780327769
738234.56265517626889050007,5.77298298084455,0.87394838302764,341.430707724235
738234.56265526660718023777,5.78529211299987,0.886257515182958,341.381471195613
738234.56265535706188529730,5.78529211299987,0.923184911648915,341.393780327769
738234.56265544751659035683,5.79760124515519,0.935494043804234,341.406089459924
738234.56265553797129541636,5.79760124515519,0.935494043804234,341.406089459924
738234.56265562842600047588,5.82221950946582,0.972421440270191,341.381471195613
738234.56265571888070553541,5.83452864162114,0.972421440270191,341.393780327769
738234.56265580933541059494,5.83452864162114,0.984730572425509,341.418398592079
738234.56265589967370033264,5.84683777377646,1.02165796889147,341.369162063458
738234.56265599012840539217,5.8714560380871,1.07089449751274,341.369162063458
738234.56265608058311045170,5.90838343455306,1.09551276182338,341.369162063458
738234.56265617103781551123,5.93300169886369,1.12013102613402,341.369162063458
738234.56265626149252057076,5.93300169886369,1.13244015828934,341.381471195613
738234.56265635194722563028,5.98223822748497,1.15705842259997,341.393780327769
738234.56265644228551536798,6.00685649179561,1.21860408337657,341.356852931303
738234.56265653274022042751,6.05609302041688,1.28014974415316,341.344543799148
738234.56265662319492548704,6.09302041688284,1.32938627277444,341.406089459924
738234.56265671364963054657,6.14225694550411,1.36631366924039,341.393780327769
738234.56265680410433560610,6.14225694550411,1.40324106570635,341.381471195613
738234.56265689455904066563,6.17918434197007,1.41555019786167,341.344543799148
738234.56265698489733040333,6.20380260628071,1.42785933001699,341.369162063458
738234.56265707535203546286,6.15456607765943,1.42785933001699,341.356852931303
738234.56265716580674052238,6.17918434197007,1.37862280139571,341.369162063458
738234.56265725626144558191,6.11763868119348,1.3047680084638,341.319925534837
738234.56265734671615064144,5.99454735964029,1.18167668691061,341.332234666992
738234.56265743717085570097,5.94531083101901,1.08320362966806,341.307616402682
738234.56265752750914543867,5.85914690593178,1.00934883673615,341.356852931303
738234.56265761796385049820,5.82221950946582,0.947803175959553,341.381471195613
738234.56265770841855555773,5.77298298084455,0.910875779493596,341.406089459924
738234.56265779887326061726,5.71143732006795,0.87394838302764,341.467635120701
738234.56265788932796567678,5.73605558437859,0.861639250872321,341.393780327769
738234.56265797978267073631,5.68681905575732,0.837020986561683,341.418398592079
738234.56265807012096047401,5.69912818791264,0.849330118717002,341.44301685639
738234.56265816057566553354,5.68681905575732,0.837020986561683,341.270689006216
738234.56265825103037059307,5.69912818791264,0.824711854406364,341.295307270526
738234.56265834148507565260,5.69912818791264,0.849330118717002,341.418398592079
738234.56265843193978071213,5.71143732006795,0.849330118717002,341.430707724235
738234.56265852239448577166,5.69912818791264,0.849330118717002,341.381471195613
738234.56265861284919083118,5.68681905575732,0.849330118717002,341.455325988545
738234.56265870318748056889,5.71143732006795,0.87394838302764,341.467635120701
738234.56265879364218562841,5.68681905575732,0.861639250872321,341.44301685639
738234.56265888409689068794,5.68681905575732,0.849330118717002,341.430707724235
738234.56265897455159574747,5.68681905575732,0.837020986561683,341.430707724235
738234.56265906500630080700,5.68681905575732,0.861639250872321,341.479944252856
738234.56265915546100586653,5.68681905575732,0.849330118717002,341.356852931303
738234.56265924579929560423,5.68681905575732,0.849330118717002,341.270689006216
738234.56265933625400066376,5.68681905575732,0.849330118717002,341.393780327769
738234.56265942670870572329,5.68681905575732,0.849330118717002,341.393780327769
738234.56265951716341078281,5.68681905575732,0.837020986561683,341.344543799148
738234.56265960761811584234,5.68681905575732,0.849330118717002,341.332234666992
738234.56265969807282090187,5.69912818791264,0.837020986561683,341.344543799148
738234.56265978841111063957,5.68681905575732,0.837020986561683,341.307616402682
738234.56265987886581569910,5.68681905575732,0.824711854406364,341.295307270526
738234.56265996932052075863,5.69912818791264,0.824711854406364,341.369162063458
738234.56266005977522581816,5.68681905575732,0.824711854406364,341.270689006216
738234.56266015022993087769,5.71143732006795,0.824711854406364,341.295307270526
738234.56266024068463593721,5.72374645222327,0.824711854406364,341.344543799148
738234.56266033102292567492,5.73605558437859,0.837020986561683,341.332234666992
738234.56266042147763073444,5.73605558437859,0.837020986561683,341.270689006216
738234.56266051193233579397,5.69912818791264,0.824711854406364,341.356852931303
738234.56266060238704085350,5.68681905575732,0.837020986561683,341.406089459924
738234.56266069284174591303,5.68681905575732,0.837020986561683,341.44301685639
738234.56266078329645097256,5.69912818791264,0.837020986561683,341.282998138371
738234.56266087363474071026,5.69912818791264,0.849330118717002,341.356852931303
738234.56266096408944576979,5.68681905575732,0.837020986561683,341.344543799148
738234.56266105454415082932,5.68681905575732,0.837020986561683,341.344543799148
738234.56266114499885588884,5.68681905575732,0.837020986561683,341.319925534837
738234.56266123545356094837,5.66220079144668,0.824711854406364,341.418398592079
738234.56266132590826600790,5.73605558437859,0.886257515182958,341.455325988545
738234.56266141636297106743,6.1299478133488,1.24322234768721,341.196834213284
738234.56266150670126080513,6.59769483525091,1.63711457665741,340.790632852158
738234.56266159715596586466,6.51153091016368,1.19398581906593,340.445977151809
738234.56266168761067092419,5.62527339498072,0.123091321553189,340.642923266294
738234.56266177806537598372,5.6129642628254,0.332346568193609,340.889105909401
738234.56266186852008104324,5.63758252713604,0.627765739921262,341.25837987406
738234.56266195897478610277,5.69912818791264,0.76316619362977,341.393780327769
738234.56266204931307584047,5.76067384868923,0.861639250872321,341.393780327769
738234.56266213976778090000,5.76067384868923,0.898566647338277,341.393780327769
738234.56266223022248595953,5.77298298084455,0.910875779493596,341.406089459924
738234.56266232067719101906,5.78529211299987,0.910875779493596,341.418398592079
738234.56266241113189607859,5.79760124515519,0.947803175959553,341.455325988545
738234.56266250158660113811,5.79760124515519,0.947803175959553,341.455325988545
738234.56266259192489087582,5.80991037731051,0.947803175959553,341.393780327769
738234.56266268237959593534,5.82221950946582,0.972421440270191,341.418398592079
738234.56266277283430099487,5.84683777377646,0.972421440270191,341.418398592079
738234.56266286328900605440,5.84683777377646,0.984730572425509,341.381471195613
738234.56266295374371111393,5.8714560380871,1.00934883673615,341.381471195613
738234.56266304419841617346,5.88376517024242,1.03396710104678,341.455325988545
738234.56266313453670591116,5.90838343455306,1.03396710104678,341.430707724235
738234.56266322499141097069,5.92069256670838,1.07089449751274,341.344543799148
738234.56266331544611603022,5.94531083101901,1.09551276182338,341.393780327769
738234.56266340590082108974,5.98223822748497,1.13244015828934,341.44301685639
738234.56266349635552614927,6.00685649179561,1.15705842259997,341.319925534837
738234.56266358681023120880,6.04378388826156,1.20629495122125,341.44301685639
738234.56266367726493626833,6.08071128472752,1.24322234768721,341.393780327769
738234.56266376760322600603,6.1299478133488,1.3047680084638,341.307616402682
738234.56266385805793106556,6.15456607765943,1.34169540492976,341.307616402682
738234.56266394851263612509,6.17918434197007,1.36631366924039,341.332234666992
738234.56266403896734118462,6.20380260628071,1.40324106570635,341.295307270526
738234.56266412942204624414,6.22842087059135,1.40324106570635,341.282998138371
738234.56266421987675130367,6.21611173843603,1.40324106570635,341.332234666992
738234.56266431021504104137,6.17918434197007,1.36631366924039,341.25837987406
738234.56266440066974610090,6.11763868119348,1.26784061199784,341.23376160975
738234.56266449112445116043,6.0684021525722,1.23091321553189,341.23376160975
738234.56266458157915621996,5.99454735964029,1.13244015828934,341.25837987406
738234.56266467203386127949,5.93300169886369,1.0462762332021,341.246070741905
738234.56266476248856633902,5.85914690593178,0.984730572425509,341.246070741905
738234.56266485282685607672,5.82221950946582,0.935494043804234,341.270689006216
738234.56266494328156113625,5.79760124515519,0.910875779493596,341.282998138371
738234.56266503373626619577,5.77298298084455,0.886257515182958,341.332234666992
738234.56266512419097125530,5.76067384868923,0.886257515182958,341.356852931303
738234.56266521464567631483,5.76067384868923,0.87394838302764,341.122979420352
738234.56266530510038137436,5.76067384868923,0.861639250872321,341.246070741905
738234.56266539543867111206,5.77298298084455,0.87394838302764,341.356852931303
738234.56266548589337617159,5.76067384868923,0.861639250872321,341.356852931303
738234.56266557634808123112,5.76067384868923,0.861639250872321,341.369162063458
738234.56266566680278629065,5.77298298084455,0.87394838302764,341.406089459924
738234.56266575725749135017,5.77298298084455,0.861639250872321,341.381471195613
738234.56266584771219640970,5.76067384868923,0.861639250872321,341.332234666992
738234.56266593805048614740,5.77298298084455,0.87394838302764,341.381471195613
738234.56266602850519120693,5.76067384868923,0.861639250872321,341.356852931303
738234.56266611895989626646,5.77298298084455,0.87394838302764,341.381471195613
738234.56266620941460132599,5.77298298084455,0.849330118717002,341.369162063458
738234.56266629986930638552,5.78529211299987,0.861639250872321,341.406089459924
738234.56266639032401144505,5.77298298084455,0.861639250872321,341.406089459924
738234.56266648077871650457,5.74836471653391,0.861639250872321,341.430707724235
738234.56266657111700624228,5.76067384868923,0.861639250872321,341.430707724235
738234.56266666157171130180,5.76067384868923,0.861639250872321,341.332234666992
738234.56266675202641636133,5.74836471653391,0.861639250872321,341.406089459924
738234.56266684248112142086,5.74836471653391,0.861639250872321,341.44301685639
738234.56266693293582648039,5.74836471653391,0.861639250872321,341.44301685639
738234.56266702339053153992,5.74836471653391,0.861639250872321,341.319925534837
738234.56266711372882127762,5.74836471653391,0.849330118717002,341.332234666992
738234.56266720418352633715,5.76067384868923,0.837020986561683,341.381471195613
738234.56266729463823139668,5.76067384868923,0.849330118717002,341.381471195613
738234.56266738509293645620,5.74836471653391,0.837020986561683,341.332234666992
738234.56266747554764151573,5.74836471653391,0.837020986561683,341.246070741905
738234.56266756600234657526,5.77298298084455,0.837020986561683,341.25837987406
738234.56266765634063631296,5.78529211299987,0.837020986561683,341.270689006216
738234.56266774679534137249,5.78529211299987,0.837020986561683,341.221452477594
738234.56266783725004643202,5.78529211299987,0.849330118717002,341.25837987406
738234.56266792770475149155,5.76067384868923,0.849330118717002,341.25837987406
738234.56266801815945655107,5.73605558437859,0.837020986561683,341.307616402682
738234.56266810861416161060,5.74836471653391,0.861639250872321,341.295307270526
738234.56266819895245134830,5.76067384868923,0.87394838302764,341.282998138371
738234.56266828940715640783,5.73605558437859,0.849330118717002,341.295307270526
738234.56266837986186146736,5.73605558437859,0.849330118717002,341.307616402682
738234.56266847031656652689,5.74836471653391,0.861639250872321,341.295307270526
738234.56266856077127158642,5.73605558437859,0.861639250872321,341.282998138371
738234.56266865122597664595,5.69912818791264,0.861639250872321,341.418398592079
738234.56266874156426638365,5.84683777377646,0.984730572425509,341.406089459924
738234.56266883201897144318,6.28996653136794,1.40324106570635,340.999888098799
738234.56266892247367650270,6.79464094973601,1.73558763389996,340.67985066276
738234.56266901292838156223,6.48691264585304,1.08320362966806,340.384431491033
738234.56266910338308662176,5.69912818791264,0.295419171727653,340.852178512935
738234.56266919383779168129,5.6129642628254,0.516983550523392,341.246070741905
738234.56266928429249674082,5.72374645222327,0.750857061474451,341.246070741905
738234.56266937463078647852,5.80991037731051,0.87394838302764,341.356852931303
738234.56266946508549153805,5.80991037731051,0.910875779493596,341.406089459924
738234.56266955554019659758,5.82221950946582,0.935494043804234,341.369162063458
738234.56266964599490165710,5.82221950946582,0.947803175959553,341.418398592079
738234.56266973644960671663,5.83452864162114,0.972421440270191,341.44301685639
738234.56266982690431177616,5.82221950946582,0.960112308114872,341.467635120701
738234.56266991724260151386,5.84683777377646,0.984730572425509,341.430707724235
738234.56267000769730657339,5.84683777377646,0.984730572425509,341.467635120701
738234.56267009815201163292,5.85914690593178,1.00934883673615,341.467635120701
738234.56267018860671669245,5.88376517024242,1.02165796889147,341.430707724235
738234.56267027906142175198,5.90838343455306,1.05858536535742,341.430707724235
738234.56267036951612681150,5.92069256670838,1.05858536535742,341.44301685639
738234.56267045985441654921,5.93300169886369,1.08320362966806,341.492253385011
738234.56267055030912160873,5.94531083101901,1.09551276182338,341.381471195613
738234.56267064076382666826,5.96992909532965,1.1078218939787,341.406089459924
738234.56267073121853172779,5.99454735964029,1.13244015828934,341.467635120701
738234.56267082167323678732,6.03147475610625,1.16936755475529,341.467635120701
738234.56267091212794184685,6.0684021525722,1.21860408337657,341.381471195613
738234.56267100246623158455,6.09302041688284,1.25553147984252,341.479944252856
738234.56267109292093664408,6.1299478133488,1.28014974415316,341.492253385011
738234.56267118337564170361,6.17918434197007,1.32938627277444,341.369162063458
738234.56267127383034676313,6.22842087059135,1.37862280139571,341.381471195613
738234.56267136428505182266,6.22842087059135,1.41555019786167,341.381471195613
738234.56267145473975688219,6.25303913490198,1.42785933001699,341.307616402682
738234.56267154519446194172,6.28996653136794,1.45247759432763,341.344543799148
738234.56267163553275167942,6.27765739921262,1.45247759432763,341.344543799148
738234.56267172598745673895,6.24073000274667,1.39093193355103,341.369162063458
738234.56267181644216179848,6.17918434197007,1.31707714061912,341.356852931303
738234.56267190689686685801,6.1299478133488,1.26784061199784,341.369162063458
738234.56267199735157191753,6.05609302041688,1.18167668691061,341.381471195613
738234.56267208780627697706,5.98223822748497,1.09551276182338,341.344543799148
738234.56267217814456671476,5.90838343455306,1.02165796889147,341.381471195613
738234.56267226859927177429,5.88376517024242,0.984730572425509,341.319925534837
738234.56267235905397683382,5.85914690593178,0.947803175959553,341.196834213284
738234.56267244950868189335,5.82221950946582,0.910875779493596,341.369162063458
738234.56267253996338695288,5.80991037731051,0.898566647338277,341.356852931303
738234.56267263041809201241,5.78529211299987,0.886257515182958,341.356852931303
738234.56267272075638175011,5.83452864162114,0.886257515182958,341.369162063458
738234.56267281121108680964,5.83452864162114,0.886257515182958,341.332234666992
738234.56267290166579186916,5.79760124515519,0.898566647338277,341.344543799148
738234.56267299212049692869,5.83452864162114,0.910875779493596,341.307616402682
738234.56267308257520198822,5.83452864162114,0.898566647338277,341.319925534837
738234.56267317302990704775,5.83452864162114,0.898566647338277,341.369162063458
738234.56267326336819678545,5.82221950946582,0.898566647338277,341.282998138371
738234.56267335382290184498,5.82221950946582,0.898566647338277,341.393780327769
738234.56267344427760690451,5.80991037731051,0.886257515182958,341.406089459924
738234.56267353473231196404,5.80991037731051,0.898566647338277,341.44301685639
738234.56267362518701702356,5.82221950946582,0.910875779493596,341.319925534837
738234.56267371564172208309,5.83452864162114,0.898566647338277,341.381471195613
738234.56267380598001182079,5.83452864162114,0.898566647338277,341.418398592079
738234.56267389643471688032,5.84683777377646,0.898566647338277,341.393780327769
738234.56267398688942193985,5.82221950946582,0.898566647338277,341.344543799148
738234.56267407734412699938,5.82221950946582,0.898566647338277,341.44301685639
738234.56267416779883205891,5.82221950946582,0.898566647338277,341.44301685639
738234.56267425825353711843,5.82221950946582,0.898566647338277,341.23376160975
738234.56267434870824217796,5.82221950946582,0.898566647338277,341.369162063458
738234.56267443904653191566,5.80991037731051,0.87394838302764,341.369162063458
738234.56267452950123697519,5.79760124515519,0.87394838302764,341.356852931303
738234.56267461995594203472,5.80991037731051,0.861639250872321,341.270689006216
738234.56267471041064709425,5.80991037731051,0.861639250872321,341.332234666992
738234.56267480086535215378,5.82221950946582,0.861639250872321,341.356852931303
738234.56267489132005721331,5.80991037731051,0.861639250872321,341.356852931303
738234.56267498165834695101,5.80991037731051,0.861639250872321,341.282998138371
738234.56267507211305201054,5.80991037731051,0.861639250872321,341.344543799148
738234.56267516256775707006,5.79760124515519,0.861639250872321,341.44301685639
738234.56267525302246212959,5.77298298084455,0.861639250872321,341.369162063458
738234.56267534347716718912,5.78529211299987,0.849330118717002,341.406089459924
738234.56267543393187224865,5.78529211299987,0.849330118717002,341.406089459924
738234.56267552427016198635,5.77298298084455,0.849330118717002,341.381471195613
738234.56267561472486704588,5.79760124515519,0.87394838302764,341.356852931303
738234.56267570517957210541,5.78529211299987,0.861639250872321,341.393780327769
738234.56267579563427716494,5.74836471653391,0.824711854406364,341.406089459924
738234.56267588608898222446,5.73605558437859,0.824711854406364,341.393780327769
738234.56267597654368728399,5.93300169886369,1.00934883673615,341.430707724235
738234.56267606688197702169,6.44998524938709,1.58787804803613,341.04912462742
738234.56267615733668208122,6.85618661051261,1.83406069114251,340.532141076896
738234.56267624779138714075,6.27765739921262,0.886257515182958,340.47059541612
738234.56267633824609220028,5.69912818791264,0.356964832504247,340.913724173711
738234.56267642870079725981,5.64989165929136,0.603147475610625,341.25837987406
738234.56267651915550231934,5.78529211299987,0.775475325785089,341.209143345439
738234.56267660961020737886,5.84683777377646,0.886257515182958,341.295307270526
738234.56267669994849711657,5.84683777377646,0.910875779493596,341.307616402682
738234.56267679040320217609,5.84683777377646,0.910875779493596,341.344543799148
738234.56267688085790723562,5.85914690593178,0.947803175959553,341.418398592079
738234.56267697131261229515,5.85914690593178,0.947803175959553,341.44301685639
738234.56267706176731735468,5.8714560380871,0.960112308114872,341.492253385011
738234.56267715222202241421,5.8714560380871,0.960112308114872,341.418398592079
738234.56267724256031215191,5.88376517024242,0.972421440270191,341.381471195613
738234.56267733301501721144,5.89607430239774,0.984730572425509,341.393780327769
738234.56267742346972227097,5.90838343455306,1.00934883673615,341.393780327769
738234.56267751392442733049,5.90838343455306,1.00934883673615,341.406089459924
738234.56267760437913239002,5.93300169886369,1.02165796889147,341.369162063458
738234.56267769483383744955,5.93300169886369,1.0462762332021,341.455325988545
738234.56267778517212718725,5.95761996317433,1.07089449751274,341.356852931303
738234.56267787562683224678,5.98223822748497,1.1078218939787,341.418398592079
738234.56267796608153730631,6.01916562395093,1.13244015828934,341.369162063458
738234.56267805653624236584,6.05609302041688,1.16936755475529,341.393780327769
738234.56267814699094742537,6.08071128472752,1.20629495122125,341.44301685639
738234.56267823744565248489,6.10532954903816,1.25553147984252,341.467635120701
738234.56267832778394222260,6.15456607765943,1.29245887630848,341.369162063458
738234.56267841823864728212,6.19149347412539,1.34169540492976,341.430707724235
738234.56267850869335234165,6.22842087059135,1.40324106570635,341.467635120701
738234.56267859914805740118,6.25303913490198,1.44016846217231,341.430707724235
738234.56267868960276246071,6.27765739921262,1.45247759432763,341.332234666992
738234.56267878005746752024,6.28996653136794,1.45247759432763,341.393780327769
738234.56267887039575725794,6.2653482670573,1.42785933001699,341.369162063458
738234.56267896085046231747,6.21611173843603,1.35400453708508,341.282998138371
738234.56267905130516737700,6.1299478133488,1.25553147984252,341.307616402682
738234.56267914175987243652,6.05609302041688,1.15705842259997,341.307616402682
738234.56267923221457749605,5.98223822748497,1.05858536535742,341.295307270526
738234.56267932266928255558,5.92069256670838,0.984730572425509,341.23376160975
738234.56267941312398761511,5.90838343455306,0.960112308114872,341.196834213284
738234.56267950346227735281,5.8714560380871,0.923184911648915,341.369162063458
738234.56267959391698241234,5.84683777377646,0.898566647338277,341.369162063458
738234.56267968437168747187,5.80991037731051,0.87394838302764,341.381471195613
738234.56267977482639253139,5.80991037731051,0.861639250872321,341.430707724235
738234.56267986528109759092,5.79760124515519,0.849330118717002,341.393780327769
738234.56267995573580265045,5.80991037731051,0.861639250872321,341.344543799148
738234.56268004607409238815,5.80991037731051,0.849330118717002,341.418398592079
738234.56268013652879744768,5.79760124515519,0.849330118717002,341.44301685639
738234.56268022698350250721,5.80991037731051,0.861639250872321,341.319925534837
738234.56268031743820756674,5.82221950946582,0.861639250872321,341.393780327769
738234.56268040789291262627,5.82221950946582,0.849330118717002,341.418398592079
738234.56268049834761768579,5.82221950946582,0.849330118717002,341.332234666992
738234.56268058868590742350,5.82221950946582,0.849330118717002,341.356852931303
738234.56268067914061248302,5.83452864162114,0.898566647338277,341.393780327769
738234.56268076959531754255,5.80991037731051,0.861639250872321,341.332234666992
738234.56268086005002260208,5.90838343455306,0.935494043804234,341.356852931303
738234.56268095050472766161,5.74836471653391,0.787784457940408,341.406089459924
738234.56268104095943272114,5.78529211299987,0.824711854406364,341.356852931303
738234.56268113129772245884,5.79760124515519,0.824711854406364,341.332234666992
738234.56268122175242751837,5.80991037731051,0.837020986561683,341.344543799148
738234.56268131220713257790,5.8714560380871,0.910875779493596,341.418398592079
738234.56268140266183763742,5.76067384868923,0.812402722251045,341.332234666992
738234.56268149311654269695,5.80991037731051,0.849330118717002,341.332234666992
738234.56268158357124775648,5.84683777377646,0.886257515182958,341.418398592079
738234.56268167390953749418,5.80991037731051,0.849330118717002,341.344543799148
738234.56268176436424255371,5.8714560380871,0.886257515182958,341.209143345439
738234.56268185481894761324,5.76067384868923,0.775475325785089,341.319925534837
738234.56268194527365267277,5.79760124515519,0.812402722251045,341.332234666992
738234.56268203572835773230,5.79760124515519,0.812402722251045,341.23376160975
738234.56268212618306279182,5.77298298084455,0.76316619362977,341.23376160975
738234.56268221663776785135,5.92069256670838,0.923184911648915,341.23376160975
738234.56268230697605758905,5.84683777377646,0.849330118717002,341.196834213284
738234.56268239743076264858,5.80991037731051,0.849330118717002,341.270689006216
738234.56268248788546770811,5.77298298084455,0.812402722251045,341.295307270526
738234.56268257834017276764,5.68681905575732,0.726238797163813,341.307616402682
738234.56268266879487782717,5.83452864162114,0.861639250872321,341.381471195613
738234.56268275924958288670,5.84683777377646,0.898566647338277,341.344543799148
738234.56268284958787262440,5.68681905575732,0.750857061474451,341.135288552507
738234.56268294004257768393,5.83452864162114,0.886257515182958,341.282998138371
738234.56268303049728274345,5.80991037731051,0.849330118717002,341.369162063458
738234.56268312095198780298,5.83452864162114,0.861639250872321,341.356852931303
738234.56268321140669286251,5.674509923602,0.750857061474451,341.479944252856
738234.56268330186139792204,5.85914690593178,0.935494043804234,341.529180781477
738234.56268339219968765974,6.47460351369772,1.61249631234677,341.172215948973
738234.56268348265439271927,6.79464094973601,1.84636982329783,340.630614134139
738234.56268357310909777880,6.31458479567858,0.972421440270191,340.458286283965
738234.56268366356380283833,5.68681905575732,0.270800907417015,340.913724173711
738234.56268375401850789785,5.64989165929136,0.504674418368074,341.25837987406
738234.56268384447321295738,5.79760124515519,0.76316619362977,341.319925534837
738234.56268393481150269508,5.92069256670838,0.935494043804234,341.356852931303
738234.56268402526620775461,5.79760124515519,0.837020986561683,341.418398592079
738234.56268411572091281414,5.83452864162114,0.87394838302764,341.344543799148
738234.56268420617561787367,5.95761996317433,1.03396710104678,341.467635120701
738234.56268429663032293320,5.82221950946582,0.910875779493596,341.455325988545
738234.56268438708502799273,5.83452864162114,0.910875779493596,341.332234666992
738234.56268447753973305225,5.85914690593178,0.898566647338277,341.393780327769
738234.56268456787802278996,5.82221950946582,0.898566647338277,341.430707724235
738234.56268465833272784948,5.93300169886369,1.02165796889147,341.381471195613
738234.56268474878743290901,5.90838343455306,0.984730572425509,341.393780327769
738234.56268483924213796854,5.90838343455306,0.997039704580828,341.418398592079
738234.56268492969684302807,5.90838343455306,0.997039704580828,341.406089459924
738234.56268502015154808760,5.92069256670838,0.997039704580828,341.369162063458
738234.56268511048983782530,5.92069256670838,0.997039704580828,341.393780327769
738234.56268520094454288483,6.03147475610625,1.12013102613402,341.406089459924
738234.56268529139924794436,5.98223822748497,1.08320362966806,341.393780327769
738234.56268538185395300388,6.04378388826156,1.14474929044465,341.393780327769
738234.56268547230865806341,6.04378388826156,1.15705842259997,341.332234666992
738234.56268556276336312294,6.17918434197007,1.29245887630848,341.381471195613
738234.56268565310165286064,6.25303913490198,1.37862280139571,341.356852931303
738234.56268574355635792017,6.1299478133488,1.26784061199784,341.319925534837
738234.56268583401106297970,6.27765739921262,1.41555019786167,341.307616402682
738234.56268592446576803923,6.2653482670573,1.40324106570635,341.295307270526
738234.56268601492047309875,6.2653482670573,1.41555019786167,341.282998138371
738234.56268610537517815828,6.40074872076581,1.55095065157018,341.25837987406
738234.56268619571346789598,6.35151219214454,1.48940499079358,341.270689006216
738234.56268628616817295551,6.22842087059135,1.35400453708508,341.270689006216
738234.56268637662287801504,6.16687520981475,1.26784061199784,341.07374289173
738234.56268646707758307457,6.00685649179561,1.07089449751274,341.196834213284
738234.56268655753228813410,5.98223822748497,1.0462762332021,341.282998138371
