time_dn,ecg_projection_ll_ra_mV,ecg_projection_la_ra_mV,ecg_projection_vx_rl_mV
738213.71568360191304236650,11.2259285256508,1.14474929044465,330.660217088331
738213.71568369236774742603,11.2751650542721,1.18167668691061,330.672526220486
738213.71568378282245248556,11.312092450738,1.23091321553189,330.610980559709
738213.71568387327715754509,11.2874741864274,1.21860408337657,330.709453616952
738213.71568396373186260462,11.3367107150487,1.29245887630848,330.721762749107
738213.71568405418656766415,11.3736381115146,1.37862280139571,330.647907956175
738213.71568414452485740185,11.3736381115146,1.39093193355103,330.647907956175
738213.71568423497956246138,11.3613289793593,1.37862280139571,330.647907956175
738213.71568432543426752090,11.38594724367,1.41555019786167,330.647907956175
738213.71568441588897258043,11.3982563758253,1.44016846217231,330.610980559709
738213.71568450634367763996,11.38594724367,1.44016846217231,330.672526220486
738213.71568459679838269949,11.3613289793593,1.41555019786167,330.721762749107
738213.71568468725308775902,11.4228746401359,1.5017141229489,330.758690145573
738213.71568477759137749672,11.349019847204,1.40324106570635,330.721762749107
738213.71568486804608255625,11.4351837722912,1.45247759432763,330.770999277729
738213.71568495850078761578,11.38594724367,1.41555019786167,330.709453616952
738213.71568504895549267530,11.3367107150487,1.31707714061912,330.660217088331
738213.71568513941019773483,11.2997833185827,1.24322234768721,330.672526220486
738213.71568522986490279436,11.2628559221168,1.19398581906593,330.561744031088
738213.71568532031960785389,11.2259285256508,1.13244015828934,330.647907956175
738213.71568541065789759159,11.2259285256508,1.13244015828934,330.647907956175
738213.71568550111260265112,11.2136193934955,1.13244015828934,330.697144484797
738213.71568559156730771065,11.1766919970295,1.08320362966806,330.63559882402
738213.71568568202201277018,11.2259285256508,1.13244015828934,330.672526220486
738213.71568577247671782970,11.2013102613402,1.12013102613402,330.561744031088
738213.71568586293142288923,11.2136193934955,1.13244015828934,330.537125766778
738213.71568595326971262693,11.2259285256508,1.14474929044465,330.512507502467
738213.71568604372441768646,11.1890011291849,1.07089449751274,330.586362295399
738213.71568613417912274599,11.2136193934955,1.07089449751274,330.623289691865
738213.71568622463382780552,11.2505467899614,1.09551276182338,330.647907956175
738213.71568631508853286505,11.2505467899614,1.09551276182338,330.672526220486
738213.71568640554323792458,11.2136193934955,1.0462762332021,330.561744031088
738213.71568649599794298410,11.1890011291849,1.02165796889147,330.574053163243
738213.71568658633623272181,11.2382376578061,1.0462762332021,330.63559882402
738213.71568667679093778133,11.2259285256508,1.03396710104678,330.610980559709
738213.71568676724564284086,11.2136193934955,0.997039704580828,330.63559882402
738213.71568685770034790039,11.2136193934955,1.02165796889147,330.684835352641
738213.71568694815505295992,11.2628559221168,1.0462762332021,330.660217088331
738213.71568703860975801945,11.2136193934955,1.00934883673615,330.660217088331
738213.71568712906446307898,11.2013102613402,0.997039704580828,330.63559882402
738213.71568721940275281668,11.2013102613402,0.997039704580828,330.63559882402
738213.71568730985745787621,11.2751650542721,1.0462762332021,330.721762749107
738213.71568740031216293573,11.2628559221168,1.00934883673615,330.734071881263
738213.71568749076686799526,11.2259285256508,0.972421440270191,330.610980559709
738213.71568758122157305479,11.2382376578061,0.984730572425509,330.684835352641
738213.71568767167627811432,11.2259285256508,0.972421440270191,330.660217088331
738213.71568776213098317385,11.2505467899614,1.00934883673615,330.697144484797
738213.71568785246927291155,11.2628559221168,0.997039704580828,330.660217088331
738213.71568794292397797108,11.2628559221168,0.984730572425509,330.647907956175
738213.71568803337868303061,11.2382376578061,0.997039704580828,330.63559882402
738213.71568812383338809013,11.2505467899614,1.00934883673615,330.623289691865
738213.71568821428809314966,11.2136193934955,0.972421440270191,330.63559882402
738213.71568830474279820919,11.2751650542721,1.0462762332021,330.697144484797
738213.71568839519750326872,11.2505467899614,1.00934883673615,330.734071881263
738213.71568848553579300642,11.2136193934955,0.984730572425509,330.721762749107
738213.71568857599049806595,11.2259285256508,0.997039704580828,330.734071881263
738213.71568866644520312548,11.2751650542721,1.02165796889147,330.598671427554
738213.71568875689990818501,11.2751650542721,1.00934883673615,330.574053163243
738213.71568884735461324453,11.2628559221168,1.00934883673615,330.721762749107
738213.71568893780931830406,11.2751650542721,1.00934883673615,330.734071881263
738213.71568902814760804176,11.349019847204,1.08320362966806,330.672526220486
738213.71568911860231310129,11.3244015828934,1.05858536535742,330.709453616952
738213.71568920905701816082,11.349019847204,1.12013102613402,330.758690145573
738213.71568929951172322035,11.3244015828934,1.09551276182338,330.721762749107
738213.71568938996642827988,11.2751650542721,1.03396710104678,330.758690145573
738213.71568948042113333941,11.2751650542721,1.00934883673615,330.746381013418
738213.71568957087583839893,11.2628559221168,1.00934883673615,330.709453616952
738213.71568966121412813663,11.2382376578061,0.997039704580828,330.623289691865
738213.71568975166883319616,11.2013102613402,0.960112308114872,330.598671427554
738213.71568984212353825569,11.2259285256508,0.972421440270191,330.684835352641
738213.71568993257824331522,11.2505467899614,0.997039704580828,330.721762749107
738213.71569002303294837475,11.2382376578061,0.960112308114872,330.721762749107
738213.71569011348765343428,11.2382376578061,0.960112308114872,330.672526220486
738213.71569020394235849380,11.2628559221168,0.984730572425509,330.660217088331
738213.71569029428064823151,11.1890011291849,0.898566647338277,330.721762749107
738213.71569038473535329103,11.2259285256508,0.861639250872321,330.709453616952
738213.71569047519005835056,11.2013102613402,0.787784457940408,330.660217088331
738213.71569056564476341009,11.2874741864274,1.03396710104678,330.795617542039
738213.71569065609946846962,11.5459659616891,1.53864151941486,330.561744031088
738213.71569074655417352915,11.6936755475529,1.93253374838506,330.401725313069
738213.71569083700887858868,11.349019847204,1.51402325510422,330.623289691865
738213.71569092734716832638,11.0905280719423,0.824711854406364,330.63559882402
738213.71569101780187338591,10.9551276182338,0.54160181483403,330.561744031088
738213.71569110825657844543,11.1274554684083,0.750857061474451,330.660217088331
738213.71569119871128350496,11.2751650542721,0.947803175959553,330.598671427554
738213.71569128916598856449,11.2505467899614,0.935494043804234,330.623289691865
738213.71569137962069362402,11.2874741864274,0.984730572425509,330.63559882402
738213.71569147007539868355,11.2751650542721,0.960112308114872,330.598671427554
738213.71569156041368842125,11.312092450738,0.984730572425509,330.574053163243
738213.71569165086839348078,11.312092450738,1.00934883673615,330.586362295399
738213.71569174132309854031,11.2874741864274,0.984730572425509,330.598671427554
738213.71569183177780359983,11.3367107150487,0.997039704580828,330.610980559709
738213.71569192223250865936,11.3244015828934,0.984730572425509,330.561744031088
738213.71569201268721371889,11.3613289793593,1.05858536535742,330.586362295399
738213.71569210302550345659,11.3367107150487,1.02165796889147,330.598671427554
738213.71569219348020851612,11.312092450738,0.997039704580828,330.512507502467
738213.71569228393491357565,11.3244015828934,1.02165796889147,330.512507502467
738213.71569237438961863518,11.349019847204,1.02165796889147,330.63559882402
738213.71569246484432369471,11.349019847204,1.03396710104678,330.598671427554
738213.71569255529902875423,11.38594724367,1.05858536535742,330.660217088331
738213.71569264575373381376,11.3613289793593,1.03396710104678,330.647907956175
738213.71569273609202355146,11.38594724367,1.08320362966806,330.598671427554
738213.71569282654672861099,11.4105655079806,1.13244015828934,330.660217088331
738213.71569291700143367052,11.4228746401359,1.16936755475529,330.672526220486
738213.71569300745613873005,11.3982563758253,1.15705842259997,330.598671427554
738213.71569309791084378958,11.4228746401359,1.16936755475529,330.598671427554
738213.71569318836554884911,11.4721111687572,1.24322234768721,330.647907956175
738213.71569327882025390863,11.4598020366019,1.26784061199784,330.660217088331
738213.71569336915854364634,11.4474929044465,1.24322234768721,330.598671427554
738213.71569345961324870586,11.4844203009125,1.29245887630848,330.697144484797
738213.71569355006795376539,11.5090385652231,1.32938627277444,330.709453616952
738213.71569364052265882492,11.4598020366019,1.31707714061912,330.610980559709
738213.71569373097736388445,11.4721111687572,1.3047680084638,330.697144484797
738213.71569382143206894398,11.4844203009125,1.29245887630848,330.721762749107
738213.71569391188677400351,11.4844203009125,1.3047680084638,330.647907956175
738213.71569400222506374121,11.5090385652231,1.31707714061912,330.647907956175
738213.71569409267976880074,11.4967294330678,1.23091321553189,330.63559882402
738213.71569418313447386026,11.4721111687572,1.21860408337657,330.647907956175
738213.71569427358917891979,11.4351837722912,1.14474929044465,330.561744031088
738213.71569436404388397932,11.349019847204,1.07089449751274,330.487889238156
738213.71569445449858903885,11.3982563758253,1.07089449751274,330.524816634622
738213.71569454495329409838,11.3613289793593,0.984730572425509,330.561744031088
738213.71569463529158383608,11.3367107150487,0.947803175959553,330.574053163243
738213.71569472574628889561,11.3367107150487,0.960112308114872,330.549434898933
738213.71569481620099395514,11.3613289793593,1.00934883673615,330.524816634622
738213.71569490665569901466,11.349019847204,0.984730572425509,330.549434898933
738213.71569499711040407419,11.349019847204,0.972421440270191,330.524816634622
738213.71569508756510913372,11.3736381115146,0.984730572425509,330.561744031088
738213.71569517801981419325,11.3244015828934,0.935494043804234,330.524816634622
738213.71569526835810393095,11.2997833185827,0.910875779493596,330.524816634622
738213.71569535881280899048,11.3367107150487,0.923184911648915,330.561744031088
738213.71569544926751405001,11.3367107150487,0.947803175959553,330.537125766778
738213.71569553972221910954,11.38594724367,1.00934883673615,330.623289691865
738213.71569563017692416906,11.3736381115146,0.972421440270191,330.537125766778
738213.71569572063162922859,11.3367107150487,0.960112308114872,330.463270973846
738213.71569581096991896629,11.349019847204,0.947803175959553,330.414034445224
738213.71569590142462402582,11.312092450738,0.923184911648915,330.463270973846
738213.71569599187932908535,11.3244015828934,0.960112308114872,330.512507502467
738213.71569608233403414488,11.349019847204,0.972421440270191,330.524816634622
738213.71569617278873920441,11.3244015828934,0.923184911648915,330.487889238156
738213.71569626324344426394,11.2997833185827,0.886257515182958,330.487889238156
738213.71569635369814932346,11.3982563758253,0.984730572425509,330.537125766778
738213.71569644403643906116,11.349019847204,0.947803175959553,330.537125766778
738213.71569653449114412069,11.349019847204,0.935494043804234,330.574053163243
738213.71569662494584918022,11.3367107150487,0.935494043804234,330.574053163243
738213.71569671540055423975,11.3244015828934,0.910875779493596,330.574053163243
738213.71569680585525929928,11.3244015828934,0.898566647338277,330.610980559709
738213.71569689630996435881,11.3244015828934,0.923184911648915,330.610980559709
738213.71569698676466941833,11.349019847204,0.960112308114872,330.63559882402
738213.71569707710295915604,11.2997833185827,0.898566647338277,330.500198370312
738213.71569716755766421556,11.3244015828934,0.898566647338277,330.598671427554
738213.71569725801236927509,11.349019847204,0.935494043804234,330.647907956175
738213.71569734846707433462,11.3367107150487,0.935494043804234,330.549434898933
738213.71569743892177939415,11.3367107150487,0.923184911648915,330.598671427554
738213.71569752937648445368,11.2874741864274,0.87394838302764,330.623289691865
738213.71569761983118951321,11.3367107150487,0.935494043804234,330.660217088331
738213.71569771016947925091,11.3244015828934,0.935494043804234,330.574053163243
738213.71569780062418431044,11.3367107150487,0.935494043804234,330.598671427554
738213.71569789107888936996,11.3736381115146,0.972421440270191,330.598671427554
738213.71569798153359442949,11.3613289793593,0.947803175959553,330.537125766778
738213.71569807198829948902,11.3613289793593,0.960112308114872,330.610980559709
738213.71569816244300454855,11.3982563758253,0.984730572425509,330.500198370312
738213.71569825289770960808,11.4228746401359,1.02165796889147,330.500198370312
738213.71569834323599934578,11.4105655079806,1.00934883673615,330.512507502467
738213.71569843369070440531,11.38594724367,0.997039704580828,330.574053163243
738213.71569852414540946484,11.3736381115146,1.00934883673615,330.549434898933
738213.71569861460011452436,11.3736381115146,0.984730572425509,330.610980559709
738213.71569870505481958389,11.349019847204,0.960112308114872,330.512507502467
738213.71569879550952464342,11.3613289793593,0.984730572425509,330.524816634622
738213.71569888584781438112,11.312092450738,0.923184911648915,330.549434898933
738213.71569897630251944065,11.3367107150487,0.935494043804234,330.574053163243
738213.71569906675722450018,11.3244015828934,0.910875779493596,330.574053163243
738213.71569915721192955971,11.312092450738,0.923184911648915,330.574053163243
738213.71569924766663461924,11.2997833185827,0.947803175959553,330.487889238156
738213.71569933812133967876,11.2259285256508,0.87394838302764,330.537125766778
738213.71569942857604473829,11.3367107150487,0.947803175959553,330.623289691865
738213.71569951891433447599,11.3244015828934,0.861639250872321,330.574053163243
738213.71569960936903953552,11.2628559221168,0.738547929319132,330.549434898933
738213.71569969982374459505,11.349019847204,0.947803175959553,330.684835352641
738213.71569979027844965458,11.5582750938444,1.39093193355103,330.574053163243
738213.71569988073315471411,11.8290760012614,1.93253374838506,330.377107048758
738213.71569997118785977364,11.4844203009125,1.63711457665741,330.463270973846
738213.71570006164256483316,11.1890011291849,0.935494043804234,330.45096184169
738213.71570015198085457087,11.1520737327189,0.713929665008494,330.463270973846
738213.71570024243555963039,11.078218939787,0.553910946989349,330.42634357738
738213.71570033289026468992,11.2013102613402,0.775475325785089,330.475580106001
738213.71570042334496974945,11.3367107150487,0.947803175959553,330.475580106001
738213.71570051379967480898,11.3367107150487,0.935494043804234,330.475580106001
738213.71570060425437986851,11.2874741864274,0.898566647338277,330.512507502467
738213.71570069470908492804,11.3613289793593,0.972421440270191,330.487889238156
738213.71570078504737466574,11.3613289793593,0.984730572425509,330.598671427554
738213.71570087550207972527,11.3736381115146,0.984730572425509,330.574053163243
738213.71570096595678478479,11.4105655079806,0.997039704580828,330.610980559709
738213.71570105641148984432,11.2997833185827,0.898566647338277,330.549434898933
738213.71570114686619490385,11.349019847204,0.972421440270191,330.574053163243
738213.71570123732089996338,11.3982563758253,1.02165796889147,330.598671427554
738213.71570132777560502291,11.4105655079806,1.0462762332021,330.598671427554
738213.71570141811389476061,11.3613289793593,0.984730572425509,330.610980559709
738213.71570150856859982014,11.3736381115146,0.997039704580828,330.610980559709
738213.71570159902330487967,11.3244015828934,0.947803175959553,330.623289691865
738213.71570168947800993919,11.4474929044465,1.08320362966806,330.598671427554
738213.71570177993271499872,11.5336568295338,1.16936755475529,330.672526220486
738213.71570187038742005825,11.4721111687572,1.1078218939787,330.647907956175
738213.71570196084212511778,11.4228746401359,1.07089449751274,330.598671427554
738213.71570205118041485548,11.5090385652231,1.18167668691061,330.647907956175
738213.71570214163511991501,11.5090385652231,1.21860408337657,330.63559882402
738213.71570223208982497454,11.4844203009125,1.19398581906593,330.647907956175
738213.71570232254453003407,11.5582750938444,1.29245887630848,330.574053163243
738213.71570241299923509359,11.5828933581551,1.35400453708508,330.647907956175
738213.71570250345394015312,11.5828933581551,1.39093193355103,330.672526220486
738213.71570259379222989082,11.5582750938444,1.37862280139571,330.586362295399
738213.71570268424693495035,11.5336568295338,1.36631366924039,330.660217088331
738213.71570277470164000988,11.5952024903104,1.44016846217231,330.574053163243
738213.71570286515634506941,11.5828933581551,1.45247759432763,330.561744031088
738213.71570295561105012894,11.6075116224657,1.47709585863826,330.672526220486
738213.71570304606575518847,11.619820754621,1.51402325510422,330.697144484797
738213.71570313652046024799,11.5705842259997,1.45247759432763,330.660217088331
738213.71570322685874998569,11.5952024903104,1.44016846217231,330.598671427554
738213.71570331731345504522,11.5705842259997,1.39093193355103,330.598671427554
738213.71570340776816010475,11.5090385652231,1.25553147984252,330.63559882402
738213.71570349822286516428,11.4598020366019,1.19398581906593,330.524816634622
738213.71570358867757022381,11.4721111687572,1.18167668691061,330.561744031088
738213.71570367913227528334,11.4228746401359,1.13244015828934,330.438652709535
738213.71570376958698034286,11.4228746401359,1.1078218939787,330.549434898933
738213.71570385992527008057,11.4105655079806,1.1078218939787,330.537125766778
738213.71570395037997514009,11.4844203009125,1.19398581906593,330.512507502467
738213.71570404083468019962,11.4228746401359,1.15705842259997,330.463270973846
738213.71570413128938525915,11.4228746401359,1.1078218939787,330.487889238156
738213.71570422174409031868,11.4105655079806,1.1078218939787,330.45096184169
738213.71570431219879537821,11.3982563758253,1.12013102613402,330.524816634622
738213.71570440265350043774,11.3982563758253,1.09551276182338,330.524816634622
738213.71570449299179017544,11.4967294330678,1.20629495122125,330.475580106001
738213.71570458344649523497,11.4228746401359,1.12013102613402,330.487889238156
738213.71570467390120029449,11.38594724367,1.09551276182338,330.487889238156
738213.71570476435590535402,11.4844203009125,1.18167668691061,330.512507502467
738213.71570485481061041355,11.4228746401359,1.1078218939787,330.537125766778
738213.71570494526531547308,11.4351837722912,1.12013102613402,330.537125766778
738213.71570503572002053261,11.5090385652231,1.20629495122125,330.561744031088
738213.71570512605831027031,11.4598020366019,1.16936755475529,330.586362295399
738213.71570521651301532984,11.4351837722912,1.12013102613402,330.537125766778
738213.71570530696772038937,11.4228746401359,1.12013102613402,330.537125766778
738213.71570539742242544889,11.3736381115146,1.05858536535742,330.610980559709
738213.71570548787713050842,11.4228746401359,1.1078218939787,330.598671427554
738213.71570557833183556795,11.4967294330678,1.20629495122125,330.549434898933
738213.71570566867012530565,11.4351837722912,1.12013102613402,330.610980559709
738213.71570575912483036518,11.4474929044465,1.13244015828934,330.598671427554
738213.71570584957953542471,11.4105655079806,1.1078218939787,330.586362295399
738213.71570594003424048424,11.3367107150487,1.03396710104678,330.537125766778
738213.71570603048894554377,11.3613289793593,1.0462762332021,330.586362295399
738213.71570612094365060329,11.4598020366019,1.12013102613402,330.586362295399
738213.71570621139835566282,11.4228746401359,1.08320362966806,330.500198370312
738213.71570630173664540052,11.349019847204,1.02165796889147,330.45096184169
738213.71570639219135046005,11.38594724367,1.03396710104678,330.487889238156
738213.71570648264605551958,11.3367107150487,0.972421440270191,330.512507502467
738213.71570657310076057911,11.2874741864274,0.935494043804234,330.586362295399
738213.71570666355546563864,11.2997833185827,0.910875779493596,330.610980559709
738213.71570675401017069817,11.2751650542721,0.910875779493596,330.610980559709
738213.71570684446487575769,11.2382376578061,0.886257515182958,330.586362295399
738213.71570693480316549540,11.2628559221168,0.910875779493596,330.524816634622
738213.71570702525787055492,11.2382376578061,0.886257515182958,330.537125766778
738213.71570711571257561445,11.2874741864274,0.898566647338277,330.537125766778
738213.71570720616728067398,11.312092450738,0.910875779493596,330.537125766778
738213.71570729662198573351,11.1890011291849,0.800093590095726,330.524816634622
738213.71570738707669079304,11.2628559221168,0.87394838302764,330.574053163243
738213.71570747753139585257,11.2751650542721,0.837020986561683,330.524816634622
738213.71570756786968559027,11.2751650542721,0.837020986561683,330.586362295399
738213.71570765832439064980,11.2628559221168,0.787784457940408,330.586362295399
738213.71570774877909570932,11.2874741864274,0.837020986561683,330.586362295399
738213.71570783923380076885,11.3367107150487,0.886257515182958,330.561744031088
738213.71570792968850582838,11.2997833185827,0.898566647338277,330.463270973846
738213.71570802014321088791,11.2874741864274,0.87394838302764,330.561744031088
738213.71570811059791594744,11.3613289793593,0.947803175959553,330.561744031088
738213.71570820093620568514,11.3613289793593,0.910875779493596,330.524816634622
738213.71570829139091074467,11.2997833185827,0.849330118717002,330.561744031088
738213.71570838184561580420,11.2628559221168,0.824711854406364,330.586362295399
738213.71570847230032086372,11.3244015828934,0.837020986561683,330.561744031088
738213.71570856275502592325,11.312092450738,0.824711854406364,330.574053163243
738213.71570865320973098278,11.3244015828934,0.837020986561683,330.549434898933
738213.71570874366443604231,11.2628559221168,0.775475325785089,330.574053163243
738213.71570883400272578001,11.2628559221168,0.787784457940408,330.537125766778
738213.71570892445743083954,11.2505467899614,0.800093590095726,330.475580106001
738213.71570901491213589907,11.2751650542721,0.800093590095726,330.524816634622
738213.71570910536684095860,11.2136193934955,0.726238797163813,330.561744031088
738213.71570919582154601812,11.2013102613402,0.689311400697857,330.561744031088
738213.71570928627625107765,11.2136193934955,0.578529211299987,330.524816634622
738213.71570937661454081535,11.2997833185827,0.738547929319132,330.672526220486
738213.71570946706924587488,11.4721111687572,1.20629495122125,330.647907956175
738213.71570955752395093441,11.8783125298827,1.82175155898719,330.290943123671
738213.71570964797865599394,11.6690572832423,1.78482416252124,330.475580106001
738213.71570973843336105347,11.2997833185827,0.997039704580828,330.512507502467
738213.71570982888806611300,11.0043641468551,0.381583096814885,330.303252255826
738213.71570991934277117252,11.0536006754763,0.406201361125523,330.352488784448
738213.71571000968106091022,11.2259285256508,0.578529211299987,330.463270973846
738213.71571010013576596975,11.2505467899614,0.627765739921262,330.438652709535
738213.71571019059047102928,11.2136193934955,0.603147475610625,330.438652709535
738213.71571028104517608881,11.2013102613402,0.566220079144668,330.414034445224
738213.71571037149988114834,11.3244015828934,0.677002268542538,330.487889238156
738213.71571046195458620787,11.2628559221168,0.627765739921262,330.500198370312
738213.71571055240929126740,11.2874741864274,0.664693136387219,330.487889238156
738213.71571064274758100510,11.2874741864274,0.701620532853175,330.512507502467
738213.71571073320228606462,11.3367107150487,0.640074872076581,330.475580106001
738213.71571082365699112415,11.2997833185827,0.677002268542538,330.475580106001
738213.71571091411169618368,11.2628559221168,0.615456607765943,330.414034445224
738213.71571100456640124321,11.2259285256508,0.603147475610625,330.42634357738
738213.71571109502110630274,11.2874741864274,0.627765739921262,330.45096184169
738213.71571118547581136227,11.2505467899614,0.590838343455306,330.45096184169
738213.71571127581410109997,11.2874741864274,0.640074872076581,330.500198370312
738213.71571136626880615950,11.2874741864274,0.701620532853175,330.463270973846
738213.71571145672351121902,11.312092450738,0.726238797163813,330.45096184169
738213.71571154717821627855,11.2751650542721,0.677002268542538,330.500198370312
738213.71571163763292133808,11.312092450738,0.738547929319132,330.463270973846
738213.71571172808762639761,11.349019847204,0.800093590095726,330.524816634622
738213.71571181854233145714,11.4105655079806,0.861639250872321,330.512507502467
738213.71571190888062119484,11.4105655079806,0.898566647338277,330.512507502467
738213.71571199933532625437,11.4228746401359,0.960112308114872,330.500198370312
738213.71571208979003131390,11.4474929044465,0.972421440270191,330.537125766778
738213.71571218024473637342,11.4598020366019,0.997039704580828,330.561744031088
738213.71571227069944143295,11.4721111687572,1.02165796889147,330.549434898933
738213.71571236115414649248,11.4721111687572,1.05858536535742,330.574053163243
738213.71571245149243623018,11.4351837722912,1.0462762332021,330.561744031088
738213.71571254194714128971,11.4844203009125,1.1078218939787,330.574053163243
738213.71571263240184634924,11.5213476973785,1.13244015828934,330.549434898933
738213.71571272285655140877,11.4598020366019,1.1078218939787,330.537125766778
738213.71571281331125646830,11.38594724367,1.00934883673615,330.512507502467
738213.71571290376596152782,11.5213476973785,1.12013102613402,330.574053163243
738213.71571299422066658735,11.4844203009125,1.05858536535742,330.524816634622
738213.71571308455895632505,11.4721111687572,0.997039704580828,330.438652709535
738213.71571317501366138458,11.4105655079806,0.923184911648915,330.549434898933
738213.71571326546836644411,11.38594724367,0.886257515182958,330.500198370312
738213.71571335592307150364,11.3613289793593,0.886257515182958,330.340179652292
738213.71571344637777656317,11.3367107150487,0.886257515182958,330.414034445224
738213.71571353683248162270,11.2874741864274,0.812402722251045,330.500198370312
738213.71571362728718668222,11.2628559221168,0.750857061474451,330.512507502467
738213.71571371762547641993,11.2751650542721,0.76316619362977,330.475580106001
738213.71571380808018147945,11.2259285256508,0.713929665008494,330.537125766778
738213.71571389853488653898,11.2751650542721,0.738547929319132,330.524816634622
738213.71571398898959159851,11.2505467899614,0.726238797163813,330.463270973846
738213.71571407944429665804,11.2382376578061,0.713929665008494,330.537125766778
738213.71571416989900171757,11.2382376578061,0.664693136387219,330.574053163243
738213.71571426035370677710,11.2259285256508,0.615456607765943,330.561744031088
738213.71571435069199651480,11.2382376578061,0.615456607765943,330.537125766778
738213.71571444114670157433,11.2382376578061,0.615456607765943,330.623289691865
738213.71571453160140663385,11.2259285256508,0.603147475610625,330.549434898933
738213.71571462205611169338,11.2382376578061,0.627765739921262,330.524816634622
738213.71571471251081675291,11.2259285256508,0.590838343455306,330.500198370312
738213.71571480296552181244,11.2259285256508,0.590838343455306,330.524816634622
738213.71571489342022687197,11.2751650542721,0.640074872076581,330.487889238156
738213.71571498375851660967,11.2259285256508,0.603147475610625,330.512507502467
738213.71571507421322166920,11.2505467899614,0.640074872076581,330.561744031088
738213.71571516466792672873,11.2136193934955,0.615456607765943,330.574053163243
738213.71571525512263178825,11.2013102613402,0.603147475610625,330.549434898933
738213.71571534557733684778,11.2013102613402,0.615456607765943,330.561744031088
738213.71571543603204190731,11.1890011291849,0.615456607765943,330.537125766778
738213.71571552648674696684,11.1890011291849,0.615456607765943,330.537125766778
738213.71571561682503670454,11.1890011291849,0.603147475610625,330.598671427554
738213.71571570727974176407,11.1890011291849,0.615456607765943,330.549434898933
738213.71571579773444682360,11.2013102613402,0.6523840042319,330.512507502467
738213.71571588818915188313,11.1890011291849,0.615456607765943,330.487889238156
738213.71571597864385694265,11.1890011291849,0.615456607765943,330.537125766778
738213.71571606909856200218,11.2013102613402,0.640074872076581,330.524816634622
738213.71571615943685173988,11.1890011291849,0.627765739921262,330.549434898933
738213.71571624989155679941,11.2382376578061,0.6523840042319,330.574053163243
738213.71571634034626185894,11.2136193934955,0.627765739921262,330.561744031088
738213.71571643080096691847,11.1890011291849,0.615456607765943,330.537125766778
738213.71571652125567197800,11.1890011291849,0.615456607765943,330.549434898933
738213.71571661171037703753,11.2013102613402,0.615456607765943,330.586362295399
738213.71571670216508209705,11.1890011291849,0.603147475610625,330.598671427554
738213.71571679250337183475,11.2013102613402,0.627765739921262,330.487889238156
738213.71571688295807689428,11.1766919970295,0.590838343455306,330.401725313069
738213.71571697341278195381,11.2259285256508,0.627765739921262,330.438652709535
738213.71571706386748701334,11.2382376578061,0.640074872076581,330.512507502467
738213.71571715432219207287,11.2259285256508,0.627765739921262,330.487889238156
738213.71571724477689713240,11.2874741864274,0.701620532853175,330.524816634622
738213.71571733523160219193,11.2136193934955,0.677002268542538,330.537125766778
738213.71571742556989192963,11.2013102613402,0.664693136387219,330.574053163243
738213.71571751602459698915,11.1890011291849,0.640074872076581,330.561744031088
738213.71571760647930204868,11.1766919970295,0.615456607765943,330.610980559709
738213.71571769693400710821,11.1397646005636,0.578529211299987,330.63559882402
738213.71571778738871216774,11.1028372040976,0.529292682678711,330.610980559709
738213.71571787784341722727,11.1643828648742,0.615456607765943,330.647907956175
738213.71571796829812228680,11.0905280719423,0.553910946989349,330.561744031088
738213.71571805863641202450,11.1643828648742,0.627765739921262,330.524816634622
738213.71571814909111708403,11.1520737327189,0.615456607765943,330.512507502467
738213.71571823954582214355,11.1151463362529,0.553910946989349,330.549434898933
738213.71571833000052720308,11.1274554684083,0.566220079144668,330.537125766778
738213.71571842045523226261,11.1028372040976,0.492365286212755,330.512507502467
738213.71571851090993732214,11.1151463362529,0.455437889746798,330.598671427554
738213.71571860136464238167,11.2136193934955,0.689311400697857,330.660217088331
738213.71571869170293211937,11.4228746401359,1.12013102613402,330.475580106001
738213.71571878215763717890,11.8044577369508,1.66173284096805,330.254015727205
738213.71571887261234223843,11.3982563758253,1.32938627277444,330.475580106001
738213.71571896306704729795,11.0166732790104,0.54160181483403,330.549434898933
738213.71571905352175235748,10.8443454288359,0.209255246640421,330.487889238156
738213.71571914397645741701,11.0043641468551,0.43081962543616,330.598671427554
738213.71571923431474715471,11.1274554684083,0.615456607765943,330.574053163243
738213.71571932476945221424,11.1397646005636,0.627765739921262,330.574053163243
738213.71571941522415727377,11.1766919970295,0.640074872076581,330.524816634622
738213.71571950567886233330,11.1766919970295,0.627765739921262,330.561744031088
738213.71571959613356739283,11.1643828648742,0.615456607765943,330.586362295399
738213.71571968658827245235,11.1890011291849,0.664693136387219,330.500198370312
738213.71571977704297751188,11.2013102613402,0.677002268542538,330.586362295399
738213.71571986738126724958,11.2013102613402,0.627765739921262,330.586362295399
738213.71571995783597230911,11.1890011291849,0.6523840042319,330.524816634622
738213.71572004829067736864,11.2013102613402,0.640074872076581,330.586362295399
738213.71572013874538242817,11.1890011291849,0.615456607765943,330.500198370312
738213.71572022920008748770,11.1890011291849,0.603147475610625,330.549434898933
738213.71572031965479254723,11.2013102613402,0.627765739921262,330.561744031088
738213.71572041010949760675,11.1643828648742,0.603147475610625,330.389416180914
738213.71572050044778734446,11.2013102613402,0.627765739921262,330.463270973846
738213.71572059090249240398,11.2628559221168,0.677002268542538,330.524816634622
738213.71572068135719746351,11.2505467899614,0.677002268542538,330.549434898933
738213.71572077181190252304,11.2382376578061,0.689311400697857,330.549434898933
738213.71572086226660758257,11.2997833185827,0.787784457940408,330.512507502467
738213.71572095272131264210,11.2874741864274,0.824711854406364,330.487889238156
738213.71572104317601770163,11.2997833185827,0.861639250872321,330.475580106001
738213.71572113351430743933,11.312092450738,0.886257515182958,330.524816634622
738213.71572122396901249886,11.2874741864274,0.861639250872321,330.500198370312
738213.71572131442371755838,11.3367107150487,0.910875779493596,330.487889238156
738213.71572140487842261791,11.3736381115146,0.984730572425509,330.512507502467
738213.71572149533312767744,11.3736381115146,0.984730572425509,330.512507502467
738213.71572158578783273697,11.38594724367,0.984730572425509,330.524816634622
738213.71572167624253779650,11.4105655079806,1.00934883673615,330.610980559709
738213.71572176658082753420,11.3736381115146,0.984730572425509,330.610980559709
738213.71572185703553259373,11.3982563758253,1.00934883673615,330.647907956175
738213.71572194749023765326,11.3982563758253,1.02165796889147,330.610980559709
738213.71572203794494271278,11.38594724367,0.947803175959553,330.574053163243
738213.71572212839964777231,11.3736381115146,0.87394838302764,330.598671427554
738213.71572221885435283184,11.3367107150487,0.824711854406364,330.561744031088
738213.71572230919264256954,11.2874741864274,0.750857061474451,330.487889238156
738213.71572239964734762907,11.2628559221168,0.713929665008494,330.549434898933
738213.71572249010205268860,11.2628559221168,0.738547929319132,330.623289691865
738213.71572258055675774813,11.2259285256508,0.677002268542538,330.610980559709
738213.71572267101146280766,11.2013102613402,0.640074872076581,330.561744031088
738213.71572276146616786718,11.2013102613402,0.664693136387219,330.610980559709
738213.71572285192087292671,11.2013102613402,0.615456607765943,330.574053163243
738213.71572294225916266441,11.2136193934955,0.6523840042319,330.524816634622
738213.71572303271386772394,11.1890011291849,0.640074872076581,330.549434898933
738213.71572312316857278347,11.2136193934955,0.6523840042319,330.598671427554
738213.71572321362327784300,11.2382376578061,0.664693136387219,330.549434898933
738213.71572330407798290253,11.2136193934955,0.689311400697857,330.598671427554
738213.71572339453268796206,11.2259285256508,0.689311400697857,330.598671427554
738213.71572348498739302158,11.2136193934955,0.689311400697857,330.586362295399
738213.71572357532568275928,11.2013102613402,0.689311400697857,330.512507502467
738213.71572366578038781881,11.2136193934955,0.6523840042319,330.586362295399
738213.71572375623509287834,11.2136193934955,0.640074872076581,330.574053163243
738213.71572384668979793787,11.2136193934955,0.6523840042319,330.512507502467
738213.71572393714450299740,11.2013102613402,0.640074872076581,330.401725313069
738213.71572402759920805693,11.2013102613402,0.6523840042319,330.487889238156
738213.71572411805391311646,11.2013102613402,0.6523840042319,330.500198370312
738213.71572420839220285416,11.1766919970295,0.627765739921262,330.561744031088
738213.71572429884690791368,11.1520737327189,0.603147475610625,330.45096184169
738213.71572438930161297321,11.1890011291849,0.6523840042319,330.537125766778
738213.71572447975631803274,11.1766919970295,0.640074872076581,330.561744031088
738213.71572457021102309227,11.2013102613402,0.640074872076581,330.561744031088
738213.71572466066572815180,11.2136193934955,0.677002268542538,330.537125766778
738213.71572475112043321133,11.2013102613402,0.664693136387219,330.574053163243
738213.71572484145872294903,11.1766919970295,0.603147475610625,330.574053163243
738213.71572493191342800856,11.1643828648742,0.603147475610625,330.500198370312
738213.71572502236813306808,11.1643828648742,0.615456607765943,330.537125766778
738213.71572511282283812761,11.1520737327189,0.640074872076581,330.463270973846
738213.71572520327754318714,11.1274554684083,0.590838343455306,330.500198370312
738213.71572529373224824667,11.1520737327189,0.615456607765943,330.500198370312
738213.71572538418695330620,11.1766919970295,0.6523840042319,330.500198370312
738213.71572547452524304390,11.1643828648742,0.627765739921262,330.512507502467
738213.71572556497994810343,11.1890011291849,0.640074872076581,330.500198370312
738213.71572565543465316296,11.1397646005636,0.603147475610625,330.414034445224
738213.71572574588935822248,11.1766919970295,0.6523840042319,330.463270973846
738213.71572583634406328201,11.1766919970295,0.6523840042319,330.475580106001
738213.71572592679876834154,11.1643828648742,0.640074872076581,330.524816634622
738213.71572601713705807924,11.1766919970295,0.627765739921262,330.487889238156
738213.71572610759176313877,11.1890011291849,0.627765739921262,330.475580106001
738213.71572619804646819830,11.1520737327189,0.590838343455306,330.512507502467
738213.71572628850117325783,11.1520737327189,0.615456607765943,330.524816634622
738213.71572637895587831736,11.1890011291849,0.640074872076581,330.561744031088
738213.71572646941058337688,11.2259285256508,0.664693136387219,330.549434898933
738213.71572655986528843641,11.2751650542721,0.726238797163813,330.463270973846
738213.71572665020357817411,11.2136193934955,0.713929665008494,330.561744031088
738213.71572674065828323364,11.2013102613402,0.713929665008494,330.586362295399
738213.71572683111298829317,11.1643828648742,0.6523840042319,330.549434898933
738213.71572692156769335270,11.1766919970295,0.677002268542538,330.598671427554
738213.71572701202239841223,11.1890011291849,0.677002268542538,330.63559882402
738213.71572710247710347176,11.1643828648742,0.6523840042319,330.549434898933
738213.71572719293180853128,11.1274554684083,0.615456607765943,330.598671427554
738213.71572728327009826899,11.1397646005636,0.6523840042319,330.598671427554
738213.71572737372480332851,11.1643828648742,0.677002268542538,330.586362295399
738213.71572746417950838804,11.1397646005636,0.664693136387219,330.42634357738
738213.71572755463421344757,11.1520737327189,0.664693136387219,330.512507502467
738213.71572764508891850710,11.1397646005636,0.6523840042319,330.586362295399
738213.71572773554362356663,11.1028372040976,0.566220079144668,330.500198370312
738213.71572782599832862616,11.1151463362529,0.516983550523392,330.574053163243
738213.71572791633661836386,11.2136193934955,0.713929665008494,330.623289691865
738213.71572800679132342339,11.3367107150487,0.947803175959553,330.561744031088
738213.71572809724602848291,11.6075116224657,1.40324106570635,330.24170659505
738213.71572818770073354244,11.7182938118636,1.73558763389996,330.229397462895
738213.71572827815543860197,11.2628559221168,1.1078218939787,330.414034445224
738213.71572836861014366150,10.9182002217678,0.381583096814885,330.463270973846
738213.71572845906484872103,10.9058910896125,0.307728303882972,330.438652709535
738213.71572854940313845873,11.1397646005636,0.627765739921262,330.500198370312
738213.71572863985784351826,11.2259285256508,0.701620532853175,330.463270973846
738213.71572873031254857779,11.2013102613402,0.677002268542538,330.524816634622
738213.71572882076725363731,11.1890011291849,0.677002268542538,330.537125766778
738213.71572891122195869684,11.1890011291849,0.689311400697857,330.549434898933
738213.71572900167666375637,11.2259285256508,0.738547929319132,330.537125766778
738213.71572909201495349407,11.2259285256508,0.713929665008494,330.586362295399
738213.71572918246965855360,11.2013102613402,0.701620532853175,330.500198370312
738213.71572927292436361313,11.1890011291849,0.713929665008494,330.512507502467
738213.71572936337906867266,11.2505467899614,0.750857061474451,330.537125766778
738213.71572945383377373219,11.2382376578061,0.738547929319132,330.598671427554
738213.71572954428847879171,11.2259285256508,0.726238797163813,330.524816634622
738213.71572963474318385124,11.2382376578061,0.750857061474451,330.561744031088
738213.71572972508147358894,11.2505467899614,0.775475325785089,330.561744031088
738213.71572981553617864847,11.2751650542721,0.787784457940408,330.574053163243
738213.71572990599088370800,11.2628559221168,0.787784457940408,330.598671427554
738213.71572999644558876753,11.2874741864274,0.812402722251045,330.586362295399
738213.71573008690029382706,11.2628559221168,0.800093590095726,330.537125766778
738213.71573017735499888659,11.2997833185827,0.837020986561683,330.537125766778
738213.71573026780970394611,11.2874741864274,0.824711854406364,330.512507502467
738213.71573035814799368382,11.312092450738,0.861639250872321,330.561744031088
738213.71573044860269874334,11.312092450738,0.87394838302764,330.524816634622
738213.71573053905740380287,11.2997833185827,0.886257515182958,330.586362295399
738213.71573062951210886240,11.312092450738,0.910875779493596,330.586362295399
738213.71573071996681392193,11.4474929044465,1.0462762332021,330.610980559709
738213.71573081042151898146,11.4105655079806,1.03396710104678,330.598671427554
738213.71573090087622404099,11.3982563758253,1.02165796889147,330.549434898933
738213.71573099121451377869,11.3982563758253,1.05858536535742,330.401725313069
738213.71573108166921883821,11.4351837722912,1.07089449751274,330.487889238156
738213.71573117212392389774,11.4105655079806,1.07089449751274,330.561744031088
738213.71573126257862895727,11.3982563758253,1.03396710104678,330.574053163243
738213.71573135303333401680,11.4228746401359,1.0462762332021,330.549434898933
738213.71573144348803907633,11.3613289793593,0.947803175959553,330.598671427554
738213.71573153394274413586,11.3244015828934,0.898566647338277,330.598671427554
738213.71573162428103387356,11.3736381115146,0.910875779493596,330.574053163243
738213.71573171473573893309,11.3367107150487,0.886257515182958,330.549434898933
738213.71573180519044399261,11.2751650542721,0.812402722251045,330.598671427554
738213.71573189564514905214,11.2874741864274,0.787784457940408,330.586362295399
738213.71573198609985411167,11.2628559221168,0.775475325785089,330.537125766778
738213.71573207655455917120,11.2751650542721,0.76316619362977,330.586362295399
738213.71573216700926423073,11.2382376578061,0.726238797163813,330.549434898933
738213.71573225734755396843,11.2751650542721,0.76316619362977,330.487889238156
738213.71573234780225902796,11.2751650542721,0.775475325785089,330.487889238156
738213.71573243825696408749,11.2751650542721,0.775475325785089,330.524816634622
738213.71573252871166914701,11.2628559221168,0.750857061474451,330.487889238156
738213.71573261916637420654,11.2505467899614,0.750857061474451,330.487889238156
738213.71573270962107926607,11.2382376578061,0.726238797163813,330.475580106001
738213.71573279995936900377,11.312092450738,0.800093590095726,330.500198370312
738213.71573289041407406330,11.2997833185827,0.775475325785089,330.463270973846
738213.71573298086877912283,11.2751650542721,0.775475325785089,330.463270973846
738213.71573307132348418236,11.2505467899614,0.750857061474451,330.500198370312
738213.71573316177818924189,11.2382376578061,0.750857061474451,330.524816634622
738213.71573325223289430141,11.2505467899614,0.76316619362977,330.537125766778
738213.71573334268759936094,11.2505467899614,0.775475325785089,330.537125766778
738213.71573343302588909864,11.2505467899614,0.750857061474451,330.537125766778
738213.71573352348059415817,11.2505467899614,0.76316619362977,330.561744031088
738213.71573361393529921770,11.2628559221168,0.775475325785089,330.598671427554
738213.71573370439000427723,11.2505467899614,0.787784457940408,330.524816634622
738213.71573379484470933676,11.2505467899614,0.76316619362977,330.487889238156
738213.71573388529941439629,11.2505467899614,0.738547929319132,330.512507502467
738213.71573397575411945581,11.2136193934955,0.713929665008494,330.500198370312
738213.71573406609240919352,11.2382376578061,0.738547929319132,330.487889238156
738213.71573415654711425304,11.2751650542721,0.76316619362977,330.524816634622
738213.71573424700181931257,11.2382376578061,0.750857061474451,330.549434898933
738213.71573433745652437210,11.2259285256508,0.738547929319132,330.561744031088
738213.71573442791122943163,11.2751650542721,0.800093590095726,330.500198370312
738213.71573451836593449116,11.2505467899614,0.76316619362977,330.401725313069
738213.71573460882063955069,11.2628559221168,0.76316619362977,330.500198370312
738213.71573469915892928839,11.2136193934955,0.726238797163813,330.561744031088
738213.71573478961363434792,11.2259285256508,0.738547929319132,330.586362295399
738213.71573488006833940744,11.2136193934955,0.726238797163813,330.63559882402
738213.71573497052304446697,11.2136193934955,0.738547929319132,330.598671427554
738213.71573506097774952650,11.2013102613402,0.726238797163813,330.574053163243
738213.71573515143245458603,11.2013102613402,0.738547929319132,330.647907956175
738213.71573524188715964556,11.2013102613402,0.713929665008494,330.610980559709
738213.71573533222544938326,11.1766919970295,0.677002268542538,330.512507502467
738213.71573542268015444279,11.312092450738,0.812402722251045,330.574053163243
738213.71573551313485950232,11.2628559221168,0.76316619362977,330.561744031088
738213.71573560358956456184,11.2751650542721,0.76316619362977,330.537125766778
738213.71573569404426962137,11.2751650542721,0.775475325785089,330.500198370312
738213.71573578449897468090,11.2997833185827,0.800093590095726,330.500198370312
738213.71573587483726441860,11.312092450738,0.824711854406364,330.475580106001
738213.71573596529196947813,11.2997833185827,0.837020986561683,330.487889238156
738213.71573605574667453766,11.2874741864274,0.849330118717002,330.574053163243
738213.71573614620137959719,11.2136193934955,0.775475325785089,330.586362295399
738213.71573623665608465672,11.2013102613402,0.76316619362977,330.500198370312
738213.71573632711078971624,11.2382376578061,0.787784457940408,330.623289691865
738213.71573641756549477577,11.2259285256508,0.750857061474451,330.623289691865
738213.71573650790378451347,11.2013102613402,0.750857061474451,330.623289691865
738213.71573659835848957300,11.2136193934955,0.750857061474451,330.598671427554
738213.71573668881319463253,11.2013102613402,0.726238797163813,330.549434898933
738213.71573677926789969206,11.1890011291849,0.726238797163813,330.561744031088
738213.71573686972260475159,11.2013102613402,0.738547929319132,330.524816634622
738213.71573696017730981112,11.2382376578061,0.76316619362977,330.537125766778
738213.71573705063201487064,11.1643828648742,0.701620532853175,330.549434898933
738213.71573714097030460835,11.1766919970295,0.627765739921262,330.537125766778
738213.71573723142500966787,11.2259285256508,0.6523840042319,330.623289691865
738213.71573732187971472740,11.349019847204,0.923184911648915,330.660217088331
738213.71573741233441978693,11.619820754621,1.44016846217231,330.463270973846
738213.71573750278912484646,11.8413851334168,1.83406069114251,330.229397462895
738213.71573759324382990599,11.3982563758253,1.31707714061912,330.389416180914
738213.71573768369853496552,11.0289824111657,0.578529211299987,330.512507502467
738213.71573777403682470322,10.9305093539232,0.332346568193609,330.524816634622
738213.71573786449152976274,11.1643828648742,0.664693136387219,330.463270973846
738213.71573795494623482227,11.2505467899614,0.775475325785089,330.512507502467
738213.71573804540093988180,11.2382376578061,0.76316619362977,330.389416180914
738213.71573813585564494133,11.2505467899614,0.775475325785089,330.512507502467
738213.71573822631035000086,11.2382376578061,0.76316619362977,330.512507502467
738213.71573831676505506039,11.2628559221168,0.787784457940408,330.537125766778
738213.71573840710334479809,11.2628559221168,0.787784457940408,330.549434898933
738213.71573849755804985762,11.2505467899614,0.775475325785089,330.537125766778
738213.71573858801275491714,11.2751650542721,0.824711854406364,330.524816634622
738213.71573867846745997667,11.2751650542721,0.812402722251045,330.487889238156
738213.71573876892216503620,11.2874741864274,0.824711854406364,330.487889238156
738213.71573885937687009573,11.2751650542721,0.849330118717002,330.438652709535
738213.71573894983157515526,11.2505467899614,0.824711854406364,330.524816634622
738213.71573904016986489296,11.3244015828934,0.849330118717002,330.549434898933
738213.71573913062456995249,11.2874741864274,0.824711854406364,330.537125766778
738213.71573922107927501202,11.349019847204,0.886257515182958,330.586362295399
738213.71573931153398007154,11.349019847204,0.898566647338277,330.586362295399
738213.71573940198868513107,11.3367107150487,0.886257515182958,330.63559882402
738213.71573949244339019060,11.3736381115146,0.947803175959553,330.549434898933
738213.71573958278167992830,11.3982563758253,0.984730572425509,330.598671427554
738213.71573967323638498783,11.38594724367,0.997039704580828,330.623289691865
738213.71573976369109004736,11.349019847204,0.984730572425509,330.549434898933
738213.71573985414579510689,11.3982563758253,1.0462762332021,330.63559882402
738213.71573994460050016642,11.4228746401359,1.09551276182338,330.63559882402
738213.71574003505520522594,11.4351837722912,1.1078218939787,330.610980559709
738213.71574012550991028547,11.4721111687572,1.15705842259997,330.623289691865
738213.71574021584820002317,11.4967294330678,1.19398581906593,330.660217088331
738213.71574030630290508270,11.4721111687572,1.18167668691061,330.647907956175
738213.71574039675761014223,11.4721111687572,1.19398581906593,330.647907956175
738213.71574048721231520176,11.4844203009125,1.19398581906593,330.684835352641
738213.71574057766702026129,11.4844203009125,1.16936755475529,330.660217088331
738213.71574066812172532082,11.4351837722912,1.14474929044465,330.524816634622
738213.71574075857643038034,11.4598020366019,1.15705842259997,330.524816634622
738213.71574084891472011805,11.4598020366019,1.12013102613402,330.574053163243
738213.71574093936942517757,11.3982563758253,1.0462762332021,330.549434898933
738213.71574102982413023710,11.38594724367,0.997039704580828,330.561744031088
738213.71574112027883529663,11.3613289793593,0.960112308114872,330.586362295399
738213.71574121073354035616,11.349019847204,0.935494043804234,330.598671427554
738213.71574130118824541569,11.3244015828934,0.910875779493596,330.537125766778
738213.71574139164295047522,11.312092450738,0.898566647338277,330.549434898933
738213.71574148198124021292,11.312092450738,0.886257515182958,330.524816634622
738213.71574157243594527245,11.2997833185827,0.886257515182958,330.401725313069
738213.71574166289065033197,11.2997833185827,0.87394838302764,330.463270973846
738213.71574175334535539150,11.2874741864274,0.861639250872321,330.586362295399
738213.71574184380006045103,11.2751650542721,0.849330118717002,330.586362295399
738213.71574193425476551056,11.2751650542721,0.849330118717002,330.561744031088
738213.71574202470947057009,11.2505467899614,0.837020986561683,330.574053163243
738213.71574211504776030779,11.2997833185827,0.849330118717002,330.610980559709
738213.71574220550246536732,11.3367107150487,0.886257515182958,330.537125766778
738213.71574229595717042685,11.3244015828934,0.898566647338277,330.549434898933
738213.71574238641187548637,11.312092450738,0.886257515182958,330.549434898933
738213.71574247686658054590,11.2874741864274,0.886257515182958,330.561744031088
738213.71574256732128560543,11.2751650542721,0.861639250872321,330.586362295399
738213.71574265765957534313,11.2997833185827,0.898566647338277,330.549434898933
738213.71574274811428040266,11.2874741864274,0.886257515182958,330.500198370312
738213.71574283856898546219,11.2628559221168,0.849330118717002,330.537125766778
738213.71574292902369052172,11.2505467899614,0.861639250872321,330.537125766778
738213.71574301947839558125,11.2874741864274,0.886257515182958,330.561744031088
738213.71574310993310064077,11.2751650542721,0.87394838302764,330.574053163243
738213.71574320038780570030,11.2751650542721,0.87394838302764,330.598671427554
738213.71574329072609543800,11.2997833185827,0.849330118717002,330.549434898933
738213.71574338118080049753,11.2628559221168,0.837020986561683,330.623289691865
738213.71574347163550555706,11.2874741864274,0.87394838302764,330.586362295399
738213.71574356209021061659,11.2874741864274,0.861639250872321,330.574053163243
738213.71574365254491567612,11.2874741864274,0.837020986561683,330.574053163243
738213.71574374299962073565,11.2505467899614,0.812402722251045,330.63559882402
738213.71574383345432579517,11.2628559221168,0.837020986561683,330.623289691865
738213.71574392379261553288,11.3367107150487,0.910875779493596,330.524816634622
738213.71574401424732059240,11.2751650542721,0.861639250872321,330.610980559709
738213.71574410470202565193,11.2628559221168,0.849330118717002,330.586362295399
738213.71574419515673071146,11.2628559221168,0.837020986561683,330.524816634622
738213.71574428561143577099,11.2751650542721,0.87394838302764,330.549434898933
738213.71574437606614083052,11.2505467899614,0.849330118717002,330.561744031088
738213.71574446652084589005,11.2751650542721,0.849330118717002,330.549434898933
738213.71574455685913562775,11.2751650542721,0.861639250872321,330.549434898933
738213.71574464731384068727,11.2628559221168,0.849330118717002,330.623289691865
738213.71574473776854574680,11.2751650542721,0.837020986561683,330.647907956175
738213.71574482822325080633,11.2751650542721,0.837020986561683,330.647907956175
738213.71574491867795586586,11.2874741864274,0.849330118717002,330.512507502467
738213.71574500913266092539,11.2628559221168,0.837020986561683,330.561744031088
738213.71574509958736598492,11.2751650542721,0.837020986561683,330.401725313069
738213.71574518992565572262,11.3367107150487,0.898566647338277,330.463270973846
738213.71574528038036078215,11.349019847204,0.898566647338277,330.537125766778
738213.71574537083506584167,11.3613289793593,0.935494043804234,330.549434898933
738213.71574546128977090120,11.3367107150487,0.923184911648915,330.45096184169
738213.71574555174447596073,11.3367107150487,0.935494043804234,330.524816634622
738213.71574564219918102026,11.2874741864274,0.910875779493596,330.574053163243
738213.71574573265388607979,11.2751650542721,0.861639250872321,330.549434898933
738213.71574582299217581749,11.2874741864274,0.861639250872321,330.598671427554
738213.71574591344688087702,11.2628559221168,0.849330118717002,330.598671427554
738213.71574600390158593655,11.2628559221168,0.849330118717002,330.610980559709
738213.71574609435629099607,11.2505467899614,0.849330118717002,330.672526220486
738213.71574618481099605560,11.2751650542721,0.87394838302764,330.660217088331
738213.71574627526570111513,11.2628559221168,0.87394838302764,330.598671427554
738213.71574636560399085283,11.2505467899614,0.837020986561683,330.623289691865
738213.71574645605869591236,11.2751650542721,0.87394838302764,330.63559882402
738213.71574654651340097189,11.2382376578061,0.775475325785089,330.561744031088
738213.71574663696810603142,11.2136193934955,0.689311400697857,330.537125766778
738213.71574672742281109095,11.2997833185827,0.886257515182958,330.672526220486
738213.71574681787751615047,11.5213476973785,1.36631366924039,330.623289691865
738213.71574690833222121000,11.7675303404848,1.87098808760847,330.204779198584
738213.71574699867051094770,11.4967294330678,1.62480544450209,330.45096184169
738213.71574708912521600723,11.1766919970295,0.886257515182958,330.500198370312
738213.71574717957992106676,11.041291543321,0.590838343455306,330.537125766778
738213.71574727003462612629,11.0166732790104,0.516983550523392,330.524816634622
738213.71574736048933118582,11.1890011291849,0.787784457940408,330.561744031088
738213.71574745094403624535,11.2628559221168,0.87394838302764,330.512507502467
738213.71574754139874130487,11.2874741864274,0.87394838302764,330.537125766778
738213.71574763173703104258,11.2997833185827,0.886257515182958,330.610980559709
738213.71574772219173610210,11.2751650542721,0.898566647338277,330.561744031088
738213.71574781264644116163,11.2874741864274,0.910875779493596,330.512507502467
738213.71574790310114622116,11.3367107150487,0.923184911648915,330.623289691865
738213.71574799355585128069,11.2997833185827,0.898566647338277,330.598671427554
738213.71574808401055634022,11.312092450738,0.910875779493596,330.598671427554
738213.71574817446526139975,11.349019847204,0.972421440270191,330.586362295399
738213.71574826480355113745,11.312092450738,0.947803175959553,330.574053163243
738213.71574835525825619698,11.3367107150487,0.960112308114872,330.586362295399
738213.71574844571296125650,11.3367107150487,0.972421440270191,330.524816634622
738213.71574853616766631603,11.3244015828934,0.960112308114872,330.623289691865
738213.71574862662237137556,11.3367107150487,0.972421440270191,330.414034445224
738213.71574871707707643509,11.3736381115146,0.997039704580828,330.475580106001
738213.71574880753178149462,11.38594724367,1.00934883673615,330.598671427554
738213.71574889787007123232,11.38594724367,1.00934883673615,330.610980559709
738213.71574898832477629185,11.3736381115146,1.02165796889147,330.598671427554
738213.71574907877948135138,11.38594724367,1.07089449751274,330.561744031088
738213.71574916923418641090,11.4228746401359,1.12013102613402,330.672526220486
738213.71574925968889147043,11.38594724367,1.14474929044465,330.63559882402
738213.71574935014359652996,11.4474929044465,1.16936755475529,330.598671427554
738213.71574944048188626766,11.4721111687572,1.19398581906593,330.598671427554
738213.71574953093659132719,11.4351837722912,1.23091321553189,330.561744031088
738213.71574962139129638672,11.4721111687572,1.25553147984252,330.537125766778
738213.71574971184600144625,11.4474929044465,1.26784061199784,330.647907956175
738213.71574980230070650578,11.4967294330678,1.3047680084638,330.586362295399
738213.71574989275541156530,11.4844203009125,1.31707714061912,330.561744031088
738213.71574998321011662483,11.4967294330678,1.32938627277444,330.561744031088
738213.71575007354840636253,11.4721111687572,1.31707714061912,330.574053163243
738213.71575016400311142206,11.4721111687572,1.3047680084638,330.574053163243
738213.71575025445781648159,11.4474929044465,1.25553147984252,330.524816634622
738213.71575034491252154112,11.4598020366019,1.23091321553189,330.549434898933
738213.71575043536722660065,11.3982563758253,1.12013102613402,330.586362295399
738213.71575052582193166018,11.3613289793593,1.07089449751274,330.512507502467
738213.71575061627663671970,11.3613289793593,1.05858536535742,330.561744031088
738213.71575070661492645741,11.349019847204,1.03396710104678,330.586362295399
738213.71575079706963151693,11.312092450738,1.00934883673615,330.598671427554
738213.71575088752433657646,11.312092450738,1.00934883673615,330.537125766778
738213.71575097797904163599,11.3244015828934,0.997039704580828,330.537125766778
738213.71575106843374669552,11.2997833185827,0.972421440270191,330.549434898933
738213.71575115888845175505,11.2874741864274,0.984730572425509,330.574053163243
738213.71575124934315681458,11.312092450738,0.972421440270191,330.623289691865
738213.71575133968144655228,11.2874741864274,0.960112308114872,330.561744031088
738213.71575143013615161180,11.2628559221168,0.960112308114872,330.524816634622
738213.71575152059085667133,11.2751650542721,0.960112308114872,330.574053163243
738213.71575161104556173086,11.3244015828934,1.00934883673615,330.549434898933
738213.71575170150026679039,11.2997833185827,0.984730572425509,330.574053163243
738213.71575179195497184992,11.2874741864274,0.997039704580828,330.586362295399
738213.71575188240967690945,11.2751650542721,0.984730572425509,330.610980559709
738213.71575197274796664715,11.2874741864274,1.00934883673615,330.598671427554
738213.71575206320267170668,11.2751650542721,0.984730572425509,330.598671427554
738213.71575215365737676620,11.2751650542721,0.984730572425509,330.463270973846
738213.71575224411208182573,11.2505467899614,0.972421440270191,330.598671427554
738213.71575233456678688526,11.2628559221168,0.984730572425509,330.63559882402
738213.71575242502149194479,11.2505467899614,0.972421440270191,330.63559882402
738213.71575251547619700432,11.2259285256508,0.935494043804234,330.684835352641
738213.71575260581448674202,11.2628559221168,0.947803175959553,330.660217088331
738213.71575269626919180155,11.2505467899614,0.923184911648915,330.610980559709
738213.71575278672389686108,11.2505467899614,0.898566647338277,330.586362295399
738213.71575287717860192060,11.2382376578061,0.898566647338277,330.63559882402
738213.71575296763330698013,11.2505467899614,0.935494043804234,330.660217088331
738213.71575305808801203966,11.2382376578061,0.923184911648915,330.610980559709
738213.71575314842630177736,11.2382376578061,0.935494043804234,330.63559882402
738213.71575323888100683689,11.2136193934955,0.910875779493596,330.63559882402
738213.71575332933571189642,11.2382376578061,0.923184911648915,330.623289691865
738213.71575341979041695595,11.2382376578061,0.923184911648915,330.63559882402
738213.71575351024512201548,11.1890011291849,0.861639250872321,330.684835352641
738213.71575360069982707500,11.2382376578061,0.910875779493596,330.561744031088
738213.71575369115453213453,11.2628559221168,0.947803175959553,330.574053163243
738213.71575378149282187223,11.2013102613402,0.910875779493596,330.537125766778
738213.71575387194752693176,11.2259285256508,0.910875779493596,330.537125766778
738213.71575396240223199129,11.2382376578061,0.910875779493596,330.586362295399
738213.71575405285693705082,11.2259285256508,0.910875779493596,330.512507502467
738213.71575414331164211035,11.2382376578061,0.910875779493596,330.561744031088
738213.71575423376634716988,11.2136193934955,0.910875779493596,330.537125766778
738213.71575432422105222940,11.2259285256508,0.886257515182958,330.586362295399
738213.71575441455934196711,11.2136193934955,0.898566647338277,330.586362295399
738213.71575450501404702663,11.2259285256508,0.898566647338277,330.586362295399
738213.71575459546875208616,11.2505467899614,0.923184911648915,330.487889238156
738213.71575468592345714569,11.2874741864274,0.972421440270191,330.537125766778
738213.71575477637816220522,11.312092450738,0.997039704580828,330.549434898933
738213.71575486683286726475,11.2751650542721,1.02165796889147,330.586362295399
738213.71575495728757232428,11.2382376578061,0.960112308114872,330.586362295399
738213.71575504762586206198,11.2751650542721,1.02165796889147,330.63559882402
738213.71575513808056712151,11.2382376578061,0.960112308114872,330.610980559709
738213.71575522853527218103,11.2136193934955,0.947803175959553,330.574053163243
738213.71575531898997724056,11.2013102613402,0.898566647338277,330.574053163243
738213.71575540944468230009,11.2013102613402,0.898566647338277,330.586362295399
738213.71575549989938735962,11.1890011291849,0.886257515182958,330.610980559709
738213.71575559035409241915,11.2013102613402,0.886257515182958,330.574053163243
738213.71575568069238215685,11.1766919970295,0.886257515182958,330.389416180914
738213.71575577114708721638,11.1766919970295,0.886257515182958,330.487889238156
738213.71575586160179227591,11.1766919970295,0.886257515182958,330.549434898933
738213.71575595205649733543,11.1397646005636,0.750857061474451,330.574053163243
738213.71575604251120239496,11.1397646005636,0.6523840042319,330.549434898933
738213.71575613296590745449,11.2136193934955,0.824711854406364,330.684835352641
738213.71575622330419719219,11.4228746401359,1.28014974415316,330.684835352641
738213.71575631375890225172,11.7182938118636,1.83406069114251,330.377107048758
738213.71575640421360731125,11.6321298867763,1.92022461622974,330.438652709535
738213.71575649466831237078,11.2136193934955,1.18167668691061,330.524816634622
738213.71575658512301743031,10.9305093539232,0.566220079144668,330.586362295399
738213.71575667557772248983,10.9674367503891,0.578529211299987,330.537125766778
738213.71575676603242754936,11.1766919970295,0.861639250872321,330.586362295399
738213.71575685637071728706,11.2505467899614,0.935494043804234,330.598671427554
738213.71575694682542234659,11.2259285256508,0.923184911648915,330.549434898933
738213.71575703728012740612,11.2259285256508,0.910875779493596,330.598671427554
738213.71575712773483246565,11.2136193934955,0.898566647338277,330.610980559709
738213.71575721818953752518,11.1890011291849,0.886257515182958,330.586362295399
738213.71575730864424258471,11.2013102613402,0.910875779493596,330.610980559709
738213.71575739909894764423,11.2013102613402,0.923184911648915,330.586362295399
738213.71575748943723738194,11.2259285256508,0.935494043804234,330.500198370312
738213.71575757989194244146,11.1890011291849,0.923184911648915,330.512507502467
738213.71575767034664750099,11.2013102613402,0.923184911648915,330.500198370312
738213.71575776080135256052,11.2382376578061,0.923184911648915,330.561744031088
738213.71575785125605762005,11.2136193934955,0.972421440270191,330.623289691865
738213.71575794171076267958,11.2382376578061,0.984730572425509,330.561744031088
738213.71575803216546773911,11.2382376578061,0.984730572425509,330.586362295399
738213.71575812250375747681,11.2628559221168,0.997039704580828,330.586362295399
738213.71575821295846253633,11.2382376578061,1.00934883673615,330.610980559709
738213.71575830341316759586,11.2997833185827,1.0462762332021,330.574053163243
738213.71575839386787265539,11.2997833185827,1.08320362966806,330.610980559709
738213.71575848432257771492,11.312092450738,1.08320362966806,330.561744031088
738213.71575857477728277445,11.3367107150487,1.12013102613402,330.586362295399
738213.71575866523198783398,11.3367107150487,1.15705842259997,330.574053163243
738213.71575875557027757168,11.38594724367,1.19398581906593,330.574053163243
738213.71575884602498263121,11.3736381115146,1.21860408337657,330.574053163243
738213.71575893647968769073,11.349019847204,1.21860408337657,330.610980559709
738213.71575902693439275026,11.3613289793593,1.23091321553189,330.598671427554
738213.71575911738909780979,11.38594724367,1.26784061199784,330.610980559709
738213.71575920784380286932,11.3736381115146,1.3047680084638,330.438652709535
738213.71575929818209260702,11.4105655079806,1.31707714061912,330.500198370312
738213.71575938863679766655,11.4228746401359,1.31707714061912,330.610980559709
738213.71575947909150272608,11.4105655079806,1.32938627277444,330.697144484797
738213.71575956954620778561,11.3982563758253,1.31707714061912,330.63559882402
738213.71575966000091284513,11.3736381115146,1.26784061199784,330.574053163243
738213.71575975045561790466,11.3982563758253,1.25553147984252,330.561744031088
738213.71575984091032296419,11.3367107150487,1.15705842259997,330.574053163243
738213.71575993124861270189,11.312092450738,1.12013102613402,330.574053163243
738213.71576002170331776142,11.312092450738,1.09551276182338,330.549434898933
738213.71576011215802282095,11.2505467899614,1.03396710104678,330.586362295399
738213.71576020261272788048,11.2136193934955,1.00934883673615,330.610980559709
738213.71576029306743294001,11.2259285256508,1.02165796889147,330.610980559709
738213.71576038352213799953,11.2259285256508,1.02165796889147,330.586362295399
738213.71576047397684305906,11.2259285256508,1.00934883673615,330.660217088331
738213.71576056431513279676,11.2136193934955,1.00934883673615,330.623289691865
738213.71576065476983785629,11.2136193934955,1.00934883673615,330.524816634622
738213.71576074522454291582,11.1890011291849,0.997039704580828,330.574053163243
738213.71576083567924797535,11.2259285256508,1.00934883673615,330.586362295399
738213.71576092613395303488,11.1766919970295,0.972421440270191,330.537125766778
738213.71576101658865809441,11.2505467899614,1.02165796889147,330.549434898933
738213.71576110704336315393,11.2628559221168,1.0462762332021,330.586362295399
738213.71576119738165289164,11.2505467899614,1.03396710104678,330.586362295399
738213.71576128783635795116,11.2259285256508,1.02165796889147,330.524816634622
738213.71576137829106301069,11.2136193934955,0.997039704580828,330.623289691865
738213.71576146874576807022,11.2013102613402,0.997039704580828,330.623289691865
738213.71576155920047312975,11.2013102613402,1.03396710104678,330.574053163243
738213.71576164965517818928,11.2259285256508,1.03396710104678,330.623289691865
738213.71576174010988324881,11.1643828648742,0.997039704580828,330.660217088331
738213.71576183044817298651,11.1766919970295,0.984730572425509,330.63559882402
738213.71576192090287804604,11.1643828648742,0.997039704580828,330.574053163243
738213.71576201135758310556,11.1766919970295,0.997039704580828,330.598671427554
738213.71576210181228816509,11.1766919970295,0.984730572425509,330.549434898933
738213.71576219226699322462,11.1890011291849,0.997039704580828,330.586362295399
738213.71576228272169828415,11.2013102613402,1.03396710104678,330.623289691865
738213.71576237317640334368,11.1890011291849,1.00934883673615,330.623289691865
738213.71576246351469308138,11.1890011291849,1.02165796889147,330.610980559709
738213.71576255396939814091,11.1890011291849,1.00934883673615,330.623289691865
738213.71576264442410320044,11.2013102613402,1.03396710104678,330.63559882402
738213.71576273487880825996,11.2013102613402,1.0462762332021,330.438652709535
738213.71576282533351331949,11.1890011291849,1.02165796889147,330.463270973846
738213.71576291578821837902,11.1766919970295,1.00934883673615,330.610980559709
738213.71576300612650811672,11.1890011291849,1.00934883673615,330.647907956175
738213.71576309658121317625,11.1397646005636,0.960112308114872,330.586362295399
738213.71576318703591823578,11.1520737327189,0.947803175959553,330.586362295399
738213.71576327749062329531,11.1520737327189,0.960112308114872,330.586362295399
738213.71576336794532835484,11.1766919970295,1.02165796889147,330.561744031088
738213.71576345840003341436,11.1766919970295,0.984730572425509,330.574053163243
738213.71576354885473847389,11.1643828648742,1.00934883673615,330.586362295399
738213.71576363919302821159,11.1766919970295,0.984730572425509,330.549434898933
738213.71576372964773327112,11.2136193934955,0.972421440270191,330.537125766778
738213.71576382010243833065,11.2136193934955,0.984730572425509,330.537125766778
738213.71576391055714339018,11.2136193934955,0.997039704580828,330.561744031088
738213.71576400101184844971,11.2136193934955,1.02165796889147,330.561744031088
738213.71576409146655350924,11.2382376578061,1.07089449751274,330.586362295399
738213.71576418192125856876,11.2136193934955,1.08320362966806,330.647907956175
738213.71576427225954830647,11.2136193934955,1.08320362966806,330.623289691865
738213.71576436271425336599,11.1890011291849,1.0462762332021,330.598671427554
738213.71576445316895842552,11.1766919970295,1.02165796889147,330.574053163243
738213.71576454362366348505,11.1520737327189,0.984730572425509,330.623289691865
738213.71576463407836854458,11.1520737327189,0.997039704580828,330.610980559709
738213.71576472453307360411,11.1643828648742,1.00934883673615,330.63559882402
738213.71576481498777866364,11.1028372040976,0.947803175959553,330.623289691865
738213.71576490532606840134,11.1274554684083,0.960112308114872,330.672526220486
738213.71576499578077346087,11.1643828648742,0.997039704580828,330.672526220486
738213.71576508623547852039,11.1397646005636,0.984730572425509,330.610980559709
738213.71576517669018357992,11.1397646005636,0.984730572425509,330.672526220486
738213.71576526714488863945,11.1028372040976,0.910875779493596,330.684835352641
738213.71576535759959369898,11.0536006754763,0.787784457940408,330.623289691865
738213.71576544805429875851,11.1520737327189,0.960112308114872,330.709453616952
738213.71576553839258849621,11.3613289793593,1.37862280139571,330.647907956175
738213.71576562884729355574,11.6444390189316,1.9571520126957,330.377107048758
738213.71576571930199861526,11.4844203009125,1.94484288054038,330.438652709535
738213.71576580975670367479,11.1274554684083,1.20629495122125,330.487889238156
738213.71576590021140873432,10.8566545609912,0.627765739921262,330.623289691865
738213.71576599066611379385,10.9182002217678,0.701620532853175,330.598671427554
738213.71576608100440353155,11.1274554684083,0.960112308114872,330.586362295399
738213.71576617145910859108,11.1766919970295,0.997039704580828,330.610980559709
738213.71576626191381365061,11.1397646005636,0.997039704580828,330.377107048758
738213.71576635236851871014,11.1274554684083,0.984730572425509,330.377107048758
738213.71576644282322376966,11.1274554684083,0.984730572425509,330.500198370312
738213.71576653327792882919,11.1520737327189,0.997039704580828,330.524816634622
738213.71576662373263388872,11.1766919970295,1.02165796889147,330.537125766778
738213.71576671407092362642,11.1643828648742,1.00934883673615,330.561744031088
738213.71576680452562868595,11.1890011291849,1.03396710104678,330.574053163243
738213.71576689498033374548,11.1766919970295,1.02165796889147,330.586362295399
738213.71576698543503880501,11.1520737327189,1.00934883673615,330.610980559709
738213.71576707588974386454,11.1766919970295,1.02165796889147,330.598671427554
738213.71576716634444892406,11.2013102613402,1.07089449751274,330.549434898933
738213.71576725679915398359,11.2013102613402,1.07089449751274,330.537125766778
738213.71576734713744372129,11.2259285256508,1.08320362966806,330.549434898933
738213.71576743759214878082,11.2136193934955,1.1078218939787,330.574053163243
738213.71576752804685384035,11.2505467899614,1.1078218939787,330.660217088331
738213.71576761850155889988,11.2505467899614,1.14474929044465,330.586362295399
738213.71576770895626395941,11.2505467899614,1.15705842259997,330.598671427554
738213.71576779941096901894,11.2628559221168,1.18167668691061,330.574053163243
738213.71576788986567407846,11.2628559221168,1.19398581906593,330.623289691865
738213.71576798020396381617,11.2997833185827,1.19398581906593,330.561744031088
738213.71576807065866887569,11.2874741864274,1.23091321553189,330.598671427554
738213.71576816111337393522,11.3244015828934,1.31707714061912,330.623289691865
738213.71576825156807899475,11.3613289793593,1.34169540492976,330.63559882402
738213.71576834202278405428,11.3367107150487,1.35400453708508,330.672526220486
738213.71576843247748911381,11.3736381115146,1.37862280139571,330.623289691865
738213.71576852293219417334,11.3736381115146,1.40324106570635,330.63559882402
738213.71576861327048391104,11.3613289793593,1.41555019786167,330.63559882402
738213.71576870372518897057,11.349019847204,1.44016846217231,330.623289691865
738213.71576879417989403009,11.3736381115146,1.44016846217231,330.63559882402
738213.71576888463459908962,11.3982563758253,1.45247759432763,330.660217088331
738213.71576897508930414915,11.38594724367,1.42785933001699,330.672526220486
738213.71576906554400920868,11.349019847204,1.39093193355103,330.598671427554
738213.71576915599871426821,11.2997833185827,1.31707714061912,330.610980559709
738213.71576924633700400591,11.2628559221168,1.25553147984252,330.623289691865
738213.71576933679170906544,11.2382376578061,1.19398581906593,330.623289691865
738213.71576942724641412497,11.2259285256508,1.18167668691061,330.574053163243
738213.71576951770111918449,11.2013102613402,1.15705842259997,330.660217088331
738213.71576960815582424402,11.1643828648742,1.12013102613402,330.647907956175
738213.71576969861052930355,11.1397646005636,1.09551276182338,330.549434898933
738213.71576978894881904125,11.1397646005636,1.07089449751274,330.549434898933
738213.71576987940352410078,11.1643828648742,1.07089449751274,330.500198370312
738213.71576996985822916031,11.1520737327189,1.07089449751274,330.623289691865
738213.71577006031293421984,11.1520737327189,1.05858536535742,330.561744031088
738213.71577015076763927937,11.1397646005636,1.07089449751274,330.660217088331
738213.71577024122234433889,11.1520737327189,1.05858536535742,330.647907956175
738213.71577033167704939842,11.1643828648742,1.05858536535742,330.586362295399
738213.71577042201533913612,11.1766919970295,1.07089449751274,330.623289691865
738213.71577051247004419565,11.2136193934955,1.13244015828934,330.647907956175
738213.71577060292474925518,11.1520737327189,1.08320362966806,330.574053163243
738213.71577069337945431471,11.1766919970295,1.1078218939787,330.586362295399
738213.71577078383415937424,11.1397646005636,1.09551276182338,330.524816634622
738213.71577087428886443377,11.1151463362529,1.08320362966806,330.598671427554
738213.71577096474356949329,11.1520737327189,1.08320362966806,330.512507502467
738213.71577105508185923100,11.1643828648742,1.07089449751274,330.549434898933
738213.71577114553656429052,11.1397646005636,1.08320362966806,330.549434898933
738213.71577123599126935005,11.1643828648742,1.07089449751274,330.549434898933
738213.71577132644597440958,11.1520737327189,1.05858536535742,330.598671427554
738213.71577141690067946911,11.1274554684083,1.02165796889147,330.598671427554
738213.71577150735538452864,11.0905280719423,1.00934883673615,330.647907956175
738213.71577159781008958817,11.1028372040976,1.02165796889147,330.610980559709
738213.71577168814837932587,11.1397646005636,1.05858536535742,330.586362295399
738213.71577177860308438540,11.1151463362529,1.0462762332021,330.598671427554
738213.71577186905778944492,11.1274554684083,1.03396710104678,330.623289691865
738213.71577195951249450445,11.1028372040976,1.02165796889147,330.574053163243
738213.71577204996719956398,11.1643828648742,1.08320362966806,330.561744031088
738213.71577214042190462351,11.1274554684083,1.05858536535742,330.574053163243
738213.71577223087660968304,11.1151463362529,1.02165796889147,330.598671427554
738213.71577232121489942074,11.0905280719423,1.00934883673615,330.549434898933
738213.71577241166960448027,11.1151463362529,1.0462762332021,330.586362295399
738213.71577250212430953979,11.1151463362529,1.03396710104678,330.549434898933
738213.71577259257901459932,11.1274554684083,1.03396710104678,330.537125766778
738213.71577268303371965885,11.1151463362529,1.00934883673615,330.610980559709
738213.71577277348842471838,11.1028372040976,1.02165796889147,330.598671427554
738213.71577286382671445608,11.1520737327189,1.0462762332021,330.586362295399
738213.71577295428141951561,11.1397646005636,1.0462762332021,330.524816634622
738213.71577304473612457514,11.1397646005636,1.03396710104678,330.549434898933
738213.71577313519082963467,11.1274554684083,1.03396710104678,330.574053163243
738213.71577322564553469419,11.2013102613402,1.13244015828934,330.561744031088
738213.71577331610023975372,11.2382376578061,1.16936755475529,330.487889238156
738213.71577340655494481325,11.2013102613402,1.15705842259997,330.487889238156
738213.71577349689323455095,11.1890011291849,1.1078218939787,330.610980559709
738213.71577358734793961048,11.1397646005636,1.05858536535742,330.610980559709
738213.71577367780264467001,11.1397646005636,1.05858536535742,330.610980559709
738213.71577376825734972954,11.1274554684083,1.03396710104678,330.623289691865
738213.71577385871205478907,11.1028372040976,0.997039704580828,330.610980559709
738213.71577394916675984859,11.1028372040976,1.02165796889147,330.561744031088
738213.71577403962146490812,11.1028372040976,1.00934883673615,330.623289691865
738213.71577412995975464582,11.078218939787,0.997039704580828,330.63559882402
738213.71577422041445970535,11.1151463362529,1.00934883673615,330.537125766778
738213.71577431086916476488,11.1151463362529,1.02165796889147,330.610980559709
738213.71577440132386982441,11.0905280719423,0.984730572425509,330.63559882402
738213.71577449177857488394,11.078218939787,0.886257515182958,330.610980559709
738213.71577458223327994347,11.1028372040976,0.910875779493596,330.660217088331
738213.71577467268798500299,11.2013102613402,1.20629495122125,330.684835352641
738213.71577476302627474070,11.4598020366019,1.73558763389996,330.45096184169
738213.71577485348097980022,11.6444390189316,2.09255246640421,330.340179652292
738213.71577494393568485975,11.2382376578061,1.58787804803613,330.45096184169
738213.71577503439038991928,11.0536006754763,1.15705842259997,330.463270973846
738213.71577512484509497881,10.7951089002146,0.603147475610625,330.475580106001
738213.71577521529980003834,10.8812728253019,0.726238797163813,330.463270973846
738213.71577530575450509787,11.1151463362529,1.00934883673615,330.524816634622
738213.71577539609279483557,11.1028372040976,1.02165796889147,330.500198370312
738213.71577548654749989510,11.1397646005636,1.03396710104678,330.537125766778
738213.71577557700220495462,11.1274554684083,1.02165796889147,330.537125766778
738213.71577566745691001415,11.1274554684083,1.03396710104678,330.524816634622
738213.71577575791161507368,11.1397646005636,1.0462762332021,330.598671427554
738213.71577584836632013321,11.1397646005636,1.05858536535742,330.549434898933
738213.71577593882102519274,11.1397646005636,1.05858536535742,330.561744031088
738213.71577602915931493044,11.1520737327189,1.07089449751274,330.524816634622
738213.71577611961401998997,11.1520737327189,1.07089449751274,330.537125766778
738213.71577621006872504950,11.1520737327189,1.07089449751274,330.487889238156
738213.71577630052343010902,11.1397646005636,1.09551276182338,330.487889238156
738213.71577639097813516855,11.1766919970295,1.13244015828934,330.549434898933
738213.71577648143284022808,11.1890011291849,1.1078218939787,330.500198370312
738213.71577657177112996578,11.1890011291849,1.12013102613402,330.500198370312
738213.71577666222583502531,11.2013102613402,1.15705842259997,330.487889238156
738213.71577675268054008484,11.2013102613402,1.15705842259997,330.512507502467
738213.71577684313524514437,11.2259285256508,1.18167668691061,330.512507502467
738213.71577693358995020390,11.2505467899614,1.20629495122125,330.414034445224
738213.71577702404465526342,11.2382376578061,1.21860408337657,330.537125766778
738213.71577711449936032295,11.2259285256508,1.20629495122125,330.487889238156
738213.71577720483765006065,11.2628559221168,1.29245887630848,330.574053163243
738213.71577729529235512018,11.2997833185827,1.32938627277444,330.610980559709
738213.71577738574706017971,11.2997833185827,1.34169540492976,330.537125766778
738213.71577747620176523924,11.312092450738,1.37862280139571,330.610980559709
738213.71577756665647029877,11.2997833185827,1.39093193355103,330.623289691865
738213.71577765711117535830,11.349019847204,1.41555019786167,330.623289691865
738213.71577774756588041782,11.3367107150487,1.42785933001699,330.623289691865
738213.71577783790417015553,11.3367107150487,1.42785933001699,330.672526220486
738213.71577792835887521505,11.3367107150487,1.46478672648295,330.660217088331
738213.71577801881358027458,11.312092450738,1.44016846217231,330.623289691865
738213.71577810926828533411,11.349019847204,1.41555019786167,330.574053163243
738213.71577819972299039364,11.3244015828934,1.39093193355103,330.610980559709
738213.71577829017769545317,11.2259285256508,1.28014974415316,330.610980559709
738213.71577838063240051270,11.2505467899614,1.24322234768721,330.487889238156
738213.71577847097069025040,11.2259285256508,1.20629495122125,330.524816634622
738213.71577856142539530993,11.2013102613402,1.16936755475529,330.574053163243
738213.71577865188010036945,11.1643828648742,1.13244015828934,330.574053163243
738213.71577874233480542898,11.1274554684083,1.1078218939787,330.463270973846
738213.71577883278951048851,11.1643828648742,1.12013102613402,330.549434898933
738213.71577892324421554804,11.1397646005636,1.12013102613402,330.598671427554
738213.71577901369892060757,11.1397646005636,1.12013102613402,330.537125766778
738213.71577910403721034527,11.1274554684083,1.08320362966806,330.537125766778
738213.71577919449191540480,11.1274554684083,1.1078218939787,330.574053163243
738213.71577928494662046432,11.1520737327189,1.1078218939787,330.537125766778
738213.71577937540132552385,11.1028372040976,1.1078218939787,330.537125766778
738213.71577946585603058338,11.1397646005636,1.08320362966806,330.512507502467
738213.71577955631073564291,11.1520737327189,1.1078218939787,330.561744031088
738213.71577964664902538061,11.1397646005636,1.1078218939787,330.549434898933
738213.71577973710373044014,11.1397646005636,1.15705842259997,330.463270973846
738213.71577982755843549967,11.1397646005636,1.12013102613402,330.512507502467
738213.71577991801314055920,11.1151463362529,1.1078218939787,330.475580106001
738213.71578000846784561872,11.1274554684083,1.1078218939787,330.463270973846
738213.71578009892255067825,11.1151463362529,1.09551276182338,330.487889238156
738213.71578018937725573778,11.1028372040976,1.07089449751274,330.500198370312
738213.71578027971554547548,11.1274554684083,1.09551276182338,330.512507502467
738213.71578037017025053501,11.1274554684083,1.1078218939787,330.438652709535
738213.71578046062495559454,11.1274554684083,1.09551276182338,330.352488784448
738213.71578055107966065407,11.1274554684083,1.12013102613402,330.537125766778
738213.71578064153436571360,11.1274554684083,1.1078218939787,330.500198370312
738213.71578073198907077312,11.1274554684083,1.08320362966806,330.512507502467
738213.71578082244377583265,11.1274554684083,1.1078218939787,330.524816634622
738213.71578091278206557035,11.1274554684083,1.12013102613402,330.561744031088
738213.71578100323677062988,11.1151463362529,1.12013102613402,330.586362295399
738213.71578109369147568941,11.0905280719423,1.12013102613402,330.586362295399
738213.71578118414618074894,11.0659098076317,1.09551276182338,330.549434898933
738213.71578127460088580847,11.0536006754763,1.09551276182338,330.512507502467
738213.71578136505559086800,11.0905280719423,1.07089449751274,330.524816634622
738213.71578145551029592752,11.0905280719423,1.07089449751274,330.512507502467
738213.71578154584858566523,11.0659098076317,1.07089449751274,330.610980559709
738213.71578163630329072475,11.1151463362529,1.07089449751274,330.610980559709
738213.71578172675799578428,11.1028372040976,1.08320362966806,330.475580106001
738213.71578181721270084381,11.1151463362529,1.08320362966806,330.524816634622
738213.71578190766740590334,11.078218939787,1.0462762332021,330.524816634622
738213.71578199812211096287,11.0659098076317,1.02165796889147,330.549434898933
738213.71578208857681602240,11.1151463362529,1.1078218939787,330.524816634622
738213.71578217891510576010,11.1151463362529,1.12013102613402,330.537125766778
738213.71578226936981081963,11.1643828648742,1.13244015828934,330.574053163243
738213.71578235982451587915,11.1643828648742,1.14474929044465,330.512507502467
738213.71578245027922093868,11.1520737327189,1.16936755475529,330.524816634622
738213.71578254073392599821,11.1397646005636,1.18167668691061,330.574053163243
738213.71578263118863105774,11.1520737327189,1.1078218939787,330.598671427554
738213.71578272164333611727,11.1274554684083,1.1078218939787,330.537125766778
738213.71578281198162585497,11.0659098076317,1.0462762332021,330.487889238156
738213.71578290243633091450,11.0905280719423,1.0462762332021,330.500198370312
738213.71578299289103597403,11.1274554684083,1.09551276182338,330.487889238156
738213.71578308334574103355,11.0905280719423,1.08320362966806,330.487889238156
738213.71578317380044609308,11.0905280719423,1.05858536535742,330.524816634622
738213.71578326425515115261,11.0905280719423,1.02165796889147,330.549434898933
738213.71578335459344089031,11.0659098076317,1.05858536535742,330.574053163243
738213.71578344504814594984,11.078218939787,1.03396710104678,330.500198370312
738213.71578353550285100937,11.0536006754763,0.923184911648915,330.500198370312
738213.71578362595755606890,11.078218939787,0.935494043804234,330.537125766778
738213.71578371641226112843,11.1890011291849,1.18167668691061,330.586362295399
738213.71578380686696618795,11.2874741864274,1.44016846217231,330.524816634622
738213.71578389732167124748,11.5952024903104,1.98177027700634,330.229397462895
738213.71578398765996098518,11.3613289793593,1.90791548407442,330.290943123671
738213.71578407811466604471,10.9920550146997,1.23091321553189,330.389416180914
738213.71578416856937110424,10.8566545609912,0.701620532853175,330.42634357738
738213.71578425902407616377,10.8689636931466,0.726238797163813,330.45096184169
738213.71578434947878122330,11.041291543321,0.997039704580828,330.500198370312
738213.71578443993348628283,11.1151463362529,1.05858536535742,330.574053163243
738213.71578453038819134235,11.0905280719423,1.05858536535742,330.574053163243
738213.71578462072648108006,11.0659098076317,1.02165796889147,330.512507502467
738213.71578471118118613958,11.1151463362529,1.08320362966806,330.549434898933
738213.71578480163589119911,11.0905280719423,1.08320362966806,330.574053163243
738213.71578489209059625864,11.1151463362529,1.07089449751274,330.610980559709
738213.71578498254530131817,11.1274554684083,1.05858536535742,330.610980559709
738213.71578507300000637770,11.1274554684083,1.1078218939787,330.537125766778
738213.71578516345471143723,11.1274554684083,1.12013102613402,330.610980559709
738213.71578525379300117493,11.1151463362529,1.12013102613402,330.537125766778
738213.71578534424770623446,11.1520737327189,1.14474929044465,330.586362295399
738213.71578543470241129398,11.1274554684083,1.13244015828934,330.561744031088
738213.71578552515711635351,11.1274554684083,1.1078218939787,330.561744031088
738213.71578561561182141304,11.1643828648742,1.16936755475529,330.561744031088
738213.71578570606652647257,11.1643828648742,1.16936755475529,330.561744031088
738213.71578579652123153210,11.1520737327189,1.19398581906593,330.574053163243
738213.71578588685952126980,11.1766919970295,1.19398581906593,330.561744031088
738213.71578597731422632933,11.2136193934955,1.25553147984252,330.561744031088
738213.71578606776893138885,11.1766919970295,1.25553147984252,330.512507502467
738213.71578615822363644838,11.2259285256508,1.3047680084638,330.537125766778
738213.71578624867834150791,11.2628559221168,1.32938627277444,330.524816634622
738213.71578633913304656744,11.2628559221168,1.35400453708508,330.524816634622
738213.71578642947133630514,11.2505467899614,1.39093193355103,330.610980559709
738213.71578651992604136467,11.312092450738,1.42785933001699,330.623289691865
738213.71578661038074642420,11.312092450738,1.45247759432763,330.63559882402
738213.71578670083545148373,11.312092450738,1.46478672648295,330.610980559709
738213.71578679129015654325,11.2505467899614,1.45247759432763,330.63559882402
738213.71578688174486160278,11.2997833185827,1.5017141229489,330.660217088331
738213.71578697219956666231,11.3613289793593,1.55095065157018,330.684835352641
738213.71578706253785640001,11.3367107150487,1.52633238725954,330.623289691865
738213.71578715299256145954,11.2997833185827,1.51402325510422,330.610980559709
738213.71578724344726651907,11.2874741864274,1.47709585863826,330.63559882402
738213.71578733390197157860,11.2505467899614,1.40324106570635,330.524816634622
738213.71578742435667663813,11.2259285256508,1.32938627277444,330.512507502467
738213.71578751481138169765,11.2136193934955,1.3047680084638,330.438652709535
738213.71578760526608675718,11.1274554684083,1.23091321553189,330.598671427554
738213.71578769560437649488,11.1643828648742,1.21860408337657,330.500198370312
738213.71578778605908155441,11.1643828648742,1.20629495122125,330.574053163243
738213.71578787651378661394,11.1274554684083,1.16936755475529,330.598671427554
738213.71578796696849167347,11.1028372040976,1.15705842259997,330.500198370312
738213.71578805742319673300,11.0905280719423,1.15705842259997,330.524816634622
738213.71578814787790179253,11.0905280719423,1.14474929044465,330.500198370312
738213.71578823833260685205,11.1397646005636,1.16936755475529,330.598671427554
738213.71578832867089658976,11.1151463362529,1.13244015828934,330.598671427554
738213.71578841912560164928,11.0905280719423,1.15705842259997,330.598671427554
738213.71578850958030670881,11.1274554684083,1.15705842259997,330.524816634622
738213.71578860003501176834,11.0659098076317,1.14474929044465,330.574053163243
738213.71578869048971682787,11.078218939787,1.12013102613402,330.574053163243
738213.71578878094442188740,11.1028372040976,1.13244015828934,330.487889238156
738213.71578887139912694693,11.0905280719423,1.14474929044465,330.537125766778
738213.71578896173741668463,11.078218939787,1.15705842259997,330.574053163243
738213.71578905219212174416,11.1028372040976,1.16936755475529,330.610980559709
738213.71578914264682680368,11.0659098076317,1.14474929044465,330.487889238156
738213.71578923310153186321,11.0659098076317,1.12013102613402,330.549434898933
738213.71578932355623692274,11.0659098076317,1.13244015828934,330.598671427554
738213.71578941401094198227,11.0905280719423,1.15705842259997,330.500198370312
738213.71578950434923171997,11.0659098076317,1.12013102613402,330.487889238156
738213.71578959480393677950,11.0536006754763,1.12013102613402,330.524816634622
738213.71578968525864183903,11.041291543321,1.09551276182338,330.463270973846
738213.71578977571334689856,11.0659098076317,1.12013102613402,330.549434898933
738213.71578986616805195808,11.1028372040976,1.15705842259997,330.586362295399
738213.71578995662275701761,11.1151463362529,1.15705842259997,330.561744031088
738213.71579004707746207714,11.078218939787,1.15705842259997,330.561744031088
738213.71579013741575181484,11.0659098076317,1.14474929044465,330.586362295399
738213.71579022787045687437,11.041291543321,1.13244015828934,330.512507502467
738213.71579031832516193390,11.0905280719423,1.20629495122125,330.598671427554
738213.71579040877986699343,11.078218939787,1.18167668691061,330.574053163243
738213.71579049923457205296,11.0536006754763,1.13244015828934,330.574053163243
738213.71579058968927711248,11.1028372040976,1.18167668691061,330.561744031088
738213.71579068014398217201,11.041291543321,1.1078218939787,330.586362295399
738213.71579077048227190971,11.078218939787,1.13244015828934,330.561744031088
738213.71579086093697696924,11.078218939787,1.13244015828934,330.574053163243
738213.71579095139168202877,11.078218939787,1.14474929044465,330.438652709535
738213.71579104184638708830,11.0659098076317,1.12013102613402,330.352488784448
738213.71579113230109214783,11.1028372040976,1.15705842259997,330.45096184169
738213.71579122275579720736,11.1028372040976,1.15705842259997,330.389416180914
738213.71579131321050226688,11.1151463362529,1.16936755475529,330.45096184169
738213.71579140354879200459,11.1643828648742,1.21860408337657,330.537125766778
738213.71579149400349706411,11.0905280719423,1.16936755475529,330.524816634622
738213.71579158445820212364,11.078218939787,1.12013102613402,330.610980559709
738213.71579167491290718317,11.1028372040976,1.13244015828934,330.574053163243
738213.71579176536761224270,11.0536006754763,1.08320362966806,330.561744031088
738213.71579185582231730223,11.0289824111657,1.07089449751274,330.586362295399
738213.71579194627702236176,10.9674367503891,1.05858536535742,330.524816634622
738213.71579203661531209946,11.0289824111657,1.09551276182338,330.524816634622
738213.71579212707001715899,11.078218939787,1.14474929044465,330.549434898933
738213.71579221752472221851,11.0289824111657,1.12013102613402,330.610980559709
738213.71579230797942727804,11.0166732790104,1.1078218939787,330.598671427554
738213.71579239843413233757,11.0289824111657,1.07089449751274,330.512507502467
738213.71579248888883739710,11.0166732790104,1.03396710104678,330.586362295399
738213.71579257934354245663,10.9920550146997,0.947803175959553,330.561744031088
738213.71579266968183219433,11.0659098076317,1.1078218939787,330.647907956175
738213.71579276013653725386,11.2751650542721,1.58787804803613,330.623289691865
738213.71579285059124231339,11.5213476973785,2.11717073071485,330.290943123671
738213.71579294104594737291,11.2013102613402,1.85867895545315,330.537125766778
738213.71579303150065243244,10.9058910896125,1.16936755475529,330.512507502467
738213.71579312195535749197,10.7827997680593,0.775475325785089,330.463270973846
738213.71579321229364722967,10.8443454288359,0.87394838302764,330.475580106001
738213.71579330274835228920,11.0289824111657,1.1078218939787,330.537125766778
738213.71579339320305734873,11.0905280719423,1.16936755475529,330.549434898933
738213.71579348365776240826,11.078218939787,1.15705842259997,330.586362295399
738213.71579357411246746778,11.0289824111657,1.15705842259997,330.610980559709
738213.71579366456717252731,11.0905280719423,1.16936755475529,330.561744031088
738213.71579375502187758684,11.0536006754763,1.1078218939787,330.610980559709
738213.71579384536016732454,11.0905280719423,1.15705842259997,330.586362295399
738213.71579393581487238407,11.1274554684083,1.21860408337657,330.610980559709
738213.71579402626957744360,11.1028372040976,1.19398581906593,330.63559882402
738213.71579411672428250313,11.1397646005636,1.21860408337657,330.574053163243
738213.71579420717898756266,11.1274554684083,1.23091321553189,330.598671427554
738213.71579429763369262218,11.1397646005636,1.23091321553189,330.549434898933
738213.71579438808839768171,11.1397646005636,1.24322234768721,330.63559882402
738213.71579447842668741941,11.1397646005636,1.23091321553189,330.574053163243
738213.71579456888139247894,11.1274554684083,1.28014974415316,330.512507502467
738213.71579465933609753847,11.1643828648742,1.28014974415316,330.623289691865
738213.71579474979080259800,11.1766919970295,1.3047680084638,330.63559882402
738213.71579484024550765753,11.1766919970295,1.32938627277444,330.647907956175
738213.71579493070021271706,11.1643828648742,1.32938627277444,330.598671427554
738213.71579502115491777658,11.2013102613402,1.36631366924039,330.672526220486
738213.71579511149320751429,11.2136193934955,1.39093193355103,330.684835352641
738213.71579520194791257381,11.2259285256508,1.41555019786167,330.647907956175
738213.71579529240261763334,11.1890011291849,1.41555019786167,330.709453616952
738213.71579538285732269287,11.2136193934955,1.45247759432763,330.709453616952
738213.71579547331202775240,11.2382376578061,1.48940499079358,330.660217088331
738213.71579556376673281193,11.2259285256508,1.5017141229489,330.709453616952
738213.71579565422143787146,11.2751650542721,1.55095065157018,330.734071881263
738213.71579574455972760916,11.2505467899614,1.52633238725954,330.697144484797
738213.71579583501443266869,11.2382376578061,1.51402325510422,330.660217088331
738213.71579592546913772821,11.2751650542721,1.52633238725954,330.672526220486
738213.71579601592384278774,11.2505467899614,1.51402325510422,330.586362295399
738213.71579610637854784727,11.2505467899614,1.48940499079358,330.487889238156
738213.71579619683325290680,11.2136193934955,1.41555019786167,330.524816634622
738213.71579628717154264450,11.1397646005636,1.32938627277444,330.500198370312
738213.71579637762624770403,11.1766919970295,1.3047680084638,330.487889238156
738213.71579646808095276356,11.1274554684083,1.23091321553189,330.487889238156
738213.71579655853565782309,11.1028372040976,1.16936755475529,330.537125766778
738213.71579664899036288261,11.0166732790104,1.09551276182338,330.549434898933
738213.71579673944506794214,11.078218939787,1.15705842259997,330.487889238156
738213.71579682989977300167,11.0536006754763,1.1078218939787,330.574053163243
738213.71579692023806273937,11.0659098076317,1.1078218939787,330.561744031088
738213.71579701069276779890,11.0166732790104,1.09551276182338,330.45096184169
738213.71579710114747285843,11.0536006754763,1.1078218939787,330.524816634622
738213.71579719160217791796,11.041291543321,1.09551276182338,330.512507502467
738213.71579728205688297749,11.0536006754763,1.1078218939787,330.500198370312
738213.71579737251158803701,10.9920550146997,1.08320362966806,330.537125766778
738213.71579746296629309654,11.0043641468551,1.08320362966806,330.574053163243
738213.71579755330458283424,11.0659098076317,1.13244015828934,330.574053163243
738213.71579764375928789377,11.0289824111657,1.09551276182338,330.537125766778
738213.71579773421399295330,11.0166732790104,1.08320362966806,330.598671427554
738213.71579782466869801283,10.9551276182338,1.0462762332021,330.586362295399
738213.71579791512340307236,10.9674367503891,1.07089449751274,330.574053163243
738213.71579800557810813189,11.0289824111657,1.12013102613402,330.487889238156
738213.71579809603281319141,11.0289824111657,1.1078218939787,330.42634357738
738213.71579818637110292912,11.0166732790104,1.1078218939787,330.537125766778
738213.71579827682580798864,11.0166732790104,1.1078218939787,330.537125766778
738213.71579836728051304817,11.0166732790104,1.08320362966806,330.574053163243
738213.71579845773521810770,11.0043641468551,1.08320362966806,330.512507502467
738213.71579854818992316723,10.9797458825444,1.05858536535742,330.598671427554
738213.71579863864462822676,11.0166732790104,1.09551276182338,330.63559882402
738213.71579872909933328629,11.0289824111657,1.1078218939787,330.647907956175
738213.71579881943762302399,11.041291543321,1.1078218939787,330.623289691865
738213.71579890989232808352,11.0043641468551,1.12013102613402,330.697144484797
738213.71579900034703314304,11.0043641468551,1.12013102613402,330.63559882402
738213.71579909080173820257,10.9920550146997,1.07089449751274,330.574053163243
738213.71579918125644326210,11.041291543321,1.15705842259997,330.647907956175
738213.71579927171114832163,11.0659098076317,1.18167668691061,330.63559882402
738213.71579936216585338116,11.0166732790104,1.1078218939787,330.574053163243
738213.71579945250414311886,11.0166732790104,1.09551276182338,330.598671427554
738213.71579954295884817839,11.0289824111657,1.13244015828934,330.672526220486
738213.71579963341355323792,11.0166732790104,1.1078218939787,330.647907956175
738213.71579972386825829744,11.0043641468551,1.1078218939787,330.647907956175
738213.71579981432296335697,11.0289824111657,1.09551276182338,330.660217088331
738213.71579990477766841650,11.0659098076317,1.15705842259997,330.63559882402
738213.71579999511595815420,11.0536006754763,1.13244015828934,330.63559882402
738213.71580008557066321373,11.0043641468551,1.09551276182338,330.574053163243
738213.71580017602536827326,11.0536006754763,1.13244015828934,330.610980559709
738213.71580026648007333279,11.0659098076317,1.15705842259997,330.549434898933
738213.71580035693477839231,11.0905280719423,1.18167668691061,330.512507502467
738213.71580044738948345184,11.1028372040976,1.21860408337657,330.63559882402
738213.71580053784418851137,11.0536006754763,1.20629495122125,330.561744031088
738213.71580062818247824907,11.0536006754763,1.14474929044465,330.586362295399
738213.71580071863718330860,11.0043641468551,1.09551276182338,330.512507502467
738213.71580080909188836813,11.0043641468551,1.08320362966806,330.598671427554
738213.71580089954659342766,10.9674367503891,1.0462762332021,330.561744031088
738213.71580099000129848719,10.9920550146997,1.05858536535742,330.610980559709
738213.71580108045600354671,10.9551276182338,1.02165796889147,330.524816634622
738213.71580117091070860624,10.9674367503891,1.03396710104678,330.574053163243
738213.71580126124899834394,10.9551276182338,1.00934883673615,330.63559882402
738213.71580135170370340347,10.9428184860785,0.997039704580828,330.586362295399
738213.71580144215840846300,10.9428184860785,0.984730572425509,330.537125766778
738213.71580153261311352253,10.9551276182338,0.997039704580828,330.512507502467
738213.71580162306781858206,10.9305093539232,0.886257515182958,330.414034445224
738213.71580171352252364159,10.9797458825444,0.947803175959553,330.610980559709
738213.71580180397722870111,11.1766919970295,1.36631366924039,330.524816634622
738213.71580189431551843882,11.4598020366019,1.90791548407442,330.315561387982
738213.71580198477022349834,11.2505467899614,1.88329721976379,330.463270973846
738213.71580207522492855787,10.9428184860785,1.28014974415316,330.401725313069
738213.71580216567963361740,10.7089449751274,0.701620532853175,330.42634357738
738213.71580225613433867693,10.7458723715934,0.689311400697857,330.414034445224
738213.71580234658904373646,10.9182002217678,0.960112308114872,330.487889238156
738213.71580243704374879599,11.0043641468551,1.0462762332021,330.537125766778
738213.71580252738203853369,10.9920550146997,1.0462762332021,330.537125766778
738213.71580261783674359322,10.9920550146997,1.0462762332021,330.574053163243
738213.71580270829144865274,10.9920550146997,1.0462762332021,330.586362295399
738213.71580279874615371227,10.9797458825444,1.0462762332021,330.487889238156
738213.71580288920085877180,11.0289824111657,1.09551276182338,330.586362295399
738213.71580297965556383133,11.0166732790104,1.08320362966806,330.574053163243
738213.71580306999385356903,11.0166732790104,1.08320362966806,330.586362295399
738213.71580316044855862856,11.041291543321,1.13244015828934,330.438652709535
738213.71580325090326368809,11.0289824111657,1.12013102613402,330.561744031088
738213.71580334135796874762,11.0289824111657,1.12013102613402,330.598671427554
738213.71580343181267380714,11.0043641468551,1.09551276182338,330.598671427554
738213.71580352226737886667,11.0659098076317,1.14474929044465,330.63559882402
738213.71580361272208392620,11.0659098076317,1.18167668691061,330.623289691865
738213.71580370306037366390,11.078218939787,1.20629495122125,330.623289691865
738213.71580379351507872343,11.0905280719423,1.23091321553189,330.586362295399
738213.71580388396978378296,11.1028372040976,1.24322234768721,330.610980559709
738213.71580397442448884249,11.1028372040976,1.24322234768721,330.647907956175
738213.71580406487919390202,11.1274554684083,1.26784061199784,330.63559882402
738213.71580415533389896154,11.1520737327189,1.31707714061912,330.598671427554
738213.71580424578860402107,11.1643828648742,1.35400453708508,330.623289691865
738213.71580433612689375877,11.1890011291849,1.39093193355103,330.647907956175
738213.71580442658159881830,11.1766919970295,1.39093193355103,330.524816634622
738213.71580451703630387783,11.2136193934955,1.44016846217231,330.623289691865
738213.71580460749100893736,11.2382376578061,1.48940499079358,330.672526220486
738213.71580469794571399689,11.2013102613402,1.46478672648295,330.672526220486
738213.71580478840041905642,11.2259285256508,1.47709585863826,330.574053163243
738213.71580487885512411594,11.2628559221168,1.51402325510422,330.586362295399
738213.71580496919341385365,11.2382376578061,1.5017141229489,330.512507502467
738213.71580505964811891317,11.2505467899614,1.51402325510422,330.42634357738
738213.71580515010282397270,11.2382376578061,1.5017141229489,330.45096184169
738213.71580524055752903223,11.2382376578061,1.47709585863826,330.574053163243
738213.71580533101223409176,11.1766919970295,1.44016846217231,330.537125766778
738213.71580542146693915129,11.1643828648742,1.35400453708508,330.463270973846
738213.71580551192164421082,11.1151463362529,1.3047680084638,330.500198370312
738213.71580560225993394852,11.1028372040976,1.25553147984252,330.475580106001
738213.71580569271463900805,11.078218939787,1.19398581906593,330.463270973846
738213.71580578316934406757,11.0536006754763,1.19398581906593,330.487889238156
738213.71580587362404912710,11.0536006754763,1.18167668691061,330.524816634622
738213.71580596407875418663,11.0659098076317,1.15705842259997,330.574053163243
738213.71580605453345924616,11.0536006754763,1.16936755475529,330.512507502467
738213.71580614498816430569,11.0289824111657,1.16936755475529,330.598671427554
738213.71580623532645404339,11.041291543321,1.15705842259997,330.561744031088
738213.71580632578115910292,11.0536006754763,1.14474929044465,330.512507502467
738213.71580641623586416245,11.041291543321,1.14474929044465,330.438652709535
738213.71580650669056922197,11.041291543321,1.15705842259997,330.549434898933
738213.71580659714527428150,11.0659098076317,1.18167668691061,330.586362295399
738213.71580668759997934103,11.041291543321,1.14474929044465,330.598671427554
738213.71580677793826907873,11.0536006754763,1.15705842259997,330.487889238156
738213.71580686839297413826,11.0166732790104,1.14474929044465,330.549434898933
738213.71580695884767919779,11.041291543321,1.15705842259997,330.549434898933
738213.71580704930238425732,11.0289824111657,1.13244015828934,330.561744031088
738213.71580713975708931684,11.0166732790104,1.1078218939787,330.574053163243
738213.71580723021179437637,11.0043641468551,1.12013102613402,330.63559882402
738213.71580732066649943590,11.0166732790104,1.14474929044465,330.586362295399
738213.71580741100478917360,11.0289824111657,1.12013102613402,330.574053163243
738213.71580750145949423313,11.0289824111657,1.13244015828934,330.610980559709
738213.71580759191419929266,11.041291543321,1.14474929044465,330.623289691865
738213.71580768236890435219,11.0289824111657,1.13244015828934,330.549434898933
738213.71580777282360941172,11.0289824111657,1.12013102613402,330.598671427554
738213.71580786327831447124,11.0289824111657,1.12013102613402,330.610980559709
738213.71580795373301953077,11.0289824111657,1.12013102613402,330.537125766778
738213.71580804407130926847,11.0166732790104,1.12013102613402,330.610980559709
738213.71580813452601432800,11.0166732790104,1.1078218939787,330.586362295399
738213.71580822498071938753,11.0166732790104,1.1078218939787,330.598671427554
738213.71580831543542444706,11.0289824111657,1.1078218939787,330.610980559709
738213.71580840589012950659,11.0166732790104,1.1078218939787,330.598671427554
738213.71580849634483456612,11.0043641468551,1.1078218939787,330.549434898933
738213.71580858679953962564,11.0166732790104,1.12013102613402,330.487889238156
738213.71580867713782936335,11.0289824111657,1.13244015828934,330.438652709535
738213.71580876759253442287,11.0289824111657,1.09551276182338,330.574053163243
738213.71580885804723948240,11.0289824111657,1.1078218939787,330.598671427554
738213.71580894850194454193,11.0166732790104,1.09551276182338,330.561744031088
738213.71580903895664960146,11.0289824111657,1.09551276182338,330.549434898933
738213.71580912941135466099,11.0289824111657,1.1078218939787,330.586362295399
738213.71580921986605972052,11.0289824111657,1.12013102613402,330.500198370312
738213.71580931020434945822,11.0536006754763,1.13244015828934,330.537125766778
738213.71580940065905451775,11.0905280719423,1.16936755475529,330.561744031088
738213.71580949111375957727,11.078218939787,1.19398581906593,330.500198370312
738213.71580958156846463680,11.1028372040976,1.20629495122125,330.549434898933
738213.71580967202316969633,11.078218939787,1.18167668691061,330.524816634622
738213.71580976247787475586,11.0905280719423,1.15705842259997,330.524816634622
738213.71580985281616449356,10.9920550146997,1.08320362966806,330.487889238156
738213.71580994327086955309,10.9920550146997,1.07089449751274,330.500198370312
738213.71581003372557461262,11.0536006754763,1.14474929044465,330.537125766778
738213.71581012418027967215,11.0043641468551,1.09551276182338,330.537125766778
738213.71581021463498473167,11.0043641468551,1.09551276182338,330.524816634622
738213.71581030508968979120,11.0289824111657,1.1078218939787,330.512507502467
738213.71581039554439485073,11.0166732790104,1.08320362966806,330.561744031088
738213.71581048588268458843,10.9920550146997,1.08320362966806,330.574053163243
738213.71581057633738964796,10.9920550146997,1.05858536535742,330.524816634622
738213.71581066679209470749,10.9920550146997,1.07089449751274,330.549434898933
738213.71581075724679976702,10.8935819574572,0.886257515182958,330.549434898933
738213.71581084770150482655,11.1151463362529,1.05858536535742,330.586362295399
738213.71581093815620988607,11.1890011291849,1.29245887630848,330.647907956175
738213.71581102861091494560,11.4228746401359,1.80944242683187,330.45096184169
738213.71581111894920468330,11.5213476973785,2.19102552364676,330.254015727205
738213.71581120940390974283,11.1643828648742,1.698660237434,330.45096184169
738213.71581129985861480236,10.7581815037487,0.824711854406364,330.487889238156
738213.71581139031331986189,10.6966358429721,0.603147475610625,330.487889238156
738213.71581148076802492142,10.9428184860785,0.935494043804234,330.438652709535
738213.71581157122272998095,11.1151463362529,1.15705842259997,330.561744031088
738213.71581166167743504047,11.0905280719423,1.13244015828934,330.574053163243
738213.71581175201572477818,11.0905280719423,1.12013102613402,330.561744031088
738213.71581184247042983770,11.0536006754763,1.1078218939787,330.487889238156
738213.71581193292513489723,11.0289824111657,1.05858536535742,330.524816634622
738213.71581202337983995676,10.9920550146997,1.02165796889147,330.537125766778
738213.71581211383454501629,11.078218939787,1.15705842259997,330.364797916603
738213.71581220428925007582,11.1151463362529,1.16936755475529,330.438652709535
738213.71581229474395513535,11.1274554684083,1.16936755475529,330.524816634622
738213.71581238508224487305,11.1890011291849,1.25553147984252,330.487889238156
738213.71581247553694993258,11.1028372040976,1.18167668691061,330.524816634622
738213.71581256599165499210,11.041291543321,1.13244015828934,330.574053163243
738213.71581265644636005163,11.1766919970295,1.26784061199784,330.500198370312
738213.71581274690106511116,11.1028372040976,1.20629495122125,330.549434898933
738213.71581283735577017069,11.0289824111657,1.12013102613402,330.549434898933
738213.71581292781047523022,11.1274554684083,1.24322234768721,330.549434898933
738213.71581301814876496792,11.1520737327189,1.26784061199784,330.524816634622
738213.71581310860347002745,11.2013102613402,1.28014974415316,330.537125766778
738213.71581319905817508698,11.2013102613402,1.28014974415316,330.463270973846
738213.71581328951288014650,11.2505467899614,1.35400453708508,330.389416180914
738213.71581337996758520603,11.2382376578061,1.3047680084638,330.389416180914
738213.71581347042229026556,11.2505467899614,1.23091321553189,330.364797916603
738213.71581356076058000326,11.2628559221168,1.23091321553189,330.315561387982
738213.71581365121528506279,11.2136193934955,1.25553147984252,330.352488784448
738213.71581374166999012232,11.3613289793593,1.39093193355103,330.42634357738
738213.71581383212469518185,11.3244015828934,1.41555019786167,330.500198370312
738213.71581392257940024137,11.2997833185827,1.41555019786167,330.463270973846
738213.71581401303410530090,11.3367107150487,1.45247759432763,330.475580106001
738213.71581410348881036043,11.349019847204,1.47709585863826,330.45096184169
738213.71581419382710009813,11.2874741864274,1.42785933001699,330.389416180914
738213.71581428428180515766,11.3367107150487,1.44016846217231,330.42634357738
738213.71581437473651021719,11.4228746401359,1.52633238725954,330.42634357738
738213.71581446519121527672,11.3613289793593,1.41555019786167,330.414034445224
738213.71581455564592033625,11.3244015828934,1.32938627277444,330.389416180914
738213.71581464610062539577,11.3613289793593,1.35400453708508,330.42634357738
738213.71581473655533045530,11.3244015828934,1.3047680084638,330.45096184169
738213.71581482689362019300,11.3244015828934,1.29245887630848,330.463270973846
738213.71581491734832525253,11.312092450738,1.28014974415316,330.463270973846
738213.71581500780303031206,11.2136193934955,1.24322234768721,330.487889238156
738213.71581509825773537159,11.2136193934955,1.24322234768721,330.512507502467
738213.71581518871244043112,11.2997833185827,1.3047680084638,330.524816634622
738213.71581527916714549065,11.2628559221168,1.23091321553189,330.524816634622
738213.71581536962185055017,11.2136193934955,1.21860408337657,330.524816634622
738213.71581545996014028788,11.2382376578061,1.24322234768721,330.537125766778
738213.71581555041484534740,11.2259285256508,1.19398581906593,330.549434898933
738213.71581564086955040693,11.1890011291849,1.14474929044465,330.340179652292
738213.71581573132425546646,11.2259285256508,1.14474929044465,330.401725313069
738213.71581582177896052599,11.3982563758253,1.25553147984252,330.586362295399
738213.71581591223366558552,11.312092450738,1.14474929044465,330.63559882402
738213.71581600268837064505,11.2382376578061,1.08320362966806,330.63559882402
738213.71581609302666038275,11.38594724367,1.21860408337657,330.598671427554
738213.71581618348136544228,11.3613289793593,1.19398581906593,330.623289691865
738213.71581627393607050180,11.349019847204,1.14474929044465,330.647907956175
738213.71581636439077556133,11.38594724367,1.23091321553189,330.500198370312
738213.71581645484548062086,11.2997833185827,1.14474929044465,330.537125766778
738213.71581654530018568039,11.2997833185827,1.14474929044465,330.549434898933
738213.71581663563847541809,11.2874741864274,1.13244015828934,330.512507502467
738213.71581672609318047762,11.2259285256508,1.08320362966806,330.574053163243
738213.71581681654788553715,11.2382376578061,1.09551276182338,330.574053163243
738213.71581690700259059668,11.3244015828934,1.18167668691061,330.574053163243
738213.71581699745729565620,11.2997833185827,1.15705842259997,330.487889238156
738213.71581708791200071573,11.2628559221168,1.05858536535742,330.512507502467
738213.71581717836670577526,11.1890011291849,1.00934883673615,330.500198370312
738213.71581726870499551296,11.2382376578061,1.0462762332021,330.475580106001
738213.71581735915970057249,11.3244015828934,1.13244015828934,330.414034445224
738213.71581744961440563202,11.2382376578061,1.0462762332021,330.389416180914
738213.71581754006911069155,11.2874741864274,1.1078218939787,330.463270973846
738213.71581763052381575108,11.2751650542721,1.07089449751274,330.389416180914
738213.71581772097852081060,11.2505467899614,1.03396710104678,330.438652709535
738213.71581781143322587013,11.2382376578061,1.0462762332021,330.438652709535
738213.71581790177151560783,11.2013102613402,0.972421440270191,330.438652709535
738213.71581799222622066736,11.2382376578061,1.00934883673615,330.463270973846
738213.71581808268092572689,11.2997833185827,1.05858536535742,330.475580106001
738213.71581817313563078642,11.2751650542721,1.02165796889147,330.389416180914
738213.71581826359033584595,11.2382376578061,1.02165796889147,330.42634357738
738213.71581835404504090548,11.2259285256508,0.972421440270191,330.389416180914
738213.71581844449974596500,11.2997833185827,1.00934883673615,330.401725313069
738213.71581853483803570271,11.2751650542721,0.997039704580828,330.438652709535
738213.71581862529274076223,11.2997833185827,1.1078218939787,330.463270973846
738213.71581871574744582176,11.2874741864274,1.07089449751274,330.42634357738
738213.71581880620215088129,11.2997833185827,1.05858536535742,330.45096184169
738213.71581889665685594082,11.2751650542721,1.05858536535742,330.45096184169
738213.71581898711156100035,11.2628559221168,1.0462762332021,330.438652709535
738213.71581907756626605988,11.2013102613402,0.972421440270191,330.45096184169
738213.71581916790455579758,11.2628559221168,1.03396710104678,330.414034445224
738213.71581925835926085711,11.2382376578061,0.984730572425509,330.327870520137
738213.71581934881396591663,11.2382376578061,0.972421440270191,330.414034445224
738213.71581943926867097616,11.2259285256508,0.960112308114872,330.42634357738
738213.71581952972337603569,11.2259285256508,1.00934883673615,330.475580106001
738213.71581962017808109522,11.2382376578061,0.972421440270191,330.487889238156
738213.71581971051637083292,11.2751650542721,0.997039704580828,330.438652709535
738213.71581980097107589245,11.2997833185827,1.02165796889147,330.512507502467
738213.71581989142578095198,11.2874741864274,0.997039704580828,330.500198370312
738213.71581998188048601151,11.2382376578061,0.824711854406364,330.45096184169
738213.71582007233519107103,11.2997833185827,0.960112308114872,330.475580106001
738213.71582016278989613056,11.4844203009125,1.41555019786167,330.475580106001
738213.71582025324460119009,11.619820754621,1.72327850174464,330.389416180914
738213.71582034358289092779,11.7798394726402,2.1540981271808,330.204779198584
738213.71582043403759598732,11.4721111687572,1.78482416252124,330.278633991516
738213.71582052449230104685,11.1643828648742,1.03396710104678,330.315561387982
