time_dn,ecg_projection_ll_ra_mV,ecg_projection_la_ra_mV,ecg_projection_vx_rl_mV
738213.69568365032318979502,12.6784061199784,1.74789676605528,333.331298766035
738213.69568374077789485455,12.6907152521338,1.7602058982106,333.392844426812
738213.69568383111618459225,12.6907152521338,1.7602058982106,333.405153558967
738213.69568392157088965178,12.7153335164444,1.71096936958932,333.331298766035
738213.69568401202559471130,12.739951780755,1.64942370881273,333.368226162501
738213.69568410248029977083,12.7030243842891,1.57556891588082,333.380535294656
738213.69568419293500483036,12.6784061199784,1.45247759432763,333.380535294656
738213.69568428338970988989,12.6660969878231,1.46478672648295,333.331298766035
738213.69568437372799962759,12.5922421948912,1.42785933001699,333.380535294656
738213.69568446418270468712,12.506078269804,1.39093193355103,333.368226162501
738213.69568455463740974665,12.5676239305806,1.37862280139571,333.355917030346
738213.69568464509211480618,12.5306965341146,1.37862280139571,333.429771823277
738213.69568473554681986570,12.5430056662699,1.35400453708508,333.442080955433
738213.69568482600152492523,12.5306965341146,1.34169540492976,333.405153558967
738213.69568491645622998476,12.5430056662699,1.36631366924039,333.417462691122
738213.69568500679451972246,12.5430056662699,1.35400453708508,333.405153558967
738213.69568509724922478199,12.506078269804,1.34169540492976,333.392844426812
738213.69568518770392984152,12.4814600054933,1.32938627277444,333.368226162501
738213.69568527815863490105,12.4568417411827,1.44016846217231,333.331298766035
738213.69568536861333996058,12.4814600054933,1.41555019786167,333.34360789819
738213.69568545906804502010,12.4937691376487,1.39093193355103,333.331298766035
738213.69568554940633475780,12.5183874019593,1.40324106570635,333.31898963388
738213.69568563986103981733,12.5430056662699,1.42785933001699,333.392844426812
738213.69568573031574487686,12.5430056662699,1.40324106570635,333.355917030346
738213.69568582077044993639,12.5676239305806,1.45247759432763,333.355917030346
738213.69568591122515499592,12.5430056662699,1.44016846217231,333.269753105258
738213.69568600167986005545,12.5430056662699,1.42785933001699,333.269753105258
738213.69568609201814979315,12.5430056662699,1.44016846217231,333.31898963388
738213.69568618247285485268,12.5306965341146,1.44016846217231,333.294371369569
738213.69568627292755991220,12.5183874019593,1.44016846217231,333.294371369569
738213.69568636338226497173,12.4937691376487,1.42785933001699,333.282062237414
738213.69568645383697003126,12.5183874019593,1.39093193355103,333.368226162501
738213.69568654429167509079,12.5183874019593,1.35400453708508,333.31898963388
738213.69568663474638015032,12.4937691376487,1.32938627277444,333.31898963388
738213.69568672508466988802,12.5430056662699,1.36631366924039,333.355917030346
738213.69568681553937494755,12.4937691376487,1.31707714061912,333.34360789819
738213.69568690599408000708,12.4814600054933,1.29245887630848,333.355917030346
738213.69568699644878506660,12.4568417411827,1.26784061199784,333.34360789819
738213.69568708690349012613,12.4568417411827,1.26784061199784,333.097425255084
738213.69568717735819518566,12.4568417411827,1.26784061199784,333.183589180171
738213.69568726769648492336,12.4814600054933,1.29245887630848,333.245134840948
738213.69568735815118998289,12.469150873338,1.29245887630848,333.269753105258
738213.69568744860589504242,12.4937691376487,1.32938627277444,333.306680501724
738213.69568753906060010195,12.4814600054933,1.31707714061912,333.331298766035
738213.69568762951530516148,12.469150873338,1.32938627277444,333.31898963388
738213.69568771997001022100,12.4445326090274,1.3047680084638,333.331298766035
738213.69568781030829995871,12.4445326090274,1.31707714061912,333.306680501724
738213.69568790076300501823,12.4199143447167,1.3047680084638,333.31898963388
738213.69568799121771007776,12.4076052125614,1.28014974415316,333.282062237414
738213.69568808167241513729,12.4076052125614,1.28014974415316,333.331298766035
738213.69568817212712019682,12.4076052125614,1.26784061199784,333.31898963388
738213.69568826258182525635,12.4076052125614,1.26784061199784,333.269753105258
738213.69568835303653031588,12.4199143447167,1.26784061199784,333.31898963388
738213.69568844337482005358,12.3952960804061,1.26784061199784,333.282062237414
738213.69568853382952511311,12.4076052125614,1.28014974415316,333.31898963388
738213.69568862428423017263,12.3829869482508,1.28014974415316,333.294371369569
738213.69568871473893523216,12.4076052125614,1.32938627277444,333.331298766035
738213.69568880519364029169,12.3952960804061,1.3047680084638,333.306680501724
738213.69568889564834535122,12.4076052125614,1.31707714061912,333.257443973103
738213.69568898598663508892,12.4199143447167,1.32938627277444,333.269753105258
738213.69568907644134014845,12.4199143447167,1.31707714061912,333.245134840948
738213.69568916689604520798,12.4199143447167,1.32938627277444,333.232825708792
738213.69568925735075026751,12.4322234768721,1.32938627277444,333.183589180171
738213.69568934780545532703,12.4445326090274,1.35400453708508,333.183589180171
738213.69568943826016038656,12.4814600054933,1.37862280139571,333.15897091586
738213.69568952859845012426,12.506078269804,1.41555019786167,333.183589180171
738213.69568961905315518379,12.469150873338,1.40324106570635,333.171280048016
738213.69568970950786024332,12.4568417411827,1.40324106570635,333.269753105258
738213.69568979996256530285,12.4322234768721,1.37862280139571,333.183589180171
738213.69568989041727036238,12.4199143447167,1.36631366924039,333.220516576637
738213.69568998087197542191,12.3706778160955,1.31707714061912,333.220516576637
738213.69569007132668048143,12.3706778160955,1.31707714061912,333.195898312326
738213.69569016166497021914,12.3829869482508,1.29245887630848,333.232825708792
738213.69569025211967527866,12.3952960804061,1.3047680084638,333.282062237414
738213.69569034257438033819,12.3583686839401,1.28014974415316,333.282062237414
738213.69569043302908539772,12.3706778160955,1.28014974415316,333.245134840948
738213.69569052348379045725,12.3583686839401,1.28014974415316,333.245134840948
738213.69569061393849551678,12.3583686839401,1.26784061199784,333.171280048016
738213.69569070427678525448,12.3583686839401,1.26784061199784,333.122043519395
738213.69569079473149031401,12.3091321553189,1.14474929044465,333.208207444482
738213.69569088518619537354,12.3583686839401,1.15705842259997,333.257443973103
738213.69569097564090043306,12.4814600054933,1.42785933001699,333.331298766035
738213.69569106609560549259,12.7276426485997,1.96946114485102,333.097425255084
738213.69569115655031055212,12.9122796309295,2.46182643106377,332.94971566922
738213.69569124700501561165,12.5799330627359,2.10486159855953,333.13435265155
738213.69569133734330534935,12.2229682302316,1.28014974415316,333.085116122929
738213.69569142779801040888,12.0752586443678,0.910875779493596,333.060497858618
738213.69569151825271546841,12.198349965921,1.08320362966806,333.171280048016
738213.69569160870742052794,12.3337504196295,1.25553147984252,333.146661783705
738213.69569169916212558746,12.3460595517848,1.25553147984252,333.15897091586
738213.69569178961683064699,12.3337504196295,1.24322234768721,333.15897091586
738213.69569187995512038469,12.3460595517848,1.25553147984252,333.171280048016
738213.69569197040982544422,12.3583686839401,1.26784061199784,333.183589180171
738213.69569206086453050375,12.3460595517848,1.26784061199784,333.146661783705
738213.69569215131923556328,12.3214412874742,1.23091321553189,333.220516576637
738213.69569224177394062281,12.3460595517848,1.24322234768721,333.232825708792
738213.69569233222864568233,12.3583686839401,1.25553147984252,333.171280048016
738213.69569242256693542004,12.3583686839401,1.25553147984252,333.146661783705
738213.69569251302164047956,12.3460595517848,1.28014974415316,333.232825708792
738213.69569260347634553909,12.3829869482508,1.31707714061912,333.220516576637
738213.69569269393105059862,12.3583686839401,1.29245887630848,333.171280048016
738213.69569278438575565815,12.3583686839401,1.29245887630848,333.245134840948
738213.69569287484046071768,12.3706778160955,1.28014974415316,333.269753105258
738213.69569296529516577721,12.3952960804061,1.3047680084638,333.306680501724
738213.69569305563345551491,12.3952960804061,1.3047680084638,333.257443973103
738213.69569314608816057444,12.4199143447167,1.34169540492976,333.282062237414
738213.69569323654286563396,12.4322234768721,1.39093193355103,333.306680501724
738213.69569332699757069349,12.4568417411827,1.42785933001699,333.257443973103
738213.69569341745227575302,12.4814600054933,1.47709585863826,333.282062237414
738213.69569350790698081255,12.4814600054933,1.48940499079358,333.31898963388
738213.69569359824527055025,12.4814600054933,1.5017141229489,333.208207444482
738213.69569368869997560978,12.5183874019593,1.5632597837255,333.282062237414
738213.69569377915468066931,12.506078269804,1.58787804803613,333.306680501724
738213.69569386960938572884,12.4937691376487,1.58787804803613,333.282062237414
738213.69569396006409078836,12.506078269804,1.62480544450209,333.294371369569
738213.69569405051879584789,12.506078269804,1.63711457665741,333.282062237414
738213.69569414085708558559,12.506078269804,1.63711457665741,333.294371369569
738213.69569423131179064512,12.506078269804,1.64942370881273,333.122043519395
738213.69569432176649570465,12.5183874019593,1.62480544450209,333.257443973103
738213.69569441222120076418,12.4937691376487,1.58787804803613,333.245134840948
738213.69569450267590582371,12.4814600054933,1.55095065157018,333.232825708792
738213.69569459313061088324,12.4568417411827,1.48940499079358,333.208207444482
738213.69569468358531594276,12.4199143447167,1.41555019786167,333.208207444482
738213.69569477392360568047,12.4076052125614,1.37862280139571,333.171280048016
738213.69569486437831073999,12.3706778160955,1.31707714061912,333.060497858618
738213.69569495483301579952,12.3583686839401,1.29245887630848,333.060497858618
738213.69569504528772085905,12.3337504196295,1.24322234768721,333.195898312326
738213.69569513574242591858,12.3214412874742,1.26784061199784,333.15897091586
738213.69569522619713097811,12.2845138910082,1.26784061199784,333.109734387239
738213.69569531653542071581,12.2845138910082,1.25553147984252,333.122043519395
738213.69569540699012577534,12.3091321553189,1.24322234768721,333.146661783705
738213.69569549744483083487,12.3337504196295,1.25553147984252,333.220516576637
738213.69569558789953589439,12.3091321553189,1.24322234768721,333.183589180171
738213.69569567835424095392,12.2968230231635,1.24322234768721,333.097425255084
738213.69569576880894601345,12.2845138910082,1.23091321553189,333.146661783705
738213.69569585914723575115,12.2722047588529,1.23091321553189,333.15897091586
738213.69569594960194081068,12.2845138910082,1.21860408337657,333.097425255084
738213.69569604005664587021,12.2845138910082,1.23091321553189,333.13435265155
738213.69569613051135092974,12.2968230231635,1.24322234768721,333.109734387239
738213.69569622096605598927,12.2845138910082,1.23091321553189,333.122043519395
738213.69569631142076104879,12.2968230231635,1.24322234768721,333.085116122929
738213.69569640187546610832,12.3091321553189,1.25553147984252,333.122043519395
738213.69569649221375584602,12.2968230231635,1.24322234768721,333.171280048016
738213.69569658266846090555,12.2845138910082,1.23091321553189,333.183589180171
738213.69569667312316596508,12.235277362387,1.14474929044465,333.195898312326
738213.69569676357787102461,12.2475864945423,1.15705842259997,333.208207444482
738213.69569685403257608414,12.3214412874742,1.20629495122125,333.220516576637
738213.69569694448728114367,12.2722047588529,1.20629495122125,333.220516576637
738213.69569703482557088137,12.2106590980763,1.18167668691061,333.183589180171
738213.69569712528027594090,12.235277362387,1.20629495122125,333.208207444482
738213.69569721573498100042,12.2475864945423,1.23091321553189,333.245134840948
738213.69569730618968605995,12.2598956266976,1.21860408337657,333.195898312326
738213.69569739664439111948,12.2598956266976,1.23091321553189,333.208207444482
738213.69569748709909617901,12.2722047588529,1.21860408337657,333.171280048016
738213.69569757743738591671,12.3091321553189,1.26784061199784,333.183589180171
738213.69569766789209097624,12.3460595517848,1.28014974415316,333.183589180171
738213.69569775834679603577,12.3706778160955,1.3047680084638,333.035879594307
738213.69569784880150109529,12.3460595517848,1.28014974415316,333.109734387239
738213.69569793925620615482,12.3337504196295,1.26784061199784,333.195898312326
738213.69569802971091121435,12.3337504196295,1.25553147984252,333.183589180171
738213.69569812016561627388,12.2968230231635,1.20629495122125,333.195898312326
738213.69569821050390601158,12.3460595517848,1.25553147984252,333.15897091586
738213.69569830095861107111,12.3214412874742,1.26784061199784,333.208207444482
738213.69569839141331613064,12.3583686839401,1.29245887630848,333.269753105258
738213.69569848186802119017,12.3706778160955,1.32938627277444,333.146661783705
738213.69569857232272624969,12.3460595517848,1.3047680084638,333.183589180171
738213.69569866277743130922,12.3337504196295,1.28014974415316,333.208207444482
738213.69569875311572104692,12.3460595517848,1.26784061199784,333.232825708792
738213.69569884357042610645,12.3337504196295,1.25553147984252,333.171280048016
738213.69569893402513116598,12.2845138910082,1.21860408337657,333.195898312326
738213.69569902447983622551,12.2968230231635,1.20629495122125,333.171280048016
738213.69569911493454128504,12.2845138910082,1.18167668691061,333.13435265155
738213.69569920538924634457,12.3091321553189,1.18167668691061,333.195898312326
738213.69569929572753608227,12.2968230231635,1.16936755475529,333.245134840948
738213.69569938618224114180,12.2475864945423,1.15705842259997,333.195898312326
738213.69569947663694620132,12.235277362387,1.14474929044465,333.097425255084
738213.69569956709165126085,12.235277362387,1.13244015828934,333.171280048016
738213.69569965754635632038,12.235277362387,1.1078218939787,333.195898312326
738213.69569974800106137991,12.2475864945423,1.1078218939787,333.109734387239
738213.69569983845576643944,12.2598956266976,1.13244015828934,333.146661783705
738213.69569992879405617714,12.2598956266976,1.14474929044465,333.085116122929
738213.69570001924876123667,12.3091321553189,1.15705842259997,333.048188726463
738213.69570010970346629620,12.3214412874742,1.20629495122125,333.048188726463
738213.69570020015817135572,12.2845138910082,1.18167668691061,333.072806990773
738213.69570029061287641525,12.2722047588529,1.15705842259997,333.109734387239
738213.69570038106758147478,12.2475864945423,1.14474929044465,333.13435265155
738213.69570047140587121248,12.2229682302316,1.1078218939787,333.035879594307
738213.69570056186057627201,12.2106590980763,1.1078218939787,333.122043519395
738213.69570065231528133154,12.1860408337657,1.09551276182338,333.146661783705
738213.69570074276998639107,12.1737317016104,1.09551276182338,333.122043519395
738213.69570083322469145060,12.2106590980763,1.21860408337657,333.122043519395
738213.69570092367939651012,12.161422569455,1.20629495122125,333.195898312326
738213.69570101401768624783,12.1368043051444,1.18167668691061,333.171280048016
738213.69570110447239130735,12.161422569455,1.20629495122125,333.097425255084
738213.69570119492709636688,12.1737317016104,1.21860408337657,333.072806990773
738213.69570128538180142641,12.0383312479019,1.13244015828934,332.94971566922
738213.69570137583650648594,11.9398581906593,0.960112308114872,333.060497858618
738213.69570146629121154547,12.0752586443678,1.16936755475529,333.13435265155
738213.69570155674591660500,12.3337504196295,1.66173284096805,332.998952197841
738213.69570164708420634270,12.6414787235125,2.27718944873399,332.678914761803
738213.69570173753891140223,12.4568417411827,2.28949858088931,332.789696951201
738213.69570182799361646175,12.0752586443678,1.5017141229489,332.814315215512
738213.69570191844832152128,11.8167668691061,0.750857061474451,332.888170008443
738213.69570200890302658081,11.7921486047955,0.590838343455306,332.863551744133
738213.69570209935773164034,12.0137129835912,0.837020986561683,332.962024801375
738213.69570218969602137804,12.0383312479019,0.935494043804234,333.011261329997
738213.69570228015072643757,12.0260221157465,0.984730572425509,332.937406537065
738213.69570237060543149710,11.9890947192806,0.997039704580828,332.94971566922
738213.69570246106013655663,11.9890947192806,1.02165796889147,333.023570462152
738213.69570255151484161615,12.0014038514359,1.02165796889147,332.912788272754
738213.69570264196954667568,11.9890947192806,0.972421440270191,332.962024801375
738213.69570273230783641338,12.0137129835912,0.984730572425509,332.962024801375
738213.69570282276254147291,12.0260221157465,0.972421440270191,332.986643065686
738213.69570291321724653244,12.0260221157465,0.997039704580828,332.986643065686
738213.69570300367195159197,11.9029307941933,0.997039704580828,333.035879594307
738213.69570309412665665150,11.9029307941933,1.03396710104678,332.974333933531
738213.69570318458136171103,11.9644764549699,1.08320362966806,333.011261329997
738213.69570327503606677055,11.9767855871253,1.05858536535742,333.011261329997
738213.69570336537435650826,12.0260221157465,1.1078218939787,333.048188726463
738213.69570345582906156778,12.0137129835912,1.07089449751274,333.035879594307
738213.69570354628376662731,12.1121860408338,1.12013102613402,332.974333933531
738213.69570363673847168684,12.1491134372997,1.14474929044465,333.023570462152
738213.69570372719317674637,12.1860408337657,1.18167668691061,333.048188726463
738213.69570381764788180590,12.2475864945423,1.18167668691061,333.035879594307
738213.69570390798617154360,12.2968230231635,1.19398581906593,333.048188726463
738213.69570399844087660313,12.3583686839401,1.20629495122125,333.023570462152
738213.69570408889558166265,12.3583686839401,1.20629495122125,332.962024801375
738213.69570417935028672218,12.3952960804061,1.3047680084638,332.998952197841
738213.69570426980499178171,12.3583686839401,1.32938627277444,333.011261329997
738213.69570436025969684124,12.3337504196295,1.3047680084638,333.011261329997
738213.69570445059798657894,12.3214412874742,1.34169540492976,332.986643065686
738213.69570454105269163847,12.4076052125614,1.47709585863826,333.072806990773
738213.69570463150739669800,12.3952960804061,1.51402325510422,333.097425255084
738213.69570472196210175753,12.3583686839401,1.5017141229489,333.048188726463
738213.69570481241680681705,12.3829869482508,1.46478672648295,332.900479140599
738213.69570490287151187658,12.4322234768721,1.46478672648295,333.023570462152
738213.69570499332621693611,12.3829869482508,1.42785933001699,332.998952197841
738213.69570508366450667381,12.3337504196295,1.34169540492976,332.937406537065
738213.69570517411921173334,12.2598956266976,1.26784061199784,333.035879594307
738213.69570526457391679287,12.1737317016104,1.18167668691061,333.011261329997
738213.69570535502862185240,12.1121860408338,1.1078218939787,333.011261329997
738213.69570544548332691193,11.9890947192806,1.03396710104678,332.998952197841
738213.69570553593803197145,12.0137129835912,1.0462762332021,332.962024801375
738213.69570562627632170916,11.9767855871253,1.0462762332021,332.925097404909
738213.69570571673102676868,11.9644764549699,1.00934883673615,332.888170008443
738213.69570580718573182821,11.9767855871253,0.972421440270191,332.900479140599
738213.69570589764043688774,11.9644764549699,0.935494043804234,332.974333933531
738213.69570598809514194727,11.9398581906593,0.923184911648915,332.851242611978
738213.69570607854984700680,12.0383312479019,0.984730572425509,332.94971566922
738213.69570616888813674450,11.9767855871253,0.886257515182958,332.962024801375
738213.69570625934284180403,12.0137129835912,0.923184911648915,332.94971566922
738213.69570634979754686356,11.9890947192806,0.910875779493596,332.851242611978
738213.69570644025225192308,11.9644764549699,0.910875779493596,332.937406537065
738213.69570653070695698261,11.927549058504,0.898566647338277,332.986643065686
738213.69570662116166204214,11.9029307941933,0.910875779493596,332.875860876288
738213.69570671161636710167,11.9029307941933,0.910875779493596,332.912788272754
738213.69570680195465683937,11.9029307941933,0.947803175959553,332.912788272754
738213.69570689240936189890,11.890621662038,0.972421440270191,332.925097404909
738213.69570698286406695843,11.927549058504,1.02165796889147,332.912788272754
738213.69570707331877201796,11.9521673228146,1.05858536535742,332.937406537065
738213.69570716377347707748,11.9644764549699,1.0462762332021,332.900479140599
738213.69570725422818213701,11.9890947192806,1.07089449751274,332.962024801375
738213.69570734456647187471,11.9644764549699,1.08320362966806,332.912788272754
738213.69570743502117693424,11.9398581906593,1.03396710104678,332.900479140599
738213.69570752547588199377,11.927549058504,1.02165796889147,332.962024801375
738213.69570761593058705330,11.9644764549699,1.05858536535742,332.94971566922
738213.69570770638529211283,11.9890947192806,1.05858536535742,332.962024801375
738213.69570779683999717236,11.9644764549699,0.997039704580828,332.986643065686
738213.69570788717828691006,11.9521673228146,0.947803175959553,332.998952197841
738213.69570797763299196959,12.0014038514359,0.960112308114872,332.986643065686
738213.69570806808769702911,12.0137129835912,0.972421440270191,332.974333933531
738213.69570815854240208864,11.9890947192806,0.960112308114872,332.925097404909
738213.69570824899710714817,11.9644764549699,0.984730572425509,332.925097404909
738213.69570833945181220770,11.9398581906593,0.935494043804234,332.74046042258
738213.69570842990651726723,11.9644764549699,0.960112308114872,332.863551744133
738213.69570852024480700493,11.9398581906593,0.947803175959553,332.912788272754
738213.69570861069951206446,11.9152399263487,0.960112308114872,332.912788272754
738213.69570870115421712399,11.890621662038,0.947803175959553,332.937406537065
738213.69570879160892218351,11.9152399263487,0.960112308114872,332.937406537065
738213.69570888206362724304,11.927549058504,0.972421440270191,332.937406537065
738213.69570897251833230257,11.9152399263487,0.972421440270191,332.937406537065
738213.69570906285662204027,11.927549058504,0.972421440270191,332.925097404909
738213.69570915331132709980,11.9398581906593,0.972421440270191,332.937406537065
738213.69570924376603215933,11.9152399263487,0.997039704580828,332.912788272754
738213.69570933422073721886,11.9152399263487,0.972421440270191,332.851242611978
738213.69570942467544227839,11.9152399263487,0.972421440270191,332.900479140599
738213.69570951513014733791,11.927549058504,0.984730572425509,332.900479140599
738213.69570960546843707561,11.9767855871253,1.00934883673615,332.851242611978
738213.69570969592314213514,11.9644764549699,0.984730572425509,332.875860876288
738213.69570978637784719467,12.0014038514359,0.997039704580828,332.826624347667
738213.69570987683255225420,12.0014038514359,0.997039704580828,332.838933479822
738213.69570996728725731373,11.9890947192806,1.00934883673615,332.74046042258
738213.69571005774196237326,12.0137129835912,1.02165796889147,332.802006083356
738213.69571014819666743279,12.0014038514359,1.03396710104678,332.789696951201
738213.69571023853495717049,11.9890947192806,1.05858536535742,332.76507868689
738213.69571032898966223001,12.0260221157465,1.1078218939787,332.814315215512
738213.69571041944436728954,11.9890947192806,1.08320362966806,332.912788272754
738213.69571050989907234907,11.9521673228146,1.0462762332021,332.888170008443
738213.69571060035377740860,11.927549058504,1.00934883673615,332.826624347667
738213.69571069080848246813,11.9029307941933,0.984730572425509,332.838933479822
738213.69571078114677220583,11.890621662038,0.972421440270191,332.888170008443
738213.69571087160147726536,11.890621662038,0.960112308114872,332.826624347667
738213.69571096205618232489,11.9152399263487,0.972421440270191,332.937406537065
738213.69571105251088738441,11.927549058504,0.997039704580828,332.912788272754
738213.69571114296559244394,11.927549058504,0.984730572425509,332.838933479822
738213.69571123342029750347,11.927549058504,0.984730572425509,332.863551744133
738213.69571132375858724117,11.9398581906593,0.984730572425509,332.789696951201
738213.69571141421329230070,11.9029307941933,0.849330118717002,332.715842158269
738213.69571150466799736023,11.927549058504,0.824711854406364,332.851242611978
738213.69571159512270241976,12.0260221157465,1.13244015828934,332.875860876288
738213.69571168557740747929,12.1368043051444,1.39093193355103,332.838933479822
738213.69571177603211253881,12.469150873338,2.00638854131698,332.55582344025
738213.69571186648681759834,12.3460595517848,2.09255246640421,332.55582344025
738213.69571195682510733604,12.0014038514359,1.36631366924039,332.666605629648
738213.69571204727981239557,11.7182938118636,0.689311400697857,332.715842158269
738213.69571213773451745510,11.6690572832423,0.615456607765943,332.752769554735
738213.69571222818922251463,11.8413851334168,0.861639250872321,332.789696951201
738213.69571231864392757416,11.9398581906593,0.960112308114872,332.76507868689
738213.69571240909863263369,11.927549058504,0.947803175959553,332.826624347667
738213.69571249943692237139,11.9398581906593,0.960112308114872,332.789696951201
738213.69571258989162743092,11.9398581906593,0.947803175959553,332.838933479822
738213.69571268034633249044,11.9521673228146,0.960112308114872,332.851242611978
738213.69571277080103754997,11.9398581906593,0.960112308114872,332.76507868689
738213.69571286125574260950,11.9521673228146,0.972421440270191,332.777387819046
738213.69571295171044766903,11.9521673228146,0.960112308114872,332.777387819046
738213.69571304204873740673,11.9767855871253,0.972421440270191,332.814315215512
738213.69571313250344246626,11.9521673228146,0.972421440270191,332.826624347667
738213.69571322295814752579,11.9398581906593,0.997039704580828,332.814315215512
738213.69571331341285258532,11.9398581906593,0.997039704580828,332.777387819046
738213.69571340386755764484,11.9398581906593,0.997039704580828,332.814315215512
738213.69571349432226270437,11.9521673228146,1.00934883673615,332.838933479822
738213.69571358477696776390,11.9398581906593,1.00934883673615,332.851242611978
738213.69571367511525750160,11.9767855871253,1.02165796889147,332.838933479822
738213.69571376556996256113,11.9644764549699,1.03396710104678,332.851242611978
738213.69571385602466762066,11.9890947192806,1.0462762332021,332.888170008443
738213.69571394647937268019,12.0137129835912,1.08320362966806,332.76507868689
738213.69571403693407773972,12.0383312479019,1.13244015828934,332.838933479822
738213.69571412738878279924,12.0506403800572,1.15705842259997,332.888170008443
738213.69571421772707253695,12.0752586443678,1.18167668691061,332.888170008443
738213.69571430818177759647,12.0629495122125,1.20629495122125,332.826624347667
738213.69571439863648265600,12.0998769086784,1.25553147984252,332.863551744133
738213.69571448909118771553,12.0998769086784,1.28014974415316,332.826624347667
738213.69571457954589277506,12.1121860408338,1.3047680084638,332.802006083356
738213.69571467000059783459,12.0998769086784,1.31707714061912,332.826624347667
738213.69571476033888757229,12.1121860408338,1.34169540492976,332.826624347667
738213.69571485079359263182,12.1121860408338,1.31707714061912,332.888170008443
738213.69571494124829769135,12.1121860408338,1.29245887630848,332.888170008443
738213.69571503170300275087,12.0875677765231,1.23091321553189,332.888170008443
738213.69571512215770781040,12.0629495122125,1.23091321553189,332.851242611978
738213.69571521261241286993,12.0506403800572,1.15705842259997,332.937406537065
738213.69571530306711792946,12.0014038514359,1.08320362966806,332.826624347667
738213.69571539340540766716,11.9890947192806,1.02165796889147,332.76507868689
738213.69571548386011272669,11.9398581906593,0.972421440270191,332.814315215512
738213.69571557431481778622,11.9029307941933,0.923184911648915,332.802006083356
738213.69571566476952284575,11.8783125298827,0.910875779493596,332.826624347667
738213.69571575522422790527,11.8783125298827,0.923184911648915,332.851242611978
738213.69571584567893296480,11.9152399263487,0.960112308114872,332.838933479822
738213.69571593601722270250,11.8660033977274,0.935494043804234,332.74046042258
738213.69571602647192776203,11.9152399263487,0.984730572425509,332.76507868689
738213.69571611692663282156,11.9521673228146,1.00934883673615,332.789696951201
738213.69571620738133788109,11.9398581906593,0.997039704580828,332.728151290424
738213.69571629783604294062,11.927549058504,0.997039704580828,332.728151290424
738213.69571638829074800014,11.8783125298827,0.947803175959553,332.715842158269
738213.69571647862903773785,11.8536942655721,0.886257515182958,332.641987365337
738213.69571656908374279737,11.8660033977274,0.898566647338277,332.678914761803
738213.69571665953844785690,11.890621662038,0.923184911648915,332.641987365337
738213.69571674999315291643,11.927549058504,0.923184911648915,332.728151290424
738213.69571684044785797596,11.9521673228146,0.947803175959553,332.691223893958
738213.69571693090256303549,11.9398581906593,0.910875779493596,332.728151290424
738213.69571702135726809502,11.927549058504,0.910875779493596,332.789696951201
738213.69571711169555783272,11.9644764549699,0.935494043804234,332.851242611978
738213.69571720215026289225,11.9398581906593,0.898566647338277,332.838933479822
738213.69571729260496795177,11.9644764549699,0.910875779493596,332.900479140599
738213.69571738305967301130,11.9767855871253,0.947803175959553,332.900479140599
738213.69571747351437807083,11.9644764549699,0.935494043804234,332.851242611978
738213.69571756396908313036,11.927549058504,0.923184911648915,332.826624347667
738213.69571765430737286806,11.9398581906593,0.935494043804234,332.802006083356
738213.69571774476207792759,11.9152399263487,0.910875779493596,332.789696951201
738213.69571783521678298712,11.9029307941933,0.910875779493596,332.76507868689
738213.69571792567148804665,11.890621662038,0.910875779493596,332.802006083356
738213.69571801612619310617,11.8660033977274,0.898566647338277,332.752769554735
738213.69571810658089816570,11.8783125298827,0.898566647338277,332.678914761803
738213.69571819703560322523,11.8660033977274,0.886257515182958,332.715842158269
738213.69571828737389296293,11.8783125298827,0.898566647338277,332.789696951201
738213.69571837782859802246,11.8660033977274,0.886257515182958,332.691223893958
738213.69571846828330308199,11.8783125298827,0.898566647338277,332.789696951201
738213.69571855873800814152,11.8413851334168,0.898566647338277,332.826624347667
738213.69571864919271320105,11.8413851334168,0.898566647338277,332.74046042258
738213.69571873964741826057,11.8413851334168,0.910875779493596,332.715842158269
738213.69571882998570799828,11.8290760012614,0.898566647338277,332.654296497492
738213.69571892044041305780,11.8167668691061,0.898566647338277,332.605059968871
738213.69571901089511811733,11.8167668691061,0.898566647338277,332.728151290424
738213.69571910134982317686,11.8167668691061,0.935494043804234,332.678914761803
738213.69571919180452823639,11.8413851334168,0.935494043804234,332.752769554735
738213.69571928225923329592,11.8413851334168,0.910875779493596,332.752769554735
738213.69571937259752303362,11.8167668691061,0.910875779493596,332.752769554735
738213.69571946305222809315,11.8290760012614,0.910875779493596,332.74046042258
738213.69571955350693315268,11.8290760012614,0.898566647338277,332.74046042258
738213.69571964396163821220,11.8413851334168,0.910875779493596,332.76507868689
738213.69571973441634327173,11.8413851334168,0.910875779493596,332.752769554735
738213.69571982487104833126,11.8660033977274,0.910875779493596,332.76507868689
738213.69571991532575339079,11.8660033977274,0.935494043804234,332.728151290424
738213.69572000566404312849,11.9029307941933,0.972421440270191,332.752769554735
738213.69572009611874818802,11.9029307941933,0.984730572425509,332.789696951201
738213.69572018657345324755,11.8783125298827,0.972421440270191,332.76507868689
738213.69572027702815830708,11.8536942655721,0.972421440270191,332.752769554735
738213.69572036748286336660,11.8536942655721,0.947803175959553,332.777387819046
738213.69572045793756842613,11.8290760012614,0.935494043804234,332.715842158269
738213.69572054827585816383,11.8044577369508,0.910875779493596,332.752769554735
738213.69572063873056322336,11.8044577369508,0.910875779493596,332.76507868689
738213.69572072918526828289,11.8044577369508,0.898566647338277,332.777387819046
738213.69572081963997334242,11.8044577369508,0.910875779493596,332.76507868689
738213.69572091009467840195,11.7921486047955,0.886257515182958,332.691223893958
738213.69572100054938346148,11.8167668691061,0.910875779493596,332.752769554735
738213.69572109088767319918,11.8044577369508,0.984730572425509,332.728151290424
738213.69572118134237825871,11.8167668691061,0.997039704580828,332.678914761803
738213.69572127179708331823,11.7675303404848,0.750857061474451,332.654296497492
738213.69572136225178837776,11.8044577369508,0.775475325785089,332.74046042258
738213.69572145270649343729,11.9152399263487,1.1078218939787,332.74046042258
738213.69572154316119849682,12.161422569455,1.67404197312337,332.592750836716
738213.69572163361590355635,12.3583686839401,2.19102552364676,332.408113854386
738213.69572172395419329405,12.0137129835912,1.87098808760847,332.494277779473
738213.69572181440889835358,11.6075116224657,1.02165796889147,332.506586911629
738213.69572190486360341311,11.4721111687572,0.701620532853175,332.506586911629
738213.69572199531830847263,11.6075116224657,0.898566647338277,332.58044170456
738213.69572208577301353216,11.7675303404848,1.0462762332021,332.55582344025
738213.69572217622771859169,11.7552212083295,1.0462762332021,332.568132572405
738213.69572226656600832939,11.7429120761742,1.02165796889147,332.592750836716
738213.69572235702071338892,11.7552212083295,1.03396710104678,332.55582344025
738213.69572244747541844845,11.7675303404848,0.984730572425509,332.506586911629
738213.69572253793012350798,11.7921486047955,0.935494043804234,332.605059968871
738213.69572262838482856750,11.7921486047955,0.947803175959553,332.654296497492
738213.69572271883953362703,11.8044577369508,0.923184911648915,332.703533026114
738213.69572280917782336473,11.8167668691061,0.886257515182958,332.715842158269
738213.69572289963252842426,11.8290760012614,0.87394838302764,332.666605629648
738213.69572299008723348379,11.8290760012614,0.861639250872321,332.691223893958
738213.69572308054193854332,11.8167668691061,0.861639250872321,332.715842158269
738213.69572317099664360285,11.8044577369508,0.87394838302764,332.666605629648
738213.69572326145134866238,11.8044577369508,0.861639250872321,332.666605629648
738213.69572335190605372190,11.7921486047955,0.886257515182958,332.617369101026
738213.69572344224434345961,11.8044577369508,0.910875779493596,332.617369101026
738213.69572353269904851913,11.8413851334168,0.935494043804234,332.605059968871
738213.69572362315375357866,11.8413851334168,0.947803175959553,332.55582344025
738213.69572371360845863819,11.8783125298827,0.972421440270191,332.605059968871
738213.69572380406316369772,11.890621662038,0.984730572425509,332.629678233182
738213.69572389451786875725,11.9029307941933,1.00934883673615,332.641987365337
738213.69572398485615849495,11.927549058504,1.02165796889147,332.678914761803
738213.69572407531086355448,11.927549058504,1.05858536535742,332.715842158269
738213.69572416576556861401,11.9398581906593,1.07089449751274,332.703533026114
738213.69572425622027367353,11.9644764549699,1.1078218939787,332.703533026114
738213.69572434667497873306,11.9767855871253,1.12013102613402,332.728151290424
738213.69572443712968379259,11.9767855871253,1.13244015828934,332.76507868689
738213.69572452746797353029,11.9767855871253,1.14474929044465,332.728151290424
738213.69572461792267858982,11.9890947192806,1.15705842259997,332.752769554735
738213.69572470837738364935,11.9767855871253,1.18167668691061,332.752769554735
738213.69572479883208870888,12.0014038514359,1.20629495122125,332.76507868689
738213.69572488928679376841,11.9767855871253,1.18167668691061,332.74046042258
738213.69572497974149882793,11.9521673228146,1.15705842259997,332.678914761803
738213.69572507019620388746,11.927549058504,1.09551276182338,332.691223893958
738213.69572516053449362516,11.890621662038,1.05858536535742,332.654296497492
738213.69572525098919868469,11.8660033977274,1.02165796889147,332.629678233182
738213.69572534144390374422,11.8413851334168,0.960112308114872,332.703533026114
738213.69572543189860880375,11.8167668691061,0.935494043804234,332.678914761803
738213.69572552235331386328,11.7921486047955,0.898566647338277,332.55582344025
738213.69572561280801892281,11.8044577369508,0.886257515182958,332.605059968871
738213.69572570314630866051,11.7798394726402,0.886257515182958,332.678914761803
738213.69572579360101372004,11.7921486047955,0.87394838302764,332.666605629648
738213.69572588405571877956,11.7798394726402,0.861639250872321,332.703533026114
738213.69572597451042383909,11.7921486047955,0.861639250872321,332.629678233182
738213.69572606496512889862,11.7921486047955,0.849330118717002,332.629678233182
738213.69572615541983395815,11.7921486047955,0.861639250872321,332.691223893958
738213.69572624575812369585,11.7798394726402,0.87394838302764,332.666605629648
738213.69572633621282875538,11.7675303404848,0.87394838302764,332.617369101026
738213.69572642666753381491,11.7798394726402,0.886257515182958,332.666605629648
738213.69572651712223887444,11.7675303404848,0.861639250872321,332.691223893958
738213.69572660757694393396,11.7675303404848,0.886257515182958,332.666605629648
738213.69572669803164899349,11.7798394726402,0.87394838302764,332.641987365337
738213.69572678848635405302,11.7675303404848,0.886257515182958,332.629678233182
738213.69572687882464379072,11.7675303404848,0.886257515182958,332.543514308095
738213.69572696927934885025,11.7798394726402,0.898566647338277,332.543514308095
738213.69572705973405390978,11.7675303404848,0.886257515182958,332.55582344025
738213.69572715018875896931,11.7675303404848,0.898566647338277,332.469659515163
738213.69572724064346402884,11.7675303404848,0.898566647338277,332.494277779473
738213.69572733109816908836,11.7798394726402,0.886257515182958,332.531205175939
738213.69572742143645882607,11.7798394726402,0.886257515182958,332.605059968871
738213.69572751189116388559,11.7675303404848,0.87394838302764,332.592750836716
738213.69572760234586894512,11.7675303404848,0.87394838302764,332.617369101026
738213.69572769280057400465,11.7675303404848,0.861639250872321,332.592750836716
738213.69572778325527906418,11.7552212083295,0.849330118717002,332.666605629648
738213.69572787370998412371,11.7429120761742,0.861639250872321,332.55582344025
738213.69572796404827386141,11.7306029440189,0.849330118717002,332.58044170456
738213.69572805450297892094,11.7429120761742,0.861639250872321,332.592750836716
738213.69572814495768398046,11.7429120761742,0.849330118717002,332.629678233182
738213.69572823541238903999,11.7182938118636,0.837020986561683,332.629678233182
738213.69572832586709409952,11.7306029440189,0.837020986561683,332.605059968871
738213.69572841632179915905,11.7182938118636,0.849330118717002,332.617369101026
738213.69572850677650421858,11.7429120761742,0.861639250872321,332.617369101026
738213.69572859711479395628,11.7182938118636,0.87394838302764,332.605059968871
738213.69572868756949901581,11.7306029440189,0.87394838302764,332.617369101026
738213.69572877802420407534,11.7429120761742,0.898566647338277,332.592750836716
738213.69572886847890913486,11.7552212083295,0.898566647338277,332.58044170456
738213.69572895893361419439,11.7306029440189,0.87394838302764,332.592750836716
738213.69572904938831925392,11.7552212083295,0.898566647338277,332.58044170456
738213.69572913972660899162,11.7552212083295,0.898566647338277,332.568132572405
738213.69572923018131405115,11.7675303404848,0.910875779493596,332.58044170456
738213.69572932063601911068,11.8044577369508,0.935494043804234,332.494277779473
738213.69572941109072417021,11.8167668691061,0.960112308114872,332.506586911629
738213.69572950154542922974,11.8044577369508,0.972421440270191,332.469659515163
738213.69572959200013428926,11.7798394726402,0.960112308114872,332.592750836716
738213.69572968233842402697,11.7552212083295,0.935494043804234,332.605059968871
738213.69572977279312908649,11.7182938118636,0.898566647338277,332.629678233182
738213.69572986324783414602,11.7059846797082,0.886257515182958,332.654296497492
738213.69572995370253920555,11.6690572832423,0.87394838302764,332.58044170456
738213.69573004415724426508,11.6936755475529,0.886257515182958,332.654296497492
738213.69573013461194932461,11.6813664153976,0.87394838302764,332.641987365337
738213.69573022506665438414,11.6936755475529,0.87394838302764,332.592750836716
738213.69573031540494412184,11.6813664153976,0.87394838302764,332.592750836716
738213.69573040585964918137,11.6813664153976,0.87394838302764,332.605059968871
738213.69573049631435424089,11.6690572832423,0.849330118717002,332.58044170456
738213.69573058676905930042,11.6444390189316,0.726238797163813,332.58044170456
738213.69573067722376435995,11.6936755475529,0.738547929319132,332.654296497492
738213.69573076767846941948,11.8413851334168,1.09551276182338,332.715842158269
738213.69573085801675915718,11.9521673228146,1.36631366924039,332.592750836716
738213.69573094847146421671,12.2598956266976,1.93253374838506,332.358877325765
738213.69573103892616927624,12.0383312479019,1.88329721976379,332.55582344025
738213.69573112938087433577,11.656748151087,1.08320362966806,332.494277779473
738213.69573121983557939529,11.4105655079806,0.529292682678711,332.543514308095
738213.69573131029028445482,11.4474929044465,0.566220079144668,332.568132572405
738213.69573140062857419252,11.6690572832423,0.824711854406364,332.617369101026
738213.69573149108327925205,11.6936755475529,0.87394838302764,332.592750836716
738213.69573158153798431158,11.7182938118636,0.886257515182958,332.654296497492
738213.69573167199268937111,11.7059846797082,0.861639250872321,332.58044170456
738213.69573176244739443064,11.7059846797082,0.87394838302764,332.58044170456
738213.69573185290209949017,11.6936755475529,0.861639250872321,332.543514308095
738213.69573194335680454969,11.7059846797082,0.886257515182958,332.531205175939
738213.69573203369509428740,11.7306029440189,0.87394838302764,332.543514308095
738213.69573212414979934692,11.7306029440189,0.886257515182958,332.543514308095
738213.69573221460450440645,11.7182938118636,0.886257515182958,332.506586911629
738213.69573230505920946598,11.7429120761742,0.910875779493596,332.55582344025
738213.69573239551391452551,11.7429120761742,0.935494043804234,332.518896043784
738213.69573248596861958504,11.7429120761742,0.947803175959553,332.518896043784
738213.69573257630690932274,11.7552212083295,0.960112308114872,332.518896043784
738213.69573266676161438227,11.7306029440189,0.935494043804234,332.543514308095
738213.69573275721631944180,11.7306029440189,0.960112308114872,332.518896043784
738213.69573284767102450132,11.7306029440189,0.972421440270191,332.518896043784
738213.69573293812572956085,11.7552212083295,0.997039704580828,332.469659515163
738213.69573302858043462038,11.7798394726402,1.00934883673615,332.445041250852
738213.69573311891872435808,11.8044577369508,1.0462762332021,332.543514308095
738213.69573320937342941761,11.8167668691061,1.07089449751274,332.518896043784
738213.69573329982813447714,11.8536942655721,1.1078218939787,332.568132572405
738213.69573339028283953667,11.8660033977274,1.15705842259997,332.58044170456
738213.69573348073754459620,11.8660033977274,1.18167668691061,332.617369101026
738213.69573357119224965572,11.890621662038,1.21860408337657,332.641987365337
738213.69573366164695471525,11.890621662038,1.21860408337657,332.605059968871
738213.69573375198524445295,11.8783125298827,1.23091321553189,332.605059968871
738213.69573384243994951248,11.8660033977274,1.24322234768721,332.654296497492
738213.69573393289465457201,11.8783125298827,1.24322234768721,332.629678233182
738213.69573402334935963154,11.890621662038,1.23091321553189,332.641987365337
738213.69573411380406469107,11.890621662038,1.21860408337657,332.531205175939
738213.69573420425876975060,11.890621662038,1.18167668691061,332.543514308095
738213.69573429459705948830,11.8783125298827,1.12013102613402,332.518896043784
738213.69573438505176454782,11.8783125298827,1.05858536535742,332.568132572405
738213.69573447550646960735,11.8783125298827,1.00934883673615,332.531205175939
738213.69573456596117466688,11.8044577369508,0.947803175959553,332.518896043784
738213.69573465641587972641,11.7429120761742,0.898566647338277,332.531205175939
738213.69573474687058478594,11.7059846797082,0.886257515182958,332.531205175939
738213.69573483720887452364,11.6936755475529,0.886257515182958,332.531205175939
738213.69573492766357958317,11.6813664153976,0.886257515182958,332.494277779473
738213.69573501811828464270,11.6813664153976,0.849330118717002,332.518896043784
738213.69573510857298970222,11.6690572832423,0.849330118717002,332.506586911629
738213.69573519902769476175,11.6813664153976,0.837020986561683,332.445041250852
738213.69573528948239982128,11.6813664153976,0.849330118717002,332.506586911629
738213.69573537993710488081,11.6936755475529,0.87394838302764,332.481968647318
738213.69573547027539461851,11.7059846797082,0.923184911648915,332.469659515163
738213.69573556073009967804,11.7182938118636,0.910875779493596,332.469659515163
738213.69573565118480473757,11.7059846797082,0.898566647338277,332.531205175939
738213.69573574163950979710,11.7059846797082,0.87394838302764,332.469659515163
738213.69573583209421485662,11.7429120761742,0.886257515182958,332.481968647318
738213.69573592254891991615,11.7182938118636,0.861639250872321,332.457350383007
738213.69573601288720965385,11.6690572832423,0.849330118717002,332.420422986541
738213.69573610334191471338,11.6813664153976,0.861639250872321,332.383495590075
738213.69573619379661977291,11.7059846797082,0.87394838302764,332.408113854386
738213.69573628425132483244,11.7059846797082,0.87394838302764,332.445041250852
738213.69573637470602989197,11.7059846797082,0.886257515182958,332.432732118697
738213.69573646516073495150,11.6936755475529,0.898566647338277,332.383495590075
738213.69573655549902468920,11.6690572832423,0.898566647338277,332.297331664988
738213.69573664595372974873,11.6936755475529,0.898566647338277,332.420422986541
738213.69573673640843480825,11.6936755475529,0.87394838302764,332.457350383007
738213.69573682686313986778,11.7306029440189,0.837020986561683,332.420422986541
738213.69573691731784492731,11.7306029440189,0.812402722251045,332.395804722231
738213.69573700777254998684,11.7306029440189,0.812402722251045,332.37118645792
738213.69573709822725504637,11.6813664153976,0.787784457940408,332.383495590075
738213.69573718856554478407,11.656748151087,0.76316619362977,332.420422986541
738213.69573727902024984360,11.6813664153976,0.738547929319132,332.408113854386
738213.69573736947495490313,11.6813664153976,0.738547929319132,332.445041250852
738213.69573745992965996265,11.656748151087,0.738547929319132,332.469659515163
738213.69573755038436502218,11.6444390189316,0.76316619362977,332.506586911629
738213.69573764083907008171,11.6444390189316,0.750857061474451,332.432732118697
738213.69573773117735981941,11.6690572832423,0.787784457940408,332.420422986541
738213.69573782163206487894,11.6690572832423,0.800093590095726,332.469659515163
738213.69573791208676993847,11.6321298867763,0.800093590095726,332.445041250852
738213.69573800254147499800,11.6690572832423,0.824711854406364,332.432732118697
738213.69573809299618005753,11.656748151087,0.824711854406364,332.445041250852
738213.69573818345088511705,11.6690572832423,0.824711854406364,332.420422986541
738213.69573827378917485476,11.6813664153976,0.849330118717002,332.481968647318
738213.69573836424387991428,11.6690572832423,0.861639250872321,332.494277779473
738213.69573845469858497381,11.6813664153976,0.898566647338277,332.408113854386
738213.69573854515329003334,11.7182938118636,0.947803175959553,332.395804722231
738213.69573863560799509287,11.7059846797082,0.935494043804234,332.481968647318
738213.69573872606270015240,11.6690572832423,0.960112308114872,332.518896043784
738213.69573881651740521193,11.6444390189316,0.935494043804234,332.531205175939
738213.69573890685569494963,11.656748151087,0.923184911648915,332.58044170456
738213.69573899731040000916,11.6321298867763,0.861639250872321,332.543514308095
738213.69573908776510506868,11.619820754621,0.849330118717002,332.494277779473
738213.69573917821981012821,11.619820754621,0.849330118717002,332.457350383007
738213.69573926867451518774,11.6321298867763,0.837020986561683,332.457350383007
738213.69573935912922024727,11.619820754621,0.824711854406364,332.469659515163
738213.69573944946750998497,11.6075116224657,0.837020986561683,332.37118645792
738213.69573953992221504450,11.6075116224657,0.837020986561683,332.432732118697
738213.69573963037692010403,11.6075116224657,0.812402722251045,332.494277779473
738213.69573972083162516356,11.6075116224657,0.775475325785089,332.457350383007
738213.69573981128633022308,11.5705842259997,0.640074872076581,332.37118645792
738213.69573990174103528261,11.5952024903104,0.713929665008494,332.469659515163
738213.69573999207932502031,11.7429120761742,1.07089449751274,332.358877325765
738213.69574008253403007984,12.0629495122125,1.66173284096805,332.051149021882
738213.69574017298873513937,12.0260221157465,1.88329721976379,332.137312946969
738213.69574026344344019890,11.6936755475529,1.29245887630848,332.174240343435
738213.69574035389814525843,11.38594724367,0.553910946989349,332.248095136367
738213.69574044435285031796,11.3367107150487,0.418510493280842,332.235786004212
738213.69574053480755537748,11.5090385652231,0.6523840042319,332.334259061454
738213.69574062514584511518,11.619820754621,0.800093590095726,332.358877325765
738213.69574071560055017471,11.5952024903104,0.787784457940408,332.383495590075
738213.69574080605525523424,11.619820754621,0.787784457940408,332.383495590075
738213.69574089650996029377,11.619820754621,0.787784457940408,332.346568193609
738213.69574098696466535330,11.6075116224657,0.76316619362977,332.358877325765
738213.69574107741937041283,11.619820754621,0.750857061474451,332.383495590075
738213.69574116775766015053,11.6321298867763,0.750857061474451,332.395804722231
738213.69574125821236521006,11.6321298867763,0.76316619362977,332.383495590075
738213.69574134866707026958,11.619820754621,0.750857061474451,332.445041250852
738213.69574143912177532911,11.6321298867763,0.775475325785089,332.358877325765
738213.69574152957648038864,11.6321298867763,0.800093590095726,332.408113854386
738213.69574162003118544817,11.6444390189316,0.824711854406364,332.432732118697
738213.69574171036947518587,11.6444390189316,0.837020986561683,332.481968647318
738213.69574180082418024540,11.6444390189316,0.837020986561683,332.445041250852
738213.69574189127888530493,11.656748151087,0.837020986561683,332.543514308095
738213.69574198173359036446,11.6690572832423,0.837020986561683,332.55582344025
738213.69574207218829542398,11.6813664153976,0.849330118717002,332.592750836716
738213.69574216264300048351,11.6936755475529,0.886257515182958,332.518896043784
738213.69574225309770554304,11.7182938118636,0.923184911648915,332.531205175939
738213.69574234343599528074,11.7306029440189,0.972421440270191,332.506586911629
738213.69574243389070034027,11.7429120761742,1.02165796889147,332.494277779473
738213.69574252434540539980,11.7675303404848,1.05858536535742,332.506586911629
738213.69574261480011045933,11.7921486047955,1.08320362966806,332.481968647318
738213.69574270525481551886,11.8044577369508,1.13244015828934,332.395804722231
738213.69574279570952057838,11.8044577369508,1.15705842259997,332.481968647318
738213.69574288604781031609,11.7798394726402,1.16936755475529,332.494277779473
738213.69574297650251537561,11.7921486047955,1.19398581906593,332.518896043784
738213.69574306695722043514,11.7798394726402,1.19398581906593,332.408113854386
738213.69574315741192549467,11.8167668691061,1.19398581906593,332.481968647318
738213.69574324786663055420,11.8044577369508,1.18167668691061,332.506586911629
738213.69574333832133561373,11.7921486047955,1.15705842259997,332.494277779473
738213.69574342877604067326,11.7921486047955,1.1078218939787,332.420422986541
738213.69574351911433041096,11.7552212083295,1.0462762332021,332.395804722231
738213.69574360956903547049,11.7182938118636,0.972421440270191,332.309640797143
738213.69574370002374053001,11.6813664153976,0.923184911648915,332.37118645792
738213.69574379047844558954,11.656748151087,0.886257515182958,332.420422986541
738213.69574388093315064907,11.656748151087,0.849330118717002,332.432732118697
738213.69574397138785570860,11.619820754621,0.849330118717002,332.358877325765
738213.69574406172614544630,11.6075116224657,0.837020986561683,332.408113854386
738213.69574415218085050583,11.5952024903104,0.824711854406364,332.432732118697
738213.69574424263555556536,11.6075116224657,0.824711854406364,332.383495590075
738213.69574433309026062489,11.619820754621,0.824711854406364,332.408113854386
738213.69574442354496568441,11.5952024903104,0.812402722251045,332.37118645792
738213.69574451399967074394,11.619820754621,0.837020986561683,332.358877325765
738213.69574460433796048164,11.5952024903104,0.812402722251045,332.358877325765
738213.69574469479266554117,11.6075116224657,0.800093590095726,332.383495590075
738213.69574478524737060070,11.5952024903104,0.812402722251045,332.420422986541
738213.69574487570207566023,11.5952024903104,0.800093590095726,332.445041250852
738213.69574496615678071976,11.5952024903104,0.812402722251045,332.457350383007
738213.69574505661148577929,11.6075116224657,0.824711854406364,332.445041250852
738213.69574514706619083881,11.5952024903104,0.812402722251045,332.37118645792
738213.69574523740448057652,11.5952024903104,0.812402722251045,332.37118645792
738213.69574532785918563604,11.5828933581551,0.812402722251045,332.37118645792
738213.69574541831389069557,11.5952024903104,0.800093590095726,332.383495590075
738213.69574550876859575510,11.5952024903104,0.800093590095726,332.408113854386
738213.69574559922330081463,11.5828933581551,0.787784457940408,332.358877325765
738213.69574568967800587416,11.5828933581551,0.775475325785089,332.383495590075
738213.69574578001629561186,11.5705842259997,0.750857061474451,332.321949929299
738213.69574587047100067139,11.5828933581551,0.775475325785089,332.285022532833
738213.69574596092570573092,11.5582750938444,0.76316619362977,332.334259061454
738213.69574605138041079044,11.5705842259997,0.76316619362977,332.297331664988
738213.69574614183511584997,11.5459659616891,0.750857061474451,332.334259061454
738213.69574623228982090950,11.5582750938444,0.738547929319132,332.334259061454
738213.69574632262811064720,11.5336568295338,0.726238797163813,332.309640797143
738213.69574641308281570673,11.5336568295338,0.726238797163813,332.321949929299
738213.69574650353752076626,11.5582750938444,0.701620532853175,332.272713400678
738213.69574659399222582579,11.5336568295338,0.701620532853175,332.309640797143
738213.69574668444693088531,11.5459659616891,0.713929665008494,332.383495590075
738213.69574677490163594484,11.5213476973785,0.701620532853175,332.297331664988
738213.69574686535634100437,11.5336568295338,0.701620532853175,332.346568193609
738213.69574695569463074207,11.5213476973785,0.677002268542538,332.334259061454
738213.69574704614933580160,11.5090385652231,0.689311400697857,332.309640797143
738213.69574713660404086113,11.5213476973785,0.677002268542538,332.334259061454
738213.69574722705874592066,11.5213476973785,0.664693136387219,332.469659515163
738213.69574731751345098019,11.5213476973785,0.664693136387219,332.383495590075
738213.69574740796815603971,11.5459659616891,0.677002268542538,332.432732118697
738213.69574749830644577742,11.5459659616891,0.677002268542538,332.481968647318
738213.69574758876115083694,11.5828933581551,0.701620532853175,332.432732118697
738213.69574767921585589647,11.5952024903104,0.726238797163813,332.457350383007
738213.69574776967056095600,11.5952024903104,0.76316619362977,332.481968647318
738213.69574786012526601553,11.5459659616891,0.750857061474451,332.518896043784
738213.69574795057997107506,11.5213476973785,0.701620532853175,332.494277779473
738213.69574804091826081276,11.5090385652231,0.689311400697857,332.55582344025
738213.69574813137296587229,11.4967294330678,0.6523840042319,332.58044170456
738213.69574822182767093182,11.4967294330678,0.640074872076581,332.531205175939
738213.69574831228237599134,11.4721111687572,0.627765739921262,332.58044170456
738213.69574840273708105087,11.4967294330678,0.6523840042319,332.55582344025
738213.69574849319178611040,11.4598020366019,0.6523840042319,332.55582344025
738213.69574858364649116993,11.4474929044465,0.615456607765943,332.494277779473
738213.69574867398478090763,11.4474929044465,0.6523840042319,332.506586911629
738213.69574876443948596716,11.4844203009125,0.677002268542538,332.432732118697
738213.69574885489419102669,11.4598020366019,0.664693136387219,332.408113854386
738213.69574894534889608622,11.4351837722912,0.590838343455306,332.37118645792
738213.69574903580360114574,11.4474929044465,0.504674418368074,332.358877325765
738213.69574912625830620527,11.5090385652231,0.664693136387219,332.469659515163
738213.69574921659659594297,11.6813664153976,1.14474929044465,332.37118645792
738213.69574930705130100250,11.9890947192806,1.7602058982106,332.149622079124
738213.69574939750600606203,11.7552212083295,1.66173284096805,332.260404268522
738213.69574948796071112156,11.4351837722912,0.910875779493596,332.235786004212
738213.69574957841541618109,11.1766919970295,0.344655700348928,332.235786004212
738213.69574966887012124062,11.2259285256508,0.393892228970204,332.235786004212
738213.69574975920841097832,11.3736381115146,0.615456607765943,332.260404268522
738213.69574984966311603785,11.4351837722912,0.664693136387219,332.272713400678
738213.69574994011782109737,11.4474929044465,0.664693136387219,332.297331664988
738213.69575003057252615690,11.4474929044465,0.664693136387219,332.297331664988
738213.69575012102723121643,11.4844203009125,0.677002268542538,332.309640797143
738213.69575021148193627596,11.4721111687572,0.689311400697857,332.285022532833
738213.69575030193664133549,11.4721111687572,0.689311400697857,332.285022532833
738213.69575039227493107319,11.4598020366019,0.677002268542538,332.272713400678
738213.69575048272963613272,11.4721111687572,0.677002268542538,332.235786004212
738213.69575057318434119225,11.4721111687572,0.677002268542538,332.198858607746
738213.69575066363904625177,11.4721111687572,0.689311400697857,332.100385550503
738213.69575075409375131130,11.4844203009125,0.713929665008494,332.18654947559
738213.69575084454845637083,11.4844203009125,0.726238797163813,332.198858607746
738213.69575093488674610853,11.4721111687572,0.750857061474451,332.235786004212
738213.69575102534145116806,11.4721111687572,0.76316619362977,332.285022532833
738213.69575111579615622759,11.4721111687572,0.775475325785089,332.248095136367
738213.69575120625086128712,11.5090385652231,0.775475325785089,332.272713400678
738213.69575129670556634665,11.4967294330678,0.787784457940408,332.235786004212
738213.69575138716027140617,11.5090385652231,0.800093590095726,332.272713400678
738213.69575147749856114388,11.5459659616891,0.837020986561683,332.297331664988
738213.69575156795326620340,11.5705842259997,0.861639250872321,332.198858607746
738213.69575165840797126293,11.5952024903104,0.898566647338277,332.285022532833
738213.69575174886267632246,11.6075116224657,0.923184911648915,332.297331664988
738213.69575183931738138199,11.6075116224657,0.947803175959553,332.309640797143
738213.69575192977208644152,11.6321298867763,0.972421440270191,332.235786004212
738213.69575202022679150105,11.6444390189316,1.02165796889147,332.346568193609
738213.69575211056508123875,11.656748151087,1.03396710104678,332.309640797143
738213.69575220101978629827,11.6444390189316,1.05858536535742,332.260404268522
738213.69575229147449135780,11.656748151087,1.07089449751274,332.321949929299
738213.69575238192919641733,11.6444390189316,1.08320362966806,332.321949929299
738213.69575247238390147686,11.656748151087,1.05858536535742,332.309640797143
738213.69575256283860653639,11.6444390189316,1.03396710104678,332.272713400678
738213.69575265317689627409,11.6075116224657,0.972421440270191,332.248095136367
738213.69575274363160133362,11.5705842259997,0.898566647338277,332.211167739901
738213.69575283408630639315,11.5213476973785,0.837020986561683,332.18654947559
738213.69575292454101145267,11.4967294330678,0.76316619362977,332.223476872056
738213.69575301499571651220,11.4721111687572,0.713929665008494,332.285022532833
738213.69575310545042157173,11.4474929044465,0.701620532853175,332.198858607746
738213.69575319578871130943,11.4474929044465,0.689311400697857,332.211167739901
738213.69575328624341636896,11.4105655079806,0.689311400697857,332.198858607746
738213.69575337669812142849,11.3982563758253,0.689311400697857,332.112694682658
738213.69575346715282648802,11.3982563758253,0.6523840042319,332.149622079124
738213.69575355760753154755,11.4105655079806,0.664693136387219,332.051149021882
738213.69575364806223660707,11.4351837722912,0.677002268542538,332.112694682658
738213.69575373851694166660,11.4474929044465,0.677002268542538,332.125003814814
738213.69575382885523140430,11.4474929044465,0.689311400697857,332.125003814814
738213.69575391930993646383,11.4351837722912,0.6523840042319,332.16193121128
738213.69575400976464152336,11.4351837722912,0.677002268542538,332.149622079124
738213.69575410021934658289,11.3982563758253,0.6523840042319,332.125003814814
738213.69575419067405164242,11.4228746401359,0.6523840042319,332.100385550503
738213.69575428112875670195,11.4105655079806,0.627765739921262,332.125003814814
738213.69575437146704643965,11.4228746401359,0.640074872076581,332.18654947559
738213.69575446192175149918,11.4228746401359,0.664693136387219,332.174240343435
738213.69575455237645655870,11.4351837722912,0.664693136387219,332.18654947559
738213.69575464283116161823,11.4351837722912,0.6523840042319,332.149622079124
738213.69575473328586667776,11.4474929044465,0.640074872076581,332.137312946969
738213.69575482374057173729,11.4351837722912,0.627765739921262,332.125003814814
738213.69575491407886147499,11.4228746401359,0.627765739921262,332.137312946969
738213.69575500453356653452,11.3982563758253,0.603147475610625,332.051149021882
738213.69575509498827159405,11.4105655079806,0.603147475610625,332.063458154037
738213.69575518544297665358,11.4228746401359,0.615456607765943,332.088076418348
738213.69575527589768171310,11.4228746401359,0.615456607765943,332.100385550503
738213.69575536635238677263,11.4105655079806,0.615456607765943,332.100385550503
738213.69575545680709183216,11.3982563758253,0.603147475610625,332.075767286192
738213.69575554714538156986,11.4228746401359,0.603147475610625,332.051149021882
738213.69575563760008662939,11.4105655079806,0.603147475610625,332.088076418348
738213.69575572805479168892,11.4351837722912,0.615456607765943,332.18654947559
738213.69575581850949674845,11.4105655079806,0.590838343455306,332.174240343435
738213.69575590896420180798,11.4228746401359,0.615456607765943,332.16193121128
738213.69575599941890686750,11.4105655079806,0.578529211299987,332.18654947559
738213.69575608975719660521,11.4105655079806,0.590838343455306,332.174240343435
738213.69575618021190166473,11.3982563758253,0.578529211299987,332.137312946969
738213.69575627066660672426,11.4105655079806,0.578529211299987,332.16193121128
738213.69575636112131178379,11.4351837722912,0.590838343455306,332.149622079124
738213.69575645157601684332,11.4228746401359,0.578529211299987,332.125003814814
738213.69575654203072190285,11.3982563758253,0.578529211299987,332.063458154037
738213.69575663236901164055,11.4474929044465,0.603147475610625,332.137312946969
738213.69575672282371670008,11.4351837722912,0.603147475610625,332.174240343435
738213.69575681327842175961,11.4105655079806,0.590838343455306,332.075767286192
738213.69575690373312681913,11.4721111687572,0.627765739921262,332.100385550503
738213.69575699418783187866,11.4598020366019,0.6523840042319,332.112694682658
738213.69575708464253693819,11.4598020366019,0.664693136387219,332.112694682658
738213.69575717509724199772,11.4598020366019,0.664693136387219,332.063458154037
738213.69575726543553173542,11.4228746401359,0.664693136387219,332.149622079124
738213.69575735589023679495,11.38594724367,0.627765739921262,332.18654947559
738213.69575744634494185448,11.4228746401359,0.578529211299987,332.149622079124
738213.69575753679964691401,11.3982563758253,0.578529211299987,332.174240343435
738213.69575762725435197353,11.4105655079806,0.578529211299987,332.100385550503
738213.69575771770905703306,11.38594724367,0.590838343455306,332.014221625416
738213.69575780804734677076,11.3982563758253,0.590838343455306,332.100385550503
738213.69575789850205183029,11.4105655079806,0.590838343455306,332.16193121128
738213.69575798895675688982,11.4228746401359,0.590838343455306,332.174240343435
738213.69575807941146194935,11.4351837722912,0.603147475610625,332.100385550503
738213.69575816986616700888,11.4351837722912,0.578529211299987,332.16193121128
738213.69575826032087206841,11.3736381115146,0.418510493280842,332.088076418348
738213.69575835065916180611,11.4105655079806,0.43081962543616,332.125003814814
738213.69575844111386686563,11.5952024903104,0.87394838302764,332.16193121128
738213.69575853156857192516,11.8660033977274,1.45247759432763,332.026530757571
738213.69575862202327698469,11.9398581906593,1.79713329467655,331.928057700329
738213.69575871247798204422,11.656748151087,1.20629495122125,331.891130303863
738213.69575880293268710375,11.4474929044465,0.713929665008494,331.964985096795
738213.69575889338739216328,11.2136193934955,0.233873510951058,332.051149021882
738213.69575898372568190098,11.1890011291849,0.233873510951058,332.051149021882
738213.69575907418038696051,11.3613289793593,0.480056154057436,332.038839889726
738213.69575916463509202003,11.4351837722912,0.566220079144668,332.038839889726
738213.69575925508979707956,11.4228746401359,0.553910946989349,332.088076418348
738213.69575934554450213909,11.4228746401359,0.590838343455306,332.137312946969
738213.69575943599920719862,11.4474929044465,0.603147475610625,332.16193121128
738213.69575952633749693632,11.4598020366019,0.590838343455306,332.063458154037
738213.69575961679220199585,11.4721111687572,0.603147475610625,332.038839889726
738213.69575970724690705538,11.4598020366019,0.603147475610625,332.051149021882
738213.69575979770161211491,11.4721111687572,0.603147475610625,332.063458154037
738213.69575988815631717443,11.4721111687572,0.627765739921262,332.026530757571
738213.69575997861102223396,11.4598020366019,0.615456607765943,332.112694682658
738213.69576006894931197166,11.4228746401359,0.603147475610625,332.125003814814
738213.69576015940401703119,11.4351837722912,0.6523840042319,332.100385550503
738213.69576024985872209072,11.4351837722912,0.640074872076581,332.125003814814
738213.69576034031342715025,11.4351837722912,0.627765739921262,332.149622079124
738213.69576043076813220978,11.4474929044465,0.640074872076581,332.18654947559
738213.69576052122283726931,11.4844203009125,0.677002268542538,332.149622079124
738213.69576061167754232883,11.4967294330678,0.701620532853175,332.16193121128
738213.69576070201583206654,11.5213476973785,0.713929665008494,332.18654947559
738213.69576079247053712606,11.5336568295338,0.76316619362977,332.16193121128
738213.69576088292524218559,11.5459659616891,0.800093590095726,332.18654947559
738213.69576097337994724512,11.5459659616891,0.824711854406364,332.16193121128
738213.69576106383465230465,11.5582750938444,0.87394838302764,332.18654947559
738213.69576115428935736418,11.5705842259997,0.910875779493596,332.137312946969
738213.69576124462764710188,11.5828933581551,0.935494043804234,331.940366832484
738213.69576133508235216141,11.5952024903104,0.972421440270191,332.112694682658
738213.69576142553705722094,11.5952024903104,0.997039704580828,332.16193121128
738213.69576151599176228046,11.6075116224657,0.997039704580828,332.174240343435
738213.69576160644646733999,11.5952024903104,1.02165796889147,332.137312946969
738213.69576169690117239952,11.6075116224657,1.02165796889147,332.16193121128
738213.69576178723946213722,11.5952024903104,0.984730572425509,332.223476872056
738213.69576187769416719675,11.5828933581551,0.935494043804234,332.16193121128
738213.69576196814887225628,11.5336568295338,0.849330118717002,332.088076418348
738213.69576205860357731581,11.5090385652231,0.800093590095726,332.100385550503
738213.69576214905828237534,11.4844203009125,0.738547929319132,332.125003814814
738213.69576223951298743486,11.4721111687572,0.677002268542538,332.112694682658
738213.69576232996769249439,11.4351837722912,0.640074872076581,332.100385550503
738213.69576242030598223209,11.4105655079806,0.640074872076581,332.125003814814
738213.69576251076068729162,11.4351837722912,0.615456607765943,332.112694682658
738213.69576260121539235115,11.4228746401359,0.615456607765943,332.137312946969
738213.69576269167009741068,11.4105655079806,0.627765739921262,332.149622079124
738213.69576278212480247021,11.3982563758253,0.590838343455306,332.088076418348
738213.69576287257950752974,11.4105655079806,0.603147475610625,332.125003814814
738213.69576296291779726744,11.4105655079806,0.590838343455306,332.149622079124
738213.69576305337250232697,11.38594724367,0.590838343455306,332.112694682658
738213.69576314382720738649,11.3736381115146,0.578529211299987,332.075767286192
738213.69576323428191244602,11.38594724367,0.578529211299987,332.112694682658
738213.69576332473661750555,11.38594724367,0.578529211299987,332.088076418348
738213.69576341519132256508,11.38594724367,0.578529211299987,332.075767286192
738213.69576350552961230278,11.38594724367,0.590838343455306,332.137312946969
738213.69576359598431736231,11.38594724367,0.578529211299987,332.125003814814
738213.69576368643902242184,11.3736381115146,0.578529211299987,332.112694682658
738213.69576377689372748137,11.3982563758253,0.566220079144668,332.100385550503
738213.69576386734843254089,11.3736381115146,0.578529211299987,332.112694682658
738213.69576395780313760042,11.3982563758253,0.590838343455306,332.137312946969
738213.69576404825784265995,11.3982563758253,0.590838343455306,332.149622079124
738213.69576413859613239765,11.38594724367,0.578529211299987,332.16193121128
738213.69576422905083745718,11.3736381115146,0.566220079144668,332.038839889726
738213.69576431950554251671,11.3736381115146,0.553910946989349,332.149622079124
738213.69576440996024757624,11.349019847204,0.566220079144668,332.198858607746
738213.69576450041495263577,11.3367107150487,0.553910946989349,332.16193121128
738213.69576459086965769529,11.3613289793593,0.578529211299987,332.100385550503
738213.69576468120794743299,11.349019847204,0.553910946989349,332.100385550503
738213.69576477166265249252,11.3613289793593,0.553910946989349,332.063458154037
738213.69576486211735755205,11.349019847204,0.553910946989349,332.149622079124
738213.69576495257206261158,11.3367107150487,0.566220079144668,332.112694682658
738213.69576504302676767111,11.3367107150487,0.553910946989349,332.137312946969
738213.69576513348147273064,11.3244015828934,0.54160181483403,332.149622079124
738213.69576522381976246834,11.3244015828934,0.529292682678711,332.125003814814
738213.69576531427446752787,11.3367107150487,0.529292682678711,332.16193121128
738213.69576540472917258739,11.3367107150487,0.553910946989349,332.211167739901
738213.69576549518387764692,11.3367107150487,0.553910946989349,332.211167739901
738213.69576558563858270645,11.3367107150487,0.553910946989349,332.16193121128
738213.69576567609328776598,11.349019847204,0.566220079144668,332.16193121128
738213.69576576654799282551,11.3613289793593,0.566220079144668,332.174240343435
738213.69576585688628256321,11.3367107150487,0.553910946989349,332.051149021882
738213.69576594734098762274,11.3613289793593,0.566220079144668,332.100385550503
738213.69576603779569268227,11.3613289793593,0.566220079144668,332.125003814814
738213.69576612825039774179,11.38594724367,0.603147475610625,332.100385550503
738213.69576621870510280132,11.3982563758253,0.640074872076581,332.100385550503
738213.69576630915980786085,11.3982563758253,0.6523840042319,332.149622079124
738213.69576639949809759855,11.3736381115146,0.640074872076581,332.137312946969
738213.69576648995280265808,11.3736381115146,0.627765739921262,332.088076418348
738213.69576658040750771761,11.349019847204,0.603147475610625,332.149622079124
738213.69576667086221277714,11.312092450738,0.566220079144668,332.149622079124
738213.69576676131691783667,11.312092450738,0.54160181483403,332.026530757571
738213.69576685177162289619,11.3244015828934,0.553910946989349,332.063458154037
738213.69576694210991263390,11.3244015828934,0.553910946989349,332.137312946969
738213.69576703256461769342,11.3244015828934,0.566220079144668,332.125003814814
738213.69576712301932275295,11.2997833185827,0.553910946989349,332.100385550503
738213.69576721347402781248,11.312092450738,0.553910946989349,332.149622079124
738213.69576730392873287201,11.312092450738,0.553910946989349,332.149622079124
738213.69576739438343793154,11.2751650542721,0.480056154057436,332.088076418348
738213.69576748483814299107,11.2874741864274,0.369273964659566,332.026530757571
738213.69576757517643272877,11.2997833185827,0.406201361125523,332.137312946969
738213.69576766563113778830,11.4228746401359,0.726238797163813,332.223476872056
738213.69576775608584284782,11.6813664153976,1.28014974415316,332.014221625416
738213.69576784654054790735,11.8783125298827,1.77251503036592,331.878821171707
738213.69576793699525296688,11.5459659616891,1.32938627277444,332.051149021882
738213.69576802744995802641,11.1890011291849,0.455437889746798,332.014221625416
738213.69576811778824776411,11.041291543321,0.147709585863826,332.038839889726
738213.69576820824295282364,11.1151463362529,0.320037436038291,331.928057700329
738213.69576829869765788317,11.2751650542721,0.492365286212755,332.00191249326
738213.69576838915236294270,11.2997833185827,0.529292682678711,332.125003814814
738213.69576847960706800222,11.3244015828934,0.553910946989349,332.112694682658
738213.69576857006177306175,11.3244015828934,0.566220079144668,332.112694682658
738213.69576866051647812128,11.3244015828934,0.566220079144668,332.137312946969
738213.69576875085476785898,11.3367107150487,0.578529211299987,332.112694682658
738213.69576884130947291851,11.3367107150487,0.566220079144668,332.038839889726
738213.69576893176417797804,11.349019847204,0.578529211299987,332.014221625416
738213.69576902221888303757,11.3613289793593,0.590838343455306,332.00191249326
738213.69576911267358809710,11.349019847204,0.590838343455306,332.00191249326
738213.69576920312829315662,11.349019847204,0.603147475610625,332.026530757571
738213.69576929346658289433,11.349019847204,0.603147475610625,332.051149021882
738213.69576938392128795385,11.349019847204,0.603147475610625,332.112694682658
738213.69576947437599301338,11.3367107150487,0.603147475610625,332.063458154037
738213.69576956483069807291,11.349019847204,0.603147475610625,332.100385550503
738213.69576965528540313244,11.3736381115146,0.6523840042319,332.088076418348
738213.69576974574010819197,11.38594724367,0.6523840042319,332.088076418348
738213.69576983607839792967,11.4228746401359,0.701620532853175,332.075767286192
738213.69576992653310298920,11.4351837722912,0.738547929319132,332.075767286192
738213.69577001698780804873,11.4598020366019,0.775475325785089,332.026530757571
738213.69577010744251310825,11.4598020366019,0.775475325785089,332.051149021882
738213.69577019789721816778,11.4721111687572,0.824711854406364,332.063458154037
738213.69577028835192322731,11.4967294330678,0.87394838302764,332.063458154037
738213.69577037880662828684,11.5213476973785,0.923184911648915,332.112694682658
738213.69577046914491802454,11.4967294330678,0.947803175959553,332.051149021882
738213.69577055959962308407,11.5213476973785,0.984730572425509,332.100385550503
738213.69577065005432814360,11.5213476973785,0.997039704580828,332.125003814814
738213.69577074050903320312,11.5336568295338,1.00934883673615,332.149622079124
738213.69577083096373826265,11.5336568295338,1.02165796889147,332.16193121128
738213.69577092141844332218,11.5213476973785,1.02165796889147,332.051149021882
738213.69577101175673305988,11.5213476973785,0.997039704580828,332.112694682658
738213.69577110221143811941,11.5090385652231,0.947803175959553,332.063458154037
738213.69577119266614317894,11.4844203009125,0.886257515182958,332.100385550503
738213.69577128312084823847,11.4474929044465,0.824711854406364,332.063458154037
738213.69577137357555329800,11.4351837722912,0.76316619362977,332.075767286192
738213.69577146403025835752,11.3982563758253,0.713929665008494,332.063458154037
738213.69577155436854809523,11.3736381115146,0.6523840042319,332.038839889726
738213.69577164482325315475,11.349019847204,0.640074872076581,332.051149021882
738213.69577173527795821428,11.3367107150487,0.627765739921262,331.989603361105
738213.69577182573266327381,11.3367107150487,0.603147475610625,332.00191249326
738213.69577191618736833334,11.349019847204,0.615456607765943,332.00191249326
738213.69577200664207339287,11.3367107150487,0.603147475610625,332.063458154037
738213.69577209709677845240,11.349019847204,0.615456607765943,332.075767286192
738213.69577218743506819010,11.349019847204,0.603147475610625,332.051149021882
738213.69577227788977324963,11.3367107150487,0.603147475610625,331.952675964639
738213.69577236834447830915,11.3367107150487,0.615456607765943,331.97729422895
738213.69577245879918336868,11.3244015828934,0.603147475610625,331.989603361105
738213.69577254925388842821,11.3244015828934,0.590838343455306,332.014221625416
738213.69577263970859348774,11.3244015828934,0.590838343455306,332.038839889726
738213.69577273004688322544,11.312092450738,0.603147475610625,332.038839889726
738213.69577282050158828497,11.312092450738,0.590838343455306,331.989603361105
738213.69577291095629334450,11.3244015828934,0.603147475610625,332.063458154037
738213.69577300141099840403,11.3244015828934,0.603147475610625,332.063458154037
738213.69577309186570346355,11.3244015828934,0.590838343455306,332.026530757571
738213.69577318232040852308,11.3244015828934,0.603147475610625,332.038839889726
738213.69577327265869826078,11.3367107150487,0.615456607765943,332.075767286192
738213.69577336311340332031,11.3244015828934,0.603147475610625,332.038839889726
738213.69577345356810837984,11.3244015828934,0.590838343455306,331.989603361105
738213.69577354402281343937,11.312092450738,0.603147475610625,332.051149021882
738213.69577363447751849890,11.3244015828934,0.603147475610625,332.063458154037
738213.69577372493222355843,11.312092450738,0.590838343455306,332.051149021882
738213.69577381538692861795,11.312092450738,0.603147475610625,331.97729422895
738213.69577390572521835566,11.3244015828934,0.603147475610625,332.100385550503
738213.69577399617992341518,11.312092450738,0.603147475610625,332.075767286192
738213.69577408663462847471,11.312092450738,0.603147475610625,332.100385550503
738213.69577417708933353424,11.2997833185827,0.590838343455306,332.038839889726
738213.69577426754403859377,11.2997833185827,0.590838343455306,332.051149021882
738213.69577435799874365330,11.2997833185827,0.578529211299987,332.063458154037
738213.69577444833703339100,11.2874741864274,0.578529211299987,332.051149021882
738213.69577453879173845053,11.2874741864274,0.578529211299987,332.088076418348
738213.69577462924644351006,11.2874741864274,0.578529211299987,332.038839889726
738213.69577471970114856958,11.2751650542721,0.553910946989349,331.989603361105
738213.69577481015585362911,11.2874741864274,0.566220079144668,331.989603361105
738213.69577490061055868864,11.2628559221168,0.578529211299987,331.989603361105
738213.69577499094884842634,11.2751650542721,0.566220079144668,332.026530757571
738213.69577508140355348587,11.2874741864274,0.578529211299987,332.051149021882
738213.69577517185825854540,11.2874741864274,0.566220079144668,332.088076418348
738213.69577526231296360493,11.2751650542721,0.566220079144668,331.878821171707
738213.69577535276766866446,11.2997833185827,0.578529211299987,331.891130303863
738213.69577544322237372398,11.312092450738,0.590838343455306,331.964985096795
738213.69577553367707878351,11.312092450738,0.590838343455306,331.903439436018
738213.69577562401536852121,11.349019847204,0.627765739921262,331.964985096795
738213.69577571447007358074,11.349019847204,0.6523840042319,331.97729422895
738213.69577580492477864027,11.349019847204,0.664693136387219,332.00191249326
738213.69577589537948369980,11.3367107150487,0.664693136387219,332.014221625416
738213.69577598583418875933,11.312092450738,0.640074872076581,332.014221625416
738213.69577607628889381886,11.312092450738,0.603147475610625,332.038839889726
738213.69577616662718355656,11.2874741864274,0.578529211299987,332.00191249326
738213.69577625708188861609,11.2751650542721,0.566220079144668,331.989603361105
738213.69577634753659367561,11.2628559221168,0.566220079144668,332.00191249326
738213.69577643799129873514,11.2628559221168,0.553910946989349,332.063458154037
738213.69577652844600379467,11.2751650542721,0.578529211299987,332.026530757571
738213.69577661890070885420,11.2628559221168,0.566220079144668,332.038839889726
738213.69577670923899859190,11.2505467899614,0.566220079144668,332.014221625416
738213.69577679969370365143,11.2628559221168,0.566220079144668,332.100385550503
738213.69577689014840871096,11.2505467899614,0.553910946989349,332.075767286192
738213.69577698060311377048,11.2136193934955,0.443128757591479,332.038839889726
738213.69577707105781883001,11.2751650542721,0.455437889746798,332.088076418348
738213.69577716151252388954,11.38594724367,0.738547929319132,332.137312946969
738213.69577725196722894907,11.5952024903104,1.23091321553189,332.026530757571
738213.69577734230551868677,11.8413851334168,1.73558763389996,331.79265724662
738213.69577743276022374630,11.5090385652231,1.41555019786167,331.928057700329
738213.69577752321492880583,11.1643828648742,0.566220079144668,331.964985096795
738213.69577761366963386536,10.9920550146997,0.172327850174464,331.940366832484
738213.69577770412433892488,11.1274554684083,0.381583096814885,331.915748568173
738213.69577779457904398441,11.2751650542721,0.553910946989349,332.026530757571
738213.69577788491733372211,11.2997833185827,0.578529211299987,332.038839889726
738213.69577797537203878164,11.2751650542721,0.54160181483403,332.026530757571
738213.69577806582674384117,11.2874741864274,0.54160181483403,332.026530757571
738213.69577815628144890070,11.2628559221168,0.54160181483403,332.088076418348
738213.69577824673615396023,11.2628559221168,0.54160181483403,332.075767286192
738213.69577833719085901976,11.2628559221168,0.553910946989349,332.00191249326
738213.69577842752914875746,11.2874741864274,0.566220079144668,332.088076418348
738213.69577851798385381699,11.2874741864274,0.578529211299987,332.112694682658
738213.69577860843855887651,11.2751650542721,0.578529211299987,332.014221625416
738213.69577869889326393604,11.2997833185827,0.590838343455306,332.038839889726
738213.69577878934796899557,11.2874741864274,0.590838343455306,331.940366832484
738213.69577887980267405510,11.2874741864274,0.578529211299987,331.940366832484
738213.69577897025737911463,11.2505467899614,0.578529211299987,331.989603361105
738213.69577906059566885233,11.2628559221168,0.590838343455306,332.00191249326
738213.69577915105037391186,11.2505467899614,0.590838343455306,331.97729422895
738213.69577924150507897139,11.2874741864274,0.603147475610625,332.014221625416
738213.69577933195978403091,11.2997833185827,0.627765739921262,332.026530757571
738213.69577942241448909044,11.3367107150487,0.677002268542538,332.051149021882
738213.69577951286919414997,11.3367107150487,0.701620532853175,332.063458154037
738213.69577960320748388767,11.3613289793593,0.738547929319132,332.051149021882
738213.69577969366218894720,11.3613289793593,0.775475325785089,332.075767286192
738213.69577978411689400673,11.3736381115146,0.800093590095726,332.00191249326
738213.69577987457159906626,11.3982563758253,0.849330118717002,332.075767286192
738213.69577996502630412579,11.4105655079806,0.87394838302764,332.100385550503
738213.69578005548100918531,11.3982563758253,0.923184911648915,332.100385550503
738213.69578014581929892302,11.38594724367,0.923184911648915,332.088076418348
738213.69578023627400398254,11.4351837722912,0.947803175959553,332.137312946969
738213.69578032672870904207,11.4474929044465,0.997039704580828,332.149622079124
738213.69578041718341410160,11.4598020366019,0.997039704580828,332.100385550503
738213.69578050763811916113,11.4474929044465,0.947803175959553,332.088076418348
738213.69578059809282422066,11.3982563758253,0.886257515182958,332.051149021882
738213.69578068854752928019,11.349019847204,0.800093590095726,332.125003814814
738213.69578077888581901789,11.3244015828934,0.750857061474451,332.038839889726
738213.69578086934052407742,11.2997833185827,0.689311400697857,332.063458154037
738213.69578095979522913694,11.2505467899614,0.627765739921262,332.075767286192
738213.69578105024993419647,11.2259285256508,0.603147475610625,332.063458154037
738213.69578114070463925600,11.2259285256508,0.590838343455306,332.112694682658
738213.69578123115934431553,11.2259285256508,0.578529211299987,332.100385550503
738213.69578132149763405323,11.2013102613402,0.566220079144668,332.100385550503
738213.69578141195233911276,11.2259285256508,0.578529211299987,332.112694682658
738213.69578150240704417229,11.2013102613402,0.578529211299987,332.149622079124
738213.69578159286174923182,11.1890011291849,0.566220079144668,332.137312946969
738213.69578168331645429134,11.1890011291849,0.590838343455306,332.088076418348
738213.69578177377115935087,11.1890011291849,0.590838343455306,332.149622079124
738213.69578186410944908857,11.1643828648742,0.578529211299987,332.075767286192
738213.69578195456415414810,11.1766919970295,0.590838343455306,332.125003814814
738213.69578204501885920763,11.1520737327189,0.578529211299987,332.051149021882
738213.69578213547356426716,11.2013102613402,0.578529211299987,332.100385550503
738213.69578222592826932669,11.2136193934955,0.566220079144668,332.125003814814
738213.69578231638297438622,11.1890011291849,0.578529211299987,331.928057700329
738213.69578240683767944574,11.1890011291849,0.578529211299987,332.00191249326
738213.69578249717596918344,11.1890011291849,0.553910946989349,332.125003814814
738213.69578258763067424297,11.1643828648742,0.553910946989349,332.063458154037
738213.69578267808537930250,11.1766919970295,0.553910946989349,332.075767286192
738213.69578276854008436203,11.1766919970295,0.578529211299987,332.125003814814
738213.69578285899478942156,11.1643828648742,0.566220079144668,332.075767286192
738213.69578294944949448109,11.1643828648742,0.566220079144668,332.038839889726
738213.69578303978778421879,11.1643828648742,0.578529211299987,331.989603361105
738213.69578313024248927832,11.1643828648742,0.566220079144668,332.026530757571
738213.69578322069719433784,11.1520737327189,0.578529211299987,332.038839889726
738213.69578331115189939737,11.1643828648742,0.578529211299987,332.00191249326
738213.69578340160660445690,11.1520737327189,0.578529211299987,331.989603361105
738213.69578349206130951643,11.1520737327189,0.578529211299987,332.014221625416
738213.69578358239959925413,11.1274554684083,0.566220079144668,332.014221625416
738213.69578367285430431366,11.1397646005636,0.566220079144668,332.026530757571
738213.69578376330900937319,11.1151463362529,0.566220079144668,332.063458154037
738213.69578385376371443272,11.1274554684083,0.578529211299987,332.00191249326
738213.69578394421841949224,11.1274554684083,0.566220079144668,332.014221625416
738213.69578403467312455177,11.1028372040976,0.553910946989349,332.075767286192
738213.69578412512782961130,11.1028372040976,0.553910946989349,332.051149021882
738213.69578421546611934900,11.1151463362529,0.553910946989349,331.989603361105
738213.69578430592082440853,11.1274554684083,0.566220079144668,331.989603361105
738213.69578439637552946806,11.1151463362529,0.553910946989349,331.989603361105
738213.69578448683023452759,11.1274554684083,0.553910946989349,332.038839889726
738213.69578457728493958712,11.0905280719423,0.553910946989349,331.952675964639
738213.69578466773964464664,11.1028372040976,0.54160181483403,332.014221625416
738213.69578475807793438435,11.1028372040976,0.553910946989349,332.00191249326
738213.69578484853263944387,11.1151463362529,0.553910946989349,331.940366832484
738213.69578493898734450340,11.0905280719423,0.553910946989349,331.915748568173
738213.69578502944204956293,11.078218939787,0.553910946989349,331.964985096795
738213.69578511989675462246,11.078218939787,0.553910946989349,331.964985096795
738213.69578521035145968199,11.1028372040976,0.566220079144668,332.00191249326
738213.69578530068974941969,11.0905280719423,0.578529211299987,331.97729422895
738213.69578539114445447922,11.1028372040976,0.578529211299987,332.00191249326
738213.69578548159915953875,11.1028372040976,0.578529211299987,332.00191249326
738213.69578557205386459827,11.1028372040976,0.590838343455306,331.903439436018
738213.69578566250856965780,11.1397646005636,0.615456607765943,331.97729422895
738213.69578575296327471733,11.1643828648742,0.664693136387219,331.989603361105
738213.69578584341797977686,11.1274554684083,0.640074872076581,331.891130303863
738213.69578593375626951456,11.1151463362529,0.627765739921262,331.878821171707
738213.69578602421097457409,11.1274554684083,0.603147475610625,332.014221625416
738213.69578611466567963362,11.0905280719423,0.566220079144668,332.026530757571
738213.69578620512038469315,11.078218939787,0.566220079144668,332.026530757571
738213.69578629557508975267,11.0536006754763,0.553910946989349,331.97729422895
738213.69578638602979481220,11.0659098076317,0.553910946989349,332.026530757571
738213.69578647636808454990,11.0659098076317,0.54160181483403,332.014221625416
738213.69578656682278960943,11.0536006754763,0.529292682678711,331.915748568173
738213.69578665727749466896,11.0289824111657,0.54160181483403,331.964985096795
738213.69578674773219972849,11.0289824111657,0.54160181483403,331.915748568173
738213.69578683818690478802,11.041291543321,0.553910946989349,331.928057700329
738213.69578692864160984755,11.041291543321,0.492365286212755,331.915748568173
738213.69578701897989958525,11.0289824111657,0.381583096814885,331.841893775241
738213.69578710943460464478,11.1028372040976,0.54160181483403,331.964985096795
738213.69578719988930970430,11.2751650542721,0.984730572425509,331.891130303863
738213.69578729034401476383,11.5705842259997,1.5632597837255,331.620329396446
738213.69578738079871982336,11.4228746401359,1.66173284096805,331.79265724662
738213.69578747125342488289,11.0659098076317,0.898566647338277,331.780348114465
738213.69578756170812994242,10.80741803237,0.258491775261696,331.854202907397
738213.69578765204641968012,10.8197271645253,0.246182643106377,331.903439436018
738213.69578774250112473965,11.0166732790104,0.504674418368074,331.964985096795
738213.69578783295582979918,11.041291543321,0.553910946989349,331.878821171707
738213.69578792341053485870,11.0536006754763,0.54160181483403,331.928057700329
738213.69578801386523991823,11.041291543321,0.54160181483403,331.940366832484
738213.69578810431994497776,11.0536006754763,0.553910946989349,331.903439436018
738213.69578819465823471546,11.0659098076317,0.54160181483403,331.928057700329
738213.69578828511293977499,11.078218939787,0.553910946989349,331.891130303863
738213.69578837556764483452,11.0905280719423,0.566220079144668,331.940366832484
738213.69578846602234989405,11.0905280719423,0.578529211299987,331.940366832484
738213.69578855647705495358,11.1028372040976,0.578529211299987,331.97729422895
738213.69578864693176001310,11.0905280719423,0.578529211299987,331.854202907397
738213.69578873727004975080,11.1028372040976,0.615456607765943,331.903439436018
738213.69578882772475481033,11.078218939787,0.603147475610625,331.915748568173
738213.69578891817945986986,11.078218939787,0.627765739921262,331.940366832484
738213.69578900863416492939,11.078218939787,0.627765739921262,331.940366832484
738213.69578909908886998892,11.0905280719423,0.627765739921262,331.964985096795
738213.69578918954357504845,11.1028372040976,0.615456607765943,331.952675964639
738213.69578927999828010798,11.1397646005636,0.6523840042319,332.014221625416
738213.69578937033656984568,11.1151463362529,0.677002268542538,331.915748568173
738213.69578946079127490520,11.1397646005636,0.701620532853175,331.940366832484
738213.69578955124597996473,11.1520737327189,0.738547929319132,331.97729422895
738213.69578964170068502426,11.2013102613402,0.787784457940408,331.989603361105
738213.69578973215539008379,11.2013102613402,0.824711854406364,332.014221625416
738213.69578982261009514332,11.2259285256508,0.849330118717002,332.014221625416
738213.69578991294838488102,11.2382376578061,0.886257515182958,332.00191249326
738213.69579000340308994055,11.2382376578061,0.923184911648915,332.00191249326
738213.69579009385779500008,11.2505467899614,0.935494043804234,332.026530757571
738213.69579018431250005960,11.2382376578061,0.947803175959553,332.014221625416
738213.69579027476720511913,11.2505467899614,0.947803175959553,332.026530757571
738213.69579036522191017866,11.2505467899614,0.947803175959553,332.038839889726
738213.69579045556019991636,11.2628559221168,0.960112308114872,332.00191249326
738213.69579054601490497589,11.2382376578061,0.923184911648915,331.989603361105
738213.69579063646961003542,11.2382376578061,0.87394838302764,332.014221625416
738213.69579072692431509495,11.2013102613402,0.824711854406364,331.989603361105
738213.69579081737902015448,11.1766919970295,0.76316619362977,331.928057700329
738213.69579090783372521400,11.1274554684083,0.689311400697857,331.964985096795
738213.69579099828843027353,11.0905280719423,0.640074872076581,331.989603361105
738213.69579108862672001123,11.0659098076317,0.603147475610625,331.952675964639
738213.69579117908142507076,11.078218939787,0.590838343455306,331.964985096795
738213.69579126953613013029,11.0536006754763,0.578529211299987,331.97729422895
738213.69579135999083518982,11.0536006754763,0.578529211299987,331.866512039552
738213.69579145044554024935,11.041291543321,0.578529211299987,331.817275510931
738213.69579154090024530888,11.0536006754763,0.566220079144668,331.804966378775
738213.69579163123853504658,11.041291543321,0.566220079144668,331.841893775241
738213.69579172169324010611,11.041291543321,0.578529211299987,331.866512039552
738213.69579181214794516563,11.0659098076317,0.578529211299987,331.841893775241
738213.69579190260265022516,11.041291543321,0.578529211299987,331.79265724662
738213.69579199305735528469,11.041291543321,0.578529211299987,331.780348114465
738213.69579208351206034422,11.0536006754763,0.566220079144668,331.841893775241
738213.69579217385035008192,11.0536006754763,0.578529211299987,331.841893775241
738213.69579226430505514145,11.041291543321,0.553910946989349,331.854202907397
738213.69579235475976020098,11.0289824111657,0.553910946989349,331.841893775241
738213.69579244521446526051,11.0289824111657,0.566220079144668,331.866512039552
738213.69579253566917032003,11.0536006754763,0.553910946989349,331.915748568173
738213.69579262612387537956,11.0289824111657,0.54160181483403,331.829584643086
738213.69579271657858043909,11.0536006754763,0.54160181483403,331.903439436018
738213.69579280691687017679,11.0536006754763,0.566220079144668,331.915748568173
738213.69579289737157523632,11.0289824111657,0.553910946989349,331.780348114465
738213.69579298782628029585,11.041291543321,0.566220079144668,331.768038982309
738213.69579307828098535538,11.041291543321,0.54160181483403,331.854202907397
738213.69579316873569041491,11.041291543321,0.54160181483403,331.866512039552
738213.69579325919039547443,11.041291543321,0.529292682678711,331.841893775241
738213.69579334952868521214,11.041291543321,0.553910946989349,331.841893775241
738213.69579343998339027166,11.041291543321,0.553910946989349,331.854202907397
738213.69579353043809533119,11.041291543321,0.54160181483403,331.829584643086
738213.69579362089280039072,11.0289824111657,0.54160181483403,331.866512039552
738213.69579371134750545025,11.0289824111657,0.54160181483403,331.829584643086
738213.69579380180221050978,11.0289824111657,0.54160181483403,331.854202907397
738213.69579389225691556931,11.0289824111657,0.529292682678711,331.915748568173
738213.69579398259520530701,11.041291543321,0.54160181483403,331.940366832484
738213.69579407304991036654,11.041291543321,0.553910946989349,331.928057700329
738213.69579416350461542606,11.041291543321,0.529292682678711,331.952675964639
738213.69579425395932048559,11.0289824111657,0.516983550523392,331.940366832484
738213.69579434441402554512,11.0289824111657,0.529292682678711,331.903439436018
738213.69579443486873060465,11.0289824111657,0.529292682678711,331.854202907397
738213.69579452520702034235,11.0166732790104,0.516983550523392,331.915748568173
738213.69579461566172540188,11.0166732790104,0.516983550523392,331.903439436018
738213.69579470611643046141,11.0289824111657,0.54160181483403,331.928057700329
738213.69579479657113552094,11.0289824111657,0.54160181483403,331.964985096795
738213.69579488702584058046,11.0289824111657,0.529292682678711,331.928057700329
738213.69579497748054563999,11.0166732790104,0.529292682678711,331.903439436018
738213.69579506781883537769,11.041291543321,0.529292682678711,331.903439436018
738213.69579515827354043722,11.041291543321,0.529292682678711,331.964985096795
738213.69579524872824549675,11.0289824111657,0.529292682678711,331.97729422895
738213.69579533918295055628,11.0289824111657,0.529292682678711,331.866512039552
738213.69579542963765561581,11.0289824111657,0.529292682678711,331.952675964639
738213.69579552009236067533,11.041291543321,0.54160181483403,331.854202907397
738213.69579561054706573486,11.0536006754763,0.553910946989349,331.829584643086
738213.69579570088535547256,11.041291543321,0.553910946989349,331.817275510931
738213.69579579134006053209,11.0289824111657,0.54160181483403,331.804966378775
738213.69579588179476559162,11.041291543321,0.54160181483403,331.804966378775
738213.69579597224947065115,11.041291543321,0.54160181483403,331.804966378775
738213.69579606270417571068,11.078218939787,0.566220079144668,331.841893775241
738213.69579615315888077021,11.0659098076317,0.566220079144668,331.829584643086
738213.69579624349717050791,11.0905280719423,0.566220079144668,331.866512039552
738213.69579633395187556744,11.1151463362529,0.603147475610625,331.817275510931
738213.69579642440658062696,11.1151463362529,0.627765739921262,331.731111585844
738213.69579651486128568649,11.1028372040976,0.627765739921262,331.804966378775
738213.69579660531599074602,11.1028372040976,0.615456607765943,331.891130303863
738213.69579669577069580555,11.0659098076317,0.590838343455306,331.940366832484
738213.69579678610898554325,11.0536006754763,0.566220079144668,331.964985096795
738213.69579687656369060278,11.0289824111657,0.54160181483403,331.878821171707
738213.69579696701839566231,11.041291543321,0.516983550523392,331.928057700329
738213.69579705747310072184,11.041291543321,0.516983550523392,331.878821171707
738213.69579714792780578136,11.041291543321,0.529292682678711,331.928057700329
738213.69579723838251084089,11.041291543321,0.54160181483403,331.866512039552
738213.69579732883721590042,11.0536006754763,0.529292682678711,331.891130303863
738213.69579741917550563812,11.0536006754763,0.54160181483403,331.891130303863
738213.69579750963021069765,11.0289824111657,0.529292682678711,331.866512039552
738213.69579760008491575718,11.0166732790104,0.504674418368074,331.878821171707
738213.69579769053962081671,11.0043641468551,0.381583096814885,331.841893775241
738213.69579778099432587624,11.0536006754763,0.455437889746798,331.841893775241
738213.69579787144903093576,11.1643828648742,0.800093590095726,331.928057700329
738213.69579796178732067347,11.4721111687572,1.36631366924039,331.681875057222
738213.69579805224202573299,11.5213476973785,1.698660237434,331.681875057222
738213.69579814269673079252,11.1766919970295,1.14474929044465,331.768038982309
738213.69579823315143585205,10.8443454288359,0.369273964659566,331.718802453688
738213.69579832360614091158,10.7951089002146,0.196946114485102,331.768038982309
738213.69579841406084597111,10.9551276182338,0.455437889746798,331.817275510931
738213.69579850439913570881,11.0536006754763,0.566220079144668,331.841893775241
738213.69579859485384076834,11.041291543321,0.54160181483403,331.829584643086
738213.69579868530854582787,11.0289824111657,0.553910946989349,331.829584643086
738213.69579877576325088739,11.0536006754763,0.54160181483403,331.854202907397
738213.69579886621795594692,11.0659098076317,0.54160181483403,331.817275510931
738213.69579895667266100645,11.078218939787,0.54160181483403,331.841893775241
738213.69579904712736606598,11.0659098076317,0.529292682678711,331.854202907397
738213.69579913746565580368,11.078218939787,0.54160181483403,331.891130303863
738213.69579922792036086321,11.0659098076317,0.54160181483403,331.817275510931
738213.69579931837506592274,11.078218939787,0.553910946989349,331.854202907397
738213.69579940882977098227,11.0659098076317,0.566220079144668,331.866512039552
738213.69579949928447604179,11.078218939787,0.578529211299987,331.866512039552
738213.69579958973918110132,11.0659098076317,0.566220079144668,331.928057700329
738213.69579968007747083902,11.0659098076317,0.553910946989349,331.928057700329
738213.69579977053217589855,11.078218939787,0.553910946989349,331.989603361105
738213.69579986098688095808,11.0905280719423,0.553910946989349,331.97729422895
738213.69579995144158601761,11.0905280719423,0.578529211299987,331.841893775241
738213.69580004189629107714,11.1028372040976,0.590838343455306,331.866512039552
738213.69580013235099613667,11.1274554684083,0.603147475610625,331.97729422895
738213.69580022268928587437,11.1397646005636,0.640074872076581,331.964985096795
738213.69580031314399093390,11.1643828648742,0.677002268542538,331.940366832484
738213.69580040359869599342,11.1766919970295,0.701620532853175,331.952675964639
738213.69580049405340105295,11.1890011291849,0.738547929319132,331.97729422895
738213.69580058450810611248,11.1890011291849,0.775475325785089,332.00191249326
738213.69580067496281117201,11.2013102613402,0.812402722251045,332.014221625416
738213.69580076541751623154,11.1890011291849,0.837020986561683,331.989603361105
738213.69580085575580596924,11.2136193934955,0.849330118717002,332.075767286192
738213.69580094621051102877,11.2259285256508,0.87394838302764,332.075767286192
738213.69580103666521608829,11.2259285256508,0.87394838302764,332.051149021882
738213.69580112711992114782,11.2259285256508,0.87394838302764,332.051149021882
738213.69580121757462620735,11.2136193934955,0.87394838302764,332.088076418348
738213.69580130802933126688,11.2013102613402,0.824711854406364,332.088076418348
738213.69580139836762100458,11.1766919970295,0.775475325785089,332.038839889726
738213.69580148882232606411,11.1397646005636,0.701620532853175,332.075767286192
738213.69580157927703112364,11.0905280719423,0.627765739921262,332.051149021882
738213.69580166973173618317,11.0659098076317,0.578529211299987,331.989603361105
738213.69580176018644124269,11.0536006754763,0.529292682678711,331.97729422895
738213.69580185064114630222,11.041291543321,0.516983550523392,332.014221625416
738213.69580194097943603992,11.0289824111657,0.504674418368074,332.038839889726
738213.69580203143414109945,11.0289824111657,0.504674418368074,332.014221625416
738213.69580212188884615898,11.0289824111657,0.492365286212755,331.989603361105
738213.69580221234355121851,11.0536006754763,0.492365286212755,332.00191249326
738213.69580230279825627804,11.041291543321,0.492365286212755,331.989603361105
738213.69580239325296133757,11.0289824111657,0.504674418368074,332.014221625416
738213.69580248370766639709,11.0166732790104,0.492365286212755,332.00191249326
738213.69580257404595613480,11.0289824111657,0.504674418368074,332.00191249326
738213.69580266450066119432,11.0043641468551,0.504674418368074,331.952675964639
738213.69580275495536625385,11.0043641468551,0.492365286212755,331.97729422895
738213.69580284541007131338,11.0166732790104,0.492365286212755,332.00191249326
738213.69580293586477637291,11.0166732790104,0.492365286212755,331.940366832484
738213.69580302631948143244,11.0289824111657,0.504674418368074,331.964985096795
738213.69580311665777117014,11.0166732790104,0.492365286212755,331.97729422895
738213.69580320711247622967,11.0043641468551,0.492365286212755,331.964985096795
738213.69580329756718128920,11.0043641468551,0.516983550523392,331.903439436018
738213.69580338802188634872,11.0289824111657,0.504674418368074,331.97729422895
738213.69580347847659140825,11.0043641468551,0.492365286212755,331.841893775241
738213.69580356893129646778,11.0166732790104,0.504674418368074,331.768038982309
738213.69580365926958620548,10.9920550146997,0.480056154057436,331.928057700329
738213.69580374972429126501,10.9920550146997,0.467747021902117,331.952675964639
738213.69580384017899632454,10.9797458825444,0.467747021902117,331.829584643086
738213.69580393063370138407,10.9920550146997,0.480056154057436,331.841893775241
738213.69580402108840644360,10.9920550146997,0.467747021902117,331.903439436018
738213.69580411154311150312,10.9674367503891,0.480056154057436,331.903439436018
738213.69580420199781656265,10.9551276182338,0.467747021902117,331.891130303863
738213.69580429233610630035,10.9674367503891,0.455437889746798,331.854202907397
738213.69580438279081135988,10.9674367503891,0.467747021902117,331.79265724662
738213.69580447324551641941,10.9428184860785,0.467747021902117,331.780348114465
738213.69580456370022147894,10.9428184860785,0.455437889746798,331.804966378775
738213.69580465415492653847,10.9428184860785,0.443128757591479,331.804966378775
738213.69580474460963159800,10.9674367503891,0.455437889746798,331.829584643086
738213.69580483494792133570,10.9551276182338,0.455437889746798,331.841893775241
738213.69580492540262639523,10.9551276182338,0.43081962543616,331.829584643086
738213.69580501585733145475,10.9428184860785,0.43081962543616,331.866512039552
738213.69580510631203651428,10.9428184860785,0.443128757591479,331.866512039552
738213.69580519676674157381,10.9428184860785,0.443128757591479,331.768038982309
738213.69580528722144663334,10.9551276182338,0.455437889746798,331.829584643086
738213.69580537755973637104,10.9428184860785,0.455437889746798,331.829584643086
738213.69580546801444143057,10.9674367503891,0.455437889746798,331.804966378775
738213.69580555846914649010,10.9551276182338,0.455437889746798,331.79265724662
738213.69580564892385154963,10.9428184860785,0.43081962543616,331.755729850154
738213.69580573937855660915,10.9428184860785,0.443128757591479,331.768038982309
738213.69580582983326166868,10.9428184860785,0.443128757591479,331.718802453688
738213.69580592028796672821,10.9428184860785,0.443128757591479,331.706493321533
738213.69580601062625646591,10.9551276182338,0.443128757591479,331.718802453688
738213.69580610108096152544,10.9551276182338,0.455437889746798,331.743420717999
738213.69580619153566658497,10.9305093539232,0.43081962543616,331.718802453688
738213.69580628199037164450,10.9674367503891,0.43081962543616,331.743420717999
738213.69580637244507670403,10.9428184860785,0.43081962543616,331.718802453688
738213.69580646289978176355,10.9428184860785,0.443128757591479,331.718802453688
738213.69580655323807150126,10.9551276182338,0.43081962543616,331.768038982309
738213.69580664369277656078,10.9674367503891,0.443128757591479,331.79265724662
738213.69580673414748162031,10.9428184860785,0.418510493280842,331.731111585844
738213.69580682460218667984,10.9674367503891,0.443128757591479,331.768038982309
738213.69580691505689173937,10.9551276182338,0.43081962543616,331.743420717999
738213.69580700551159679890,10.9551276182338,0.443128757591479,331.58340199998
738213.69580709584988653660,10.9797458825444,0.455437889746798,331.632638528601
738213.69580718630459159613,11.0166732790104,0.467747021902117,331.743420717999
738213.69580727675929665565,11.0536006754763,0.492365286212755,331.718802453688
738213.69580736721400171518,11.041291543321,0.529292682678711,331.743420717999
738213.69580745766870677471,11.041291543321,0.516983550523392,331.780348114465
738213.69580754812341183424,10.9920550146997,0.492365286212755,331.817275510931
738213.69580763857811689377,10.9797458825444,0.467747021902117,331.718802453688
738213.69580772891640663147,10.9674367503891,0.443128757591479,331.780348114465
738213.69580781937111169100,10.9674367503891,0.418510493280842,331.817275510931
738213.69580790982581675053,10.9428184860785,0.406201361125523,331.817275510931
738213.69580800028052181005,10.9551276182338,0.406201361125523,331.718802453688
738213.69580809073522686958,10.9674367503891,0.418510493280842,331.694184189378
738213.69580818118993192911,10.9674367503891,0.418510493280842,331.694184189378
738213.69580827152822166681,10.9551276182338,0.418510493280842,331.718802453688
738213.69580836198292672634,10.9674367503891,0.418510493280842,331.694184189378
738213.69580845243763178587,10.9797458825444,0.43081962543616,331.681875057222
738213.69580854289233684540,10.9305093539232,0.320037436038291,331.669565925067
738213.69580863334704190493,10.9182002217678,0.233873510951058,331.681875057222
738213.69580872380174696445,10.9797458825444,0.443128757591479,331.804966378775
738213.69580881414003670216,11.2259285256508,0.972421440270191,331.755729850154
738213.69580890459474176168,11.5336568295338,1.5632597837255,331.39876501765
738213.69580899504944682121,11.312092450738,1.44016846217231,331.546474603514
738213.69580908550415188074,10.9428184860785,0.590838343455306,331.521856339203
738213.69580917595885694027,10.7089449751274,0.0738547929319132,331.632638528601
738213.69580926641356199980,10.7089449751274,0.0984730572425509,331.620329396446
738213.69580935686826705933,10.8935819574572,0.307728303882972,331.706493321533
738213.69580944720655679703,10.9305093539232,0.344655700348928,331.694184189378
738213.69580953766126185656,10.9428184860785,0.369273964659566,331.60802026429
738213.69580962811596691608,10.9674367503891,0.369273964659566,331.694184189378
738213.69580971857067197561,10.9674367503891,0.393892228970204,331.681875057222
738213.69580980902537703514,10.9674367503891,0.381583096814885,331.706493321533
738213.69580989948008209467,10.9797458825444,0.406201361125523,331.620329396446
738213.69580998981837183237,10.9920550146997,0.393892228970204,331.657256792912
738213.69581008027307689190,11.0043641468551,0.406201361125523,331.620329396446
738213.69581017072778195143,10.9920550146997,0.406201361125523,331.644947660756
738213.69581026118248701096,10.9920550146997,0.418510493280842,331.632638528601
738213.69581035163719207048,11.0043641468551,0.43081962543616,331.669565925067
738213.69581044209189713001,10.9797458825444,0.43081962543616,331.644947660756
738213.69581053243018686771,10.9920550146997,0.43081962543616,331.460310678426
738213.69581062288489192724,10.9920550146997,0.43081962543616,331.534165471358
738213.69581071333959698677,11.0166732790104,0.443128757591479,331.632638528601
738213.69581080379430204630,11.041291543321,0.455437889746798,331.595711132135
738213.69581089424900710583,11.0659098076317,0.516983550523392,331.595711132135
738213.69581098470371216536,11.078218939787,0.529292682678711,331.60802026429
738213.69581107515841722488,11.0905280719423,0.566220079144668,331.60802026429
738213.69581116549670696259,11.0905280719423,0.578529211299987,331.60802026429
738213.69581125595141202211,11.1151463362529,0.615456607765943,331.706493321533
738213.69581134640611708164,11.1274554684083,0.627765739921262,331.718802453688
738213.69581143686082214117,11.1028372040976,0.640074872076581,331.731111585844
738213.69581152731552720070,11.1274554684083,0.701620532853175,331.768038982309
738213.69581161777023226023,11.1274554684083,0.726238797163813,331.743420717999
738213.69581170810852199793,11.1643828648742,0.76316619362977,331.768038982309
738213.69581179856322705746,11.1643828648742,0.787784457940408,331.706493321533
738213.69581188901793211699,11.1890011291849,0.800093590095726,331.768038982309
738213.69581197947263717651,11.1890011291849,0.824711854406364,331.79265724662
738213.69581206992734223604,11.1766919970295,0.812402722251045,331.768038982309
738213.69581216038204729557,11.1766919970295,0.787784457940408,331.755729850154
738213.69581225072033703327,11.1766919970295,0.726238797163813,331.731111585844
738213.69581234117504209280,11.1397646005636,0.689311400697857,331.694184189378
738213.69581243162974715233,11.1151463362529,0.627765739921262,331.706493321533
738213.69581252208445221186,11.0659098076317,0.553910946989349,331.731111585844
738213.69581261253915727139,11.0289824111657,0.492365286212755,331.718802453688
738213.69581270299386233091,10.9920550146997,0.480056154057436,331.681875057222
738213.69581279344856739044,11.0166732790104,0.443128757591479,331.743420717999
738213.69581288378685712814,10.9920550146997,0.43081962543616,331.718802453688
738213.69581297424156218767,10.9920550146997,0.418510493280842,331.743420717999
738213.69581306469626724720,11.0043641468551,0.418510493280842,331.681875057222
738213.69581315515097230673,10.9797458825444,0.406201361125523,331.644947660756
738213.69581324560567736626,10.9920550146997,0.43081962543616,331.669565925067
738213.69581333606038242579,10.9797458825444,0.406201361125523,331.644947660756
738213.69581342639867216349,11.0043641468551,0.406201361125523,331.657256792912
738213.69581351685337722301,10.9674367503891,0.393892228970204,331.620329396446
738213.69581360730808228254,10.9674367503891,0.418510493280842,331.706493321533
738213.69581369776278734207,10.9674367503891,0.393892228970204,331.632638528601
738213.69581378821749240160,10.9797458825444,0.393892228970204,331.669565925067
738213.69581387867219746113,10.9920550146997,0.406201361125523,331.694184189378
738213.69581396901048719883,10.9674367503891,0.418510493280842,331.694184189378
738213.69581405946519225836,10.9674367503891,0.393892228970204,331.546474603514
738213.69581414991989731789,11.0043641468551,0.406201361125523,331.620329396446
738213.69581424037460237741,10.9674367503891,0.381583096814885,331.694184189378
738213.69581433082930743694,10.9797458825444,0.393892228970204,331.706493321533
738213.69581442128401249647,10.9674367503891,0.381583096814885,331.706493321533
738213.69581451173871755600,10.9674367503891,0.381583096814885,331.694184189378
738213.69581460207700729370,10.9674367503891,0.369273964659566,331.718802453688
738213.69581469253171235323,10.9428184860785,0.369273964659566,331.694184189378
738213.69581478298641741276,10.9551276182338,0.381583096814885,331.669565925067
738213.69581487344112247229,10.9428184860785,0.381583096814885,331.694184189378
738213.69581496389582753181,10.9428184860785,0.356964832504247,331.718802453688
738213.69581505435053259134,10.9428184860785,0.344655700348928,331.669565925067
738213.69581514468882232904,10.9551276182338,0.369273964659566,331.718802453688
738213.69581523514352738857,10.9305093539232,0.356964832504247,331.768038982309
738213.69581532559823244810,10.9305093539232,0.369273964659566,331.743420717999
738213.69581541605293750763,10.9182002217678,0.356964832504247,331.706493321533
738213.69581550650764256716,10.9428184860785,0.356964832504247,331.755729850154
738213.69581559696234762669,10.9305093539232,0.332346568193609,331.731111585844
738213.69581568730063736439,10.9428184860785,0.356964832504247,331.743420717999
738213.69581577775534242392,10.9305093539232,0.369273964659566,331.657256792912
738213.69581586821004748344,10.9305093539232,0.356964832504247,331.731111585844
738213.69581595866475254297,10.9305093539232,0.356964832504247,331.731111585844
738213.69581604911945760250,10.9182002217678,0.369273964659566,331.644947660756
738213.69581613957416266203,10.9305093539232,0.344655700348928,331.718802453688
738213.69581623002886772156,10.9058910896125,0.356964832504247,331.768038982309
738213.69581632036715745926,10.9305093539232,0.369273964659566,331.731111585844
738213.69581641082186251879,10.9305093539232,0.356964832504247,331.657256792912
738213.69581650127656757832,10.9305093539232,0.356964832504247,331.718802453688
738213.69581659173127263784,10.8935819574572,0.344655700348928,331.731111585844
738213.69581668218597769737,10.9182002217678,0.356964832504247,331.657256792912
738213.69581677264068275690,10.9182002217678,0.344655700348928,331.694184189378
738213.69581686297897249460,10.9182002217678,0.344655700348928,331.718802453688
738213.69581695343367755413,10.9182002217678,0.356964832504247,331.632638528601
738213.69581704388838261366,10.9305093539232,0.369273964659566,331.644947660756
738213.69581713434308767319,10.9551276182338,0.381583096814885,331.694184189378
738213.69581722479779273272,10.9428184860785,0.381583096814885,331.681875057222
738213.69581731525249779224,10.9551276182338,0.381583096814885,331.718802453688
738213.69581740559078752995,10.9797458825444,0.43081962543616,331.657256792912
738213.69581749604549258947,10.9920550146997,0.443128757591479,331.669565925067
738213.69581758650019764900,10.9797458825444,0.443128757591479,331.546474603514
738213.69581767695490270853,10.9797458825444,0.43081962543616,331.620329396446
738213.69581776740960776806,10.9305093539232,0.406201361125523,331.669565925067
738213.69581785786431282759,10.9182002217678,0.356964832504247,331.694184189378
738213.69581794831901788712,10.9058910896125,0.344655700348928,331.706493321533
738213.69581803865730762482,10.9058910896125,0.332346568193609,331.669565925067
738213.69581812911201268435,10.8812728253019,0.332346568193609,331.681875057222
738213.69581821956671774387,10.9058910896125,0.344655700348928,331.669565925067
738213.69581831002142280340,10.9182002217678,0.344655700348928,331.706493321533
738213.69581840047612786293,10.8935819574572,0.320037436038291,331.694184189378
738213.69581849093083292246,10.9058910896125,0.344655700348928,331.731111585844
738213.69581858126912266016,10.8935819574572,0.332346568193609,331.743420717999
738213.69581867172382771969,10.8935819574572,0.320037436038291,331.657256792912
738213.69581876217853277922,10.8812728253019,0.22156437879574,331.718802453688
738213.69581885263323783875,10.8935819574572,0.196946114485102,331.694184189378
738213.69581894308794289827,11.0043641468551,0.516983550523392,331.817275510931
738213.69581903354264795780,11.2874741864274,1.09551276182338,331.694184189378
738213.69581912388093769550,11.5213476973785,1.61249631234677,331.521856339203
738213.69581921433564275503,11.1890011291849,1.16936755475529,331.521856339203
738213.69581930479034781456,10.7951089002146,0.283110039572334,331.60802026429
738213.69581939524505287409,10.6473993143508,-0.0492365286212755,331.644947660756
738213.69581948569975793362,10.7212541072827,0.123091321553189,331.644947660756
738213.69581957615446299314,10.8812728253019,0.320037436038291,331.620329396446
738213.69581966660916805267,10.9058910896125,0.332346568193609,331.657256792912
738213.69581975694745779037,10.9182002217678,0.344655700348928,331.694184189378
738213.69581984740216284990,10.9182002217678,0.356964832504247,331.620329396446
738213.69581993785686790943,10.9428184860785,0.369273964659566,331.681875057222
738213.69582002831157296896,10.9428184860785,0.356964832504247,331.706493321533
738213.69582011876627802849,10.9182002217678,0.344655700348928,331.681875057222
