time_dn,ecg_projection_ll_ra_mV,ecg_projection_la_ra_mV,ecg_projection_vx_rl_mV
738213.67973031778819859028,9.42879523097425,-0.209255246640421,330.955636260058
738213.67973040824290364981,9.44110436312957,-0.196946114485102,330.967945392214
738213.67973049869760870934,9.47803175959553,-0.147709585863826,330.931017995748
738213.67973058903589844704,9.49034089175085,-0.0984730572425509,330.967945392214
738213.67973067949060350657,9.49034089175085,-0.0615456607765943,331.00487278868
738213.67973076994530856609,9.46572262744021,-0.0492365286212755,331.017181920835
738213.67973086040001362562,9.49034089175085,-0.0123091321553189,330.980254524369
738213.67973095085471868515,9.47803175959553,0,330.980254524369
738213.67973104130942374468,9.47803175959553,0,330.943327127903
738213.67973113176412880421,9.49034089175085,0.0246182643106377,331.127964110233
738213.67973122210241854191,9.49034089175085,0.0369273964659566,331.017181920835
738213.67973131255712360144,9.51495915606148,0.0246182643106377,331.115654978078
738213.67973140301182866096,9.51495915606148,0.0246182643106377,331.127964110233
738213.67973149346653372049,9.49034089175085,0,331.066418449456
738213.67973158392123878002,9.45341349528489,-0.0615456607765943,331.066418449456
738213.67973167437594383955,9.41648609881893,-0.160018718019145,331.066418449456
738213.67973176471423357725,9.35494043804234,-0.246182643106377,331.041800185146
738213.67973185516893863678,9.34263130588702,-0.320037436038291,331.041800185146
738213.67973194562364369631,9.30570390942106,-0.369273964659566,331.103345845922
738213.67973203607834875584,9.30570390942106,-0.369273964659566,331.103345845922
738213.67973212653305381536,9.30570390942106,-0.344655700348928,331.054109317301
738213.67973221698775887489,9.28108564511043,-0.356964832504247,331.115654978078
738213.67973230744246393442,9.26877651295511,-0.344655700348928,331.091036713767
738213.67973239778075367212,9.24415824864447,-0.332346568193609,331.02949105299
738213.67973248823545873165,9.25646738079979,-0.344655700348928,331.078727581612
738213.67973257869016379118,9.26877651295511,-0.369273964659566,331.091036713767
738213.67973266914486885071,9.24415824864447,-0.369273964659566,331.115654978078
738213.67973275959957391024,9.23184911648915,-0.381583096814885,331.017181920835
738213.67973285005427896976,9.24415824864447,-0.406201361125523,331.078727581612
738213.67973294050898402929,9.28108564511043,-0.369273964659566,331.115654978078
738213.67973303084727376699,9.28108564511043,-0.43081962543616,331.054109317301
738213.67973312130197882652,9.26877651295511,-0.443128757591479,331.041800185146
738213.67973321175668388605,9.26877651295511,-0.418510493280842,331.054109317301
738213.67973330221138894558,9.26877651295511,-0.43081962543616,331.02949105299
738213.67973339266609400511,9.28108564511043,-0.418510493280842,330.943327127903
738213.67973348312079906464,9.26877651295511,-0.418510493280842,331.02949105299
738213.67973357345908880234,9.23184911648915,-0.443128757591479,331.02949105299
738213.67973366391379386187,9.25646738079979,-0.418510493280842,330.980254524369
738213.67973375436849892139,9.21953998433383,-0.418510493280842,330.992563656524
738213.67973384482320398092,9.23184911648915,-0.443128757591479,330.967945392214
738213.67973393527790904045,9.19492172002319,-0.43081962543616,330.955636260058
738213.67973402573261409998,9.20723085217851,-0.455437889746798,330.943327127903
738213.67973411618731915951,9.20723085217851,-0.43081962543616,330.955636260058
738213.67973420652560889721,9.19492172002319,-0.443128757591479,330.992563656524
738213.67973429698031395674,9.18261258786788,-0.443128757591479,330.931017995748
738213.67973438743501901627,9.20723085217851,-0.43081962543616,330.967945392214
738213.67973447788972407579,9.20723085217851,-0.43081962543616,330.992563656524
738213.67973456834442913532,9.20723085217851,-0.443128757591479,330.869472334971
738213.67973465879913419485,9.23184911648915,-0.443128757591479,331.017181920835
738213.67973474913742393255,9.18261258786788,-0.455437889746798,331.054109317301
738213.67973483959212899208,9.20723085217851,-0.467747021902117,331.054109317301
738213.67973493004683405161,9.18261258786788,-0.467747021902117,330.967945392214
738213.67973502050153911114,9.18261258786788,-0.492365286212755,331.017181920835
738213.67973511095624417067,9.17030345571256,-0.480056154057436,331.017181920835
738213.67973520141094923019,9.19492172002319,-0.443128757591479,330.980254524369
738213.67973529186565428972,9.21953998433383,-0.443128757591479,330.992563656524
738213.67973538220394402742,9.25646738079979,-0.406201361125523,331.054109317301
738213.67973547265864908695,9.23184911648915,-0.406201361125523,331.00487278868
738213.67973556311335414648,9.20723085217851,-0.418510493280842,331.02949105299
738213.67973565356805920601,9.19492172002319,-0.43081962543616,331.054109317301
738213.67973574402276426554,9.21953998433383,-0.443128757591479,331.054109317301
738213.67973583447746932507,9.1333760592466,-0.455437889746798,331.054109317301
738213.67973592481575906277,9.17030345571256,-0.516983550523392,331.078727581612
738213.67973601527046412230,9.15799432355724,-0.480056154057436,331.078727581612
738213.67973610572516918182,9.1333760592466,-0.492365286212755,331.017181920835
738213.67973619617987424135,9.10875779493596,-0.54160181483403,331.02949105299
738213.67973628663457930088,9.1333760592466,-0.529292682678711,331.054109317301
738213.67973637708928436041,9.1333760592466,-0.590838343455306,331.02949105299
738213.67973646754398941994,9.1333760592466,-0.566220079144668,330.967945392214
738213.67973655788227915764,9.09644866278064,-0.689311400697857,331.017181920835
738213.67973664833698421717,9.03490300200405,-0.726238797163813,331.00487278868
738213.67973673879168927670,9.19492172002319,-0.480056154057436,331.017181920835
738213.67973682924639433622,9.50265002390617,0.135400453708508,330.992563656524
738213.67973691970109939575,9.76114179916786,0.640074872076581,330.746381013418
738213.67973701015580445528,9.44110436312957,0.295419171727653,330.82023580635
738213.67973710049409419298,9.10875779493596,-0.54160181483403,330.746381013418
738213.67973719094879925251,8.96104820907214,-0.923184911648915,330.869472334971
738213.67973728140350431204,8.91181168045086,-0.837020986561683,330.967945392214
738213.67973737185820937157,9.04721213415937,-0.6523840042319,331.00487278868
738213.67973746231291443110,9.15799432355724,-0.590838343455306,331.02949105299
738213.67973755276761949062,9.14568519140192,-0.566220079144668,331.00487278868
738213.67973764322232455015,9.1333760592466,-0.603147475610625,330.894090599282
738213.67973773356061428785,9.17030345571256,-0.590838343455306,330.894090599282
738213.67973782401531934738,9.14568519140192,-0.578529211299987,330.955636260058
738213.67973791447002440691,9.09644866278064,-0.566220079144668,330.967945392214
738213.67973800492472946644,9.12106692709128,-0.566220079144668,330.881781467126
738213.67973809537943452597,9.17030345571256,-0.553910946989349,330.844854070661
738213.67973818583413958549,9.14568519140192,-0.553910946989349,330.980254524369
738213.67973827628884464502,9.12106692709128,-0.566220079144668,330.967945392214
738213.67973836662713438272,9.1333760592466,-0.566220079144668,330.955636260058
738213.67973845708183944225,9.15799432355724,-0.578529211299987,330.980254524369
738213.67973854753654450178,9.10875779493596,-0.54160181483403,331.00487278868
738213.67973863799124956131,9.12106692709128,-0.529292682678711,330.980254524369
738213.67973872844595462084,9.17030345571256,-0.529292682678711,330.992563656524
738213.67973881890065968037,9.18261258786788,-0.492365286212755,331.00487278868
738213.67973890923894941807,9.17030345571256,-0.467747021902117,331.017181920835
738213.67973899969365447760,9.17030345571256,-0.43081962543616,331.017181920835
738213.67973909014835953712,9.18261258786788,-0.406201361125523,330.980254524369
738213.67973918060306459665,9.21953998433383,-0.356964832504247,331.00487278868
738213.67973927105776965618,9.20723085217851,-0.344655700348928,331.00487278868
738213.67973936151247471571,9.24415824864447,-0.283110039572334,330.967945392214
738213.67973945196717977524,9.26877651295511,-0.233873510951058,331.00487278868
738213.67973954230546951294,9.3303221737317,-0.147709585863826,331.041800185146
738213.67973963276017457247,9.3303221737317,-0.0984730572425509,331.078727581612
738213.67973972321487963200,9.34263130588702,-0.0984730572425509,331.115654978078
738213.67973981366958469152,9.34263130588702,-0.0492365286212755,331.127964110233
738213.67973990412428975105,9.37955870235298,-0.0123091321553189,331.140273242388
738213.67973999457899481058,9.40417696666361,0.0615456607765943,331.103345845922
738213.67974008491728454828,9.41648609881893,0.0984730572425509,331.054109317301
738213.67974017537198960781,9.42879523097425,0.0738547929319132,331.066418449456
738213.67974026582669466734,9.41648609881893,0.0369273964659566,331.041800185146
738213.67974035628139972687,9.40417696666361,-0.0246182643106377,330.931017995748
738213.67974044673610478640,9.37955870235298,-0.0615456607765943,331.00487278868
738213.67974053719080984592,9.28108564511043,-0.147709585863826,330.906399731437
738213.67974062764551490545,9.24415824864447,-0.196946114485102,330.931017995748
738213.67974071798380464315,9.20723085217851,-0.246182643106377,330.955636260058
738213.67974080843850970268,9.17030345571256,-0.283110039572334,330.992563656524
738213.67974089889321476221,9.14568519140192,-0.332346568193609,330.955636260058
738213.67974098934791982174,9.12106692709128,-0.369273964659566,330.906399731437
738213.67974107980262488127,9.09644866278064,-0.406201361125523,330.931017995748
738213.67974117025732994080,9.09644866278064,-0.406201361125523,331.00487278868
738213.67974126059561967850,9.09644866278064,-0.467747021902117,331.066418449456
738213.67974135105032473803,9.09644866278064,-0.492365286212755,331.078727581612
738213.67974144150502979755,9.10875779493596,-0.516983550523392,331.091036713767
738213.67974153195973485708,9.14568519140192,-0.529292682678711,331.091036713767
738213.67974162241443991661,9.10875779493596,-0.54160181483403,330.980254524369
738213.67974171286914497614,9.10875779493596,-0.54160181483403,331.115654978078
738213.67974180332385003567,9.12106692709128,-0.54160181483403,331.103345845922
738213.67974189366213977337,9.09644866278064,-0.553910946989349,331.103345845922
738213.67974198411684483290,9.12106692709128,-0.504674418368074,331.127964110233
738213.67974207457154989243,9.10875779493596,-0.492365286212755,331.152582374543
738213.67974216502625495195,9.10875779493596,-0.480056154057436,331.041800185146
738213.67974225548096001148,9.12106692709128,-0.455437889746798,331.02949105299
738213.67974234593566507101,9.12106692709128,-0.443128757591479,331.017181920835
738213.67974243639037013054,9.1333760592466,-0.43081962543616,331.017181920835
738213.67974252672865986824,9.12106692709128,-0.443128757591479,331.017181920835
738213.67974261718336492777,9.12106692709128,-0.43081962543616,330.992563656524
738213.67974270763806998730,9.12106692709128,-0.43081962543616,331.078727581612
738213.67974279809277504683,9.10875779493596,-0.455437889746798,331.041800185146
738213.67974288854748010635,9.10875779493596,-0.443128757591479,331.041800185146
738213.67974297900218516588,9.09644866278064,-0.455437889746798,331.02949105299
738213.67974306934047490358,9.09644866278064,-0.455437889746798,331.115654978078
738213.67974315979517996311,9.08413953062532,-0.455437889746798,331.103345845922
738213.67974325024988502264,9.07183039847001,-0.467747021902117,331.066418449456
738213.67974334070459008217,9.07183039847001,-0.467747021902117,331.115654978078
738213.67974343115929514170,9.05952126631469,-0.480056154057436,331.140273242388
738213.67974352161400020123,9.05952126631469,-0.480056154057436,331.140273242388
738213.67974361206870526075,9.05952126631469,-0.480056154057436,331.127964110233
738213.67974370240699499846,9.08413953062532,-0.467747021902117,331.103345845922
738213.67974379286170005798,9.10875779493596,-0.467747021902117,331.00487278868
738213.67974388331640511751,9.10875779493596,-0.467747021902117,331.078727581612
738213.67974397377111017704,9.12106692709128,-0.455437889746798,331.091036713767
738213.67974406422581523657,9.10875779493596,-0.455437889746798,331.017181920835
738213.67974415468052029610,9.1333760592466,-0.43081962543616,331.078727581612
738213.67974424501881003380,9.12106692709128,-0.43081962543616,331.091036713767
738213.67974433547351509333,9.12106692709128,-0.406201361125523,331.103345845922
738213.67974442592822015285,9.12106692709128,-0.406201361125523,331.140273242388
738213.67974451638292521238,9.08413953062532,-0.43081962543616,331.164891506699
738213.67974460683763027191,9.08413953062532,-0.455437889746798,331.164891506699
738213.67974469729233533144,9.05952126631469,-0.467747021902117,331.115654978078
738213.67974478774704039097,9.05952126631469,-0.492365286212755,331.140273242388
738213.67974487808533012867,9.05952126631469,-0.504674418368074,331.164891506699
738213.67974496854003518820,9.05952126631469,-0.504674418368074,331.127964110233
738213.67974505899474024773,9.04721213415937,-0.504674418368074,331.066418449456
738213.67974514944944530725,9.04721213415937,-0.516983550523392,330.931017995748
738213.67974523990415036678,9.04721213415937,-0.516983550523392,331.041800185146
738213.67974533035885542631,9.04721213415937,-0.529292682678711,331.091036713767
738213.67974542069714516401,9.01028473769341,-0.6523840042319,331.017181920835
738213.67974551115185022354,9.03490300200405,-0.689311400697857,331.078727581612
738213.67974560160655528307,9.17030345571256,-0.381583096814885,331.091036713767
738213.67974569206126034260,9.42879523097425,0.11078218939787,330.931017995748
738213.67974578251596540213,9.73652353485722,0.640074872076581,330.770999277729
738213.67974587297067046165,9.3303221737317,0.233873510951058,330.967945392214
738213.67974596342537552118,8.94873907691682,-0.590838343455306,331.041800185146
738213.67974605376366525888,8.78872035889767,-0.935494043804234,331.078727581612
738213.67974614421837031841,8.92412081260618,-0.713929665008494,331.017181920835
738213.67974623467307537794,9.04721213415937,-0.566220079144668,331.066418449456
738213.67974632512778043747,9.08413953062532,-0.553910946989349,331.078727581612
738213.67974641558248549700,9.07183039847001,-0.566220079144668,331.103345845922
738213.67974650603719055653,9.09644866278064,-0.553910946989349,331.091036713767
738213.67974659637548029423,9.08413953062532,-0.553910946989349,331.091036713767
738213.67974668683018535376,9.07183039847001,-0.566220079144668,331.103345845922
738213.67974677728489041328,9.09644866278064,-0.553910946989349,331.066418449456
738213.67974686773959547281,9.08413953062532,-0.553910946989349,331.115654978078
738213.67974695819430053234,9.08413953062532,-0.553910946989349,331.152582374543
738213.67974704864900559187,9.07183039847001,-0.54160181483403,331.127964110233
738213.67974713910371065140,9.08413953062532,-0.54160181483403,331.091036713767
738213.67974722944200038910,9.10875779493596,-0.504674418368074,331.127964110233
738213.67974731989670544863,9.1333760592466,-0.492365286212755,331.127964110233
738213.67974741035141050816,9.1333760592466,-0.492365286212755,331.164891506699
738213.67974750080611556768,9.1333760592466,-0.467747021902117,331.091036713767
738213.67974759126082062721,9.15799432355724,-0.455437889746798,331.115654978078
738213.67974768171552568674,9.15799432355724,-0.443128757591479,331.066418449456
738213.67974777217023074627,9.17030345571256,-0.443128757591479,331.140273242388
738213.67974786250852048397,9.18261258786788,-0.393892228970204,331.201818903165
738213.67974795296322554350,9.18261258786788,-0.369273964659566,331.127964110233
738213.67974804341793060303,9.19492172002319,-0.356964832504247,331.140273242388
738213.67974813387263566256,9.21953998433383,-0.307728303882972,331.164891506699
738213.67974822432734072208,9.24415824864447,-0.283110039572334,331.140273242388
738213.67974831478204578161,9.26877651295511,-0.246182643106377,331.078727581612
738213.67974840512033551931,9.26877651295511,-0.233873510951058,331.140273242388
738213.67974849557504057884,9.28108564511043,-0.22156437879574,331.226437167475
738213.67974858602974563837,9.28108564511043,-0.209255246640421,331.189509771009
738213.67974867648445069790,9.28108564511043,-0.196946114485102,331.066418449456
738213.67974876693915575743,9.28108564511043,-0.172327850174464,331.201818903165
738213.67974885739386081696,9.26877651295511,-0.160018718019145,331.189509771009
738213.67974894784856587648,9.26877651295511,-0.184636982329783,331.127964110233
738213.67974903818685561419,9.25646738079979,-0.172327850174464,331.189509771009
738213.67974912864156067371,9.24415824864447,-0.209255246640421,331.140273242388
738213.67974921909626573324,9.20723085217851,-0.258491775261696,331.066418449456
738213.67974930955097079277,9.17030345571256,-0.307728303882972,331.103345845922
738213.67974940000567585230,9.1333760592466,-0.369273964659566,331.066418449456
738213.67974949046038091183,9.10875779493596,-0.406201361125523,331.078727581612
738213.67974958079867064953,9.09644866278064,-0.43081962543616,331.054109317301
738213.67974967125337570906,9.09644866278064,-0.443128757591479,331.091036713767
738213.67974976170808076859,9.09644866278064,-0.455437889746798,331.091036713767
738213.67974985216278582811,9.08413953062532,-0.443128757591479,331.140273242388
738213.67974994261749088764,9.07183039847001,-0.443128757591479,331.054109317301
738213.67975003307219594717,9.05952126631469,-0.455437889746798,331.103345845922
738213.67975012352690100670,9.07183039847001,-0.467747021902117,331.078727581612
738213.67975021386519074440,9.07183039847001,-0.443128757591479,331.078727581612
738213.67975030431989580393,9.07183039847001,-0.467747021902117,331.115654978078
738213.67975039477460086346,9.08413953062532,-0.480056154057436,331.041800185146
738213.67975048522930592299,9.07183039847001,-0.480056154057436,331.066418449456
738213.67975057568401098251,9.08413953062532,-0.480056154057436,331.078727581612
738213.67975066613871604204,9.04721213415937,-0.492365286212755,331.127964110233
738213.67975075647700577974,9.05952126631469,-0.504674418368074,331.140273242388
738213.67975084693171083927,9.07183039847001,-0.504674418368074,331.041800185146
738213.67975093738641589880,9.03490300200405,-0.529292682678711,331.152582374543
738213.67975102784112095833,9.05952126631469,-0.529292682678711,331.177200638854
738213.67975111829582601786,9.05952126631469,-0.529292682678711,331.078727581612
738213.67975120875053107738,9.05952126631469,-0.54160181483403,331.103345845922
738213.67975129920523613691,9.05952126631469,-0.54160181483403,331.115654978078
738213.67975138954352587461,9.07183039847001,-0.529292682678711,331.152582374543
738213.67975147999823093414,9.05952126631469,-0.529292682678711,331.115654978078
738213.67975157045293599367,9.05952126631469,-0.529292682678711,331.140273242388
738213.67975166090764105320,9.04721213415937,-0.54160181483403,331.140273242388
738213.67975175136234611273,9.03490300200405,-0.553910946989349,331.066418449456
738213.67975184181705117226,9.03490300200405,-0.54160181483403,331.115654978078
738213.67975193215534090996,9.03490300200405,-0.529292682678711,331.115654978078
738213.67975202261004596949,9.04721213415937,-0.529292682678711,331.127964110233
738213.67975211306475102901,9.03490300200405,-0.516983550523392,331.041800185146
738213.67975220351945608854,9.04721213415937,-0.516983550523392,330.992563656524
738213.67975229397416114807,9.04721213415937,-0.504674418368074,331.066418449456
738213.67975238442886620760,9.04721213415937,-0.516983550523392,331.054109317301
738213.67975247488357126713,9.04721213415937,-0.516983550523392,331.078727581612
738213.67975256522186100483,9.05952126631469,-0.516983550523392,331.066418449456
738213.67975265567656606436,9.05952126631469,-0.516983550523392,331.066418449456
738213.67975274613127112389,9.05952126631469,-0.529292682678711,331.091036713767
738213.67975283658597618341,9.07183039847001,-0.516983550523392,331.127964110233
738213.67975292704068124294,9.05952126631469,-0.516983550523392,331.115654978078
738213.67975301749538630247,9.07183039847001,-0.492365286212755,331.00487278868
738213.67975310795009136200,9.09644866278064,-0.480056154057436,331.066418449456
738213.67975319828838109970,9.07183039847001,-0.455437889746798,331.140273242388
738213.67975328874308615923,9.04721213415937,-0.467747021902117,331.152582374543
738213.67975337919779121876,9.03490300200405,-0.467747021902117,331.078727581612
738213.67975346965249627829,9.01028473769341,-0.492365286212755,331.177200638854
738213.67975356010720133781,8.99797560553809,-0.504674418368074,331.164891506699
738213.67975365056190639734,9.01028473769341,-0.504674418368074,331.177200638854
738213.67975374090019613504,9.01028473769341,-0.504674418368074,331.140273242388
738213.67975383135490119457,9.01028473769341,-0.504674418368074,331.164891506699
738213.67975392180960625410,9.01028473769341,-0.492365286212755,331.189509771009
738213.67975401226431131363,9.01028473769341,-0.480056154057436,331.066418449456
738213.67975410271901637316,9.01028473769341,-0.492365286212755,331.152582374543
738213.67975419317372143269,8.98566647338277,-0.504674418368074,331.152582374543
738213.67975428362842649221,8.97335734122746,-0.54160181483403,331.066418449456
738213.67975437396671622992,8.9364299447615,-0.689311400697857,331.115654978078
738213.67975446442142128944,9.01028473769341,-0.578529211299987,331.066418449456
738213.67975455487612634897,9.20723085217851,-0.160018718019145,331.02949105299
738213.67975464533083140850,9.5272682882168,0.369273964659566,330.857163202816
738213.67975473578553646803,9.47803175959553,0.578529211299987,330.943327127903
738213.67975482624024152756,9.08413953062532,-0.123091321553189,331.041800185146
738213.67975491657853126526,8.77641122674235,-0.800093590095726,331.02949105299
738213.67975500703323632479,8.76410209458703,-0.837020986561683,331.091036713767
738213.67975509748794138432,8.94873907691682,-0.590838343455306,331.103345845922
738213.67975518794264644384,8.99797560553809,-0.504674418368074,331.066418449456
738213.67975527839735150337,9.01028473769341,-0.492365286212755,331.091036713767
738213.67975536885205656290,9.02259386984873,-0.492365286212755,331.115654978078
738213.67975545930676162243,9.03490300200405,-0.492365286212755,331.140273242388
738213.67975554964505136013,9.03490300200405,-0.492365286212755,331.041800185146
738213.67975564009975641966,9.03490300200405,-0.492365286212755,331.054109317301
738213.67975573055446147919,9.03490300200405,-0.492365286212755,330.980254524369
738213.67975582100916653872,9.03490300200405,-0.480056154057436,331.02949105299
738213.67975591146387159824,9.03490300200405,-0.455437889746798,331.078727581612
738213.67975600191857665777,9.03490300200405,-0.467747021902117,331.078727581612
738213.67975609225686639547,9.02259386984873,-0.467747021902117,331.054109317301
738213.67975618271157145500,9.04721213415937,-0.467747021902117,331.103345845922
738213.67975627316627651453,9.03490300200405,-0.480056154057436,331.103345845922
738213.67975636362098157406,9.04721213415937,-0.492365286212755,331.189509771009
738213.67975645407568663359,9.04721213415937,-0.480056154057436,331.152582374543
738213.67975654453039169312,9.07183039847001,-0.467747021902117,331.091036713767
738213.67975663498509675264,9.07183039847001,-0.443128757591479,331.091036713767
738213.67975672532338649035,9.09644866278064,-0.418510493280842,331.041800185146
738213.67975681577809154987,9.10875779493596,-0.369273964659566,331.066418449456
738213.67975690623279660940,9.12106692709128,-0.344655700348928,331.041800185146
738213.67975699668750166893,9.1333760592466,-0.320037436038291,331.02949105299
738213.67975708714220672846,9.14568519140192,-0.307728303882972,331.041800185146
738213.67975717759691178799,9.17030345571256,-0.283110039572334,331.066418449456
738213.67975726805161684752,9.18261258786788,-0.233873510951058,331.091036713767
738213.67975735838990658522,9.19492172002319,-0.209255246640421,331.091036713767
738213.67975744884461164474,9.19492172002319,-0.184636982329783,331.103345845922
738213.67975753929931670427,9.20723085217851,-0.172327850174464,331.078727581612
738213.67975762975402176380,9.20723085217851,-0.172327850174464,331.115654978078
738213.67975772020872682333,9.20723085217851,-0.160018718019145,331.127964110233
738213.67975781066343188286,9.20723085217851,-0.172327850174464,331.091036713767
738213.67975790100172162056,9.20723085217851,-0.172327850174464,331.127964110233
738213.67975799145642668009,9.20723085217851,-0.196946114485102,331.103345845922
738213.67975808191113173962,9.19492172002319,-0.258491775261696,331.041800185146
738213.67975817236583679914,9.15799432355724,-0.295419171727653,331.02949105299
738213.67975826282054185867,9.1333760592466,-0.356964832504247,331.02949105299
738213.67975835327524691820,9.09644866278064,-0.393892228970204,331.017181920835
738213.67975844372995197773,9.07183039847001,-0.43081962543616,331.017181920835
738213.67975853406824171543,9.07183039847001,-0.455437889746798,331.066418449456
738213.67975862452294677496,9.07183039847001,-0.467747021902117,331.017181920835
738213.67975871497765183449,9.07183039847001,-0.480056154057436,331.078727581612
738213.67975880543235689402,9.04721213415937,-0.492365286212755,331.078727581612
738213.67975889588706195354,9.07183039847001,-0.480056154057436,331.066418449456
738213.67975898634176701307,9.07183039847001,-0.480056154057436,331.041800185146
738213.67975907668005675077,9.07183039847001,-0.492365286212755,331.041800185146
738213.67975916713476181030,9.05952126631469,-0.492365286212755,331.017181920835
738213.67975925758946686983,9.04721213415937,-0.504674418368074,331.00487278868
738213.67975934804417192936,9.05952126631469,-0.492365286212755,331.103345845922
738213.67975943849887698889,9.07183039847001,-0.504674418368074,331.041800185146
738213.67975952895358204842,9.05952126631469,-0.516983550523392,331.127964110233
738213.67975961940828710794,9.05952126631469,-0.516983550523392,331.140273242388
738213.67975970974657684565,9.04721213415937,-0.529292682678711,331.164891506699
738213.67975980020128190517,9.03490300200405,-0.516983550523392,331.127964110233
738213.67975989065598696470,9.04721213415937,-0.516983550523392,331.140273242388
738213.67975998111069202423,9.05952126631469,-0.516983550523392,331.152582374543
738213.67976007156539708376,9.04721213415937,-0.480056154057436,331.103345845922
738213.67976016202010214329,9.04721213415937,-0.480056154057436,331.078727581612
738213.67976025235839188099,9.03490300200405,-0.455437889746798,331.041800185146
738213.67976034281309694052,9.03490300200405,-0.455437889746798,331.02949105299
738213.67976043326780200005,9.05952126631469,-0.443128757591479,331.02949105299
738213.67976052372250705957,9.05952126631469,-0.455437889746798,331.02949105299
738213.67976061417721211910,9.04721213415937,-0.467747021902117,331.02949105299
738213.67976070463191717863,9.04721213415937,-0.455437889746798,331.02949105299
738213.67976079508662223816,9.03490300200405,-0.455437889746798,330.955636260058
738213.67976088542491197586,9.04721213415937,-0.467747021902117,331.066418449456
738213.67976097587961703539,9.04721213415937,-0.455437889746798,331.078727581612
738213.67976106633432209492,9.04721213415937,-0.455437889746798,331.152582374543
738213.67976115678902715445,9.03490300200405,-0.455437889746798,331.091036713767
738213.67976124724373221397,9.03490300200405,-0.480056154057436,331.115654978078
738213.67976133769843727350,9.01028473769341,-0.480056154057436,331.140273242388
738213.67976142803672701120,9.01028473769341,-0.480056154057436,331.091036713767
738213.67976151849143207073,9.02259386984873,-0.480056154057436,331.115654978078
738213.67976160894613713026,9.02259386984873,-0.480056154057436,331.127964110233
738213.67976169940084218979,9.01028473769341,-0.467747021902117,331.041800185146
738213.67976178985554724932,9.04721213415937,-0.467747021902117,331.054109317301
738213.67976188031025230885,9.05952126631469,-0.467747021902117,331.054109317301
738213.67976197076495736837,9.05952126631469,-0.467747021902117,330.992563656524
738213.67976206110324710608,9.07183039847001,-0.443128757591479,330.980254524369
738213.67976215155795216560,9.08413953062532,-0.406201361125523,330.992563656524
738213.67976224201265722513,9.07183039847001,-0.393892228970204,331.02949105299
738213.67976233246736228466,9.05952126631469,-0.393892228970204,331.00487278868
738213.67976242292206734419,9.05952126631469,-0.406201361125523,331.066418449456
738213.67976251337677240372,9.02259386984873,-0.443128757591479,331.017181920835
738213.67976260383147746325,8.99797560553809,-0.480056154057436,330.992563656524
738213.67976269416976720095,8.99797560553809,-0.504674418368074,330.980254524369
738213.67976278462447226048,8.99797560553809,-0.54160181483403,330.918708863592
738213.67976287507917732000,8.98566647338277,-0.553910946989349,331.00487278868
738213.67976296553388237953,8.98566647338277,-0.553910946989349,331.054109317301
738213.67976305598858743906,8.98566647338277,-0.54160181483403,331.041800185146
738213.67976314644329249859,8.99797560553809,-0.54160181483403,331.066418449456
738213.67976323678158223629,8.98566647338277,-0.516983550523392,331.054109317301
738213.67976332723628729582,8.96104820907214,-0.603147475610625,331.054109317301
738213.67976341769099235535,8.94873907691682,-0.677002268542538,331.078727581612
738213.67976350814569741488,9.05952126631469,-0.467747021902117,331.091036713767
738213.67976359860040247440,9.28108564511043,0.0123091321553189,331.00487278868
738213.67976368905510753393,9.5888139489934,0.529292682678711,330.709453616952
738213.67976377950981259346,9.34263130588702,0.443128757591479,330.894090599282
738213.67976386984810233116,8.97335734122746,-0.369273964659566,330.955636260058
738213.67976396030280739069,8.76410209458703,-0.824711854406364,330.980254524369
738213.67976405075751245022,8.83795688751895,-0.701620532853175,331.017181920835
738213.67976414121221750975,8.94873907691682,-0.553910946989349,331.054109317301
738213.67976423166692256927,9.03490300200405,-0.467747021902117,331.041800185146
738213.67976432212162762880,9.03490300200405,-0.467747021902117,331.054109317301
738213.67976441245991736650,9.02259386984873,-0.467747021902117,331.054109317301
738213.67976450291462242603,9.05952126631469,-0.443128757591479,331.078727581612
738213.67976459336932748556,9.05952126631469,-0.443128757591479,331.091036713767
738213.67976468382403254509,9.04721213415937,-0.443128757591479,331.115654978078
738213.67976477427873760462,9.05952126631469,-0.393892228970204,331.115654978078
738213.67976486473344266415,9.08413953062532,-0.406201361125523,331.091036713767
738213.67976495518814772367,9.08413953062532,-0.406201361125523,331.078727581612
738213.67976504552643746138,9.08413953062532,-0.393892228970204,331.115654978078
738213.67976513598114252090,9.09644866278064,-0.455437889746798,331.127964110233
738213.67976522643584758043,9.10875779493596,-0.418510493280842,331.066418449456
738213.67976531689055263996,9.12106692709128,-0.393892228970204,331.152582374543
738213.67976540734525769949,9.12106692709128,-0.393892228970204,331.140273242388
738213.67976549779996275902,9.1333760592466,-0.369273964659566,331.152582374543
738213.67976558813825249672,9.14568519140192,-0.344655700348928,331.103345845922
738213.67976567859295755625,9.14568519140192,-0.295419171727653,331.189509771009
738213.67976576904766261578,9.17030345571256,-0.270800907417015,331.164891506699
738213.67976585950236767530,9.18261258786788,-0.258491775261696,331.189509771009
738213.67976594995707273483,9.17030345571256,-0.233873510951058,331.164891506699
738213.67976604041177779436,9.18261258786788,-0.246182643106377,331.177200638854
738213.67976613086648285389,9.19492172002319,-0.233873510951058,331.140273242388
738213.67976622120477259159,9.19492172002319,-0.196946114485102,331.054109317301
738213.67976631165947765112,9.23184911648915,-0.172327850174464,331.054109317301
738213.67976640211418271065,9.23184911648915,-0.172327850174464,331.091036713767
738213.67976649256888777018,9.26877651295511,-0.135400453708508,331.103345845922
738213.67976658302359282970,9.25646738079979,-0.135400453708508,331.078727581612
738213.67976667347829788923,9.26877651295511,-0.11078218939787,331.189509771009
738213.67976676381658762693,9.28108564511043,-0.0984730572425509,331.127964110233
738213.67976685427129268646,9.29339477726574,-0.0984730572425509,331.140273242388
738213.67976694472599774599,9.30570390942106,-0.0984730572425509,331.177200638854
738213.67976703518070280552,9.30570390942106,-0.147709585863826,331.127964110233
738213.67976712563540786505,9.25646738079979,-0.184636982329783,331.115654978078
738213.67976721609011292458,9.21953998433383,-0.246182643106377,331.091036713767
738213.67976730654481798410,9.15799432355724,-0.295419171727653,331.02949105299
738213.67976739688310772181,9.17030345571256,-0.356964832504247,331.02949105299
738213.67976748733781278133,9.1333760592466,-0.406201361125523,330.943327127903
738213.67976757779251784086,9.1333760592466,-0.43081962543616,330.955636260058
738213.67976766824722290039,9.09644866278064,-0.443128757591479,331.017181920835
738213.67976775870192795992,9.12106692709128,-0.455437889746798,331.017181920835
738213.67976784915663301945,9.09644866278064,-0.443128757591479,331.00487278868
738213.67976793961133807898,9.07183039847001,-0.480056154057436,331.041800185146
738213.67976802994962781668,9.08413953062532,-0.467747021902117,331.054109317301
738213.67976812040433287621,9.10875779493596,-0.467747021902117,331.00487278868
738213.67976821085903793573,9.10875779493596,-0.455437889746798,331.02949105299
738213.67976830131374299526,9.10875779493596,-0.467747021902117,330.967945392214
738213.67976839176844805479,9.1333760592466,-0.455437889746798,331.066418449456
738213.67976848222315311432,9.12106692709128,-0.467747021902117,331.078727581612
738213.67976857256144285202,9.14568519140192,-0.406201361125523,331.041800185146
738213.67976866301614791155,9.14568519140192,-0.406201361125523,331.02949105299
738213.67976875347085297108,9.14568519140192,-0.418510493280842,331.066418449456
738213.67976884392555803061,9.12106692709128,-0.418510493280842,330.943327127903
738213.67976893438026309013,9.1333760592466,-0.43081962543616,330.955636260058
738213.67976902483496814966,9.12106692709128,-0.43081962543616,331.078727581612
738213.67976911528967320919,9.12106692709128,-0.418510493280842,331.091036713767
738213.67976920562796294689,9.10875779493596,-0.418510493280842,331.103345845922
738213.67976929608266800642,9.10875779493596,-0.418510493280842,331.103345845922
738213.67976938653737306595,9.12106692709128,-0.43081962543616,331.115654978078
738213.67976947699207812548,9.12106692709128,-0.43081962543616,331.127964110233
738213.67976956744678318501,9.10875779493596,-0.43081962543616,331.140273242388
738213.67976965790148824453,9.10875779493596,-0.418510493280842,331.066418449456
738213.67976974823977798223,9.10875779493596,-0.43081962543616,331.091036713767
738213.67976983869448304176,9.10875779493596,-0.43081962543616,331.02949105299
738213.67976992914918810129,9.10875779493596,-0.43081962543616,331.103345845922
738213.67977001960389316082,9.09644866278064,-0.43081962543616,331.177200638854
738213.67977011005859822035,9.10875779493596,-0.406201361125523,331.177200638854
738213.67977020051330327988,9.09644866278064,-0.418510493280842,331.127964110233
738213.67977029096800833941,9.08413953062532,-0.43081962543616,331.091036713767
738213.67977038130629807711,9.10875779493596,-0.406201361125523,331.091036713767
738213.67977047176100313663,9.09644866278064,-0.406201361125523,331.091036713767
738213.67977056221570819616,9.09644866278064,-0.406201361125523,331.091036713767
738213.67977065267041325569,9.09644866278064,-0.418510493280842,331.127964110233
738213.67977074312511831522,9.12106692709128,-0.418510493280842,331.091036713767
738213.67977083357982337475,9.09644866278064,-0.43081962543616,330.980254524369
738213.67977092391811311245,9.10875779493596,-0.443128757591479,331.041800185146
738213.67977101437281817198,9.12106692709128,-0.43081962543616,331.017181920835
738213.67977110482752323151,9.12106692709128,-0.43081962543616,330.943327127903
738213.67977119528222829103,9.12106692709128,-0.418510493280842,331.00487278868
738213.67977128573693335056,9.15799432355724,-0.369273964659566,331.00487278868
738213.67977137619163841009,9.15799432355724,-0.356964832504247,330.967945392214
738213.67977146664634346962,9.17030345571256,-0.344655700348928,331.078727581612
738213.67977155698463320732,9.15799432355724,-0.369273964659566,331.091036713767
738213.67977164743933826685,9.1333760592466,-0.393892228970204,331.103345845922
738213.67977173789404332638,9.10875779493596,-0.418510493280842,331.091036713767
738213.67977182834874838591,9.12106692709128,-0.43081962543616,331.02949105299
738213.67977191880345344543,9.09644866278064,-0.443128757591479,331.091036713767
738213.67977200925815850496,9.10875779493596,-0.455437889746798,331.066418449456
738213.67977209971286356449,9.10875779493596,-0.443128757591479,331.054109317301
738213.67977219005115330219,9.12106692709128,-0.443128757591479,331.103345845922
738213.67977228050585836172,9.10875779493596,-0.455437889746798,331.140273242388
738213.67977237096056342125,9.09644866278064,-0.43081962543616,331.140273242388
738213.67977246141526848078,9.05952126631469,-0.529292682678711,331.054109317301
738213.67977255186997354031,9.04721213415937,-0.615456607765943,331.103345845922
738213.67977264232467859983,9.1333760592466,-0.381583096814885,331.189509771009
738213.67977273266296833754,9.36724957019766,0.123091321553189,331.152582374543
738213.67977282311767339706,9.50265002390617,0.393892228970204,330.894090599282
738213.67977291357237845659,9.5272682882168,0.6523840042319,330.869472334971
738213.67977300402708351612,9.19492172002319,0.0492365286212755,330.955636260058
738213.67977309448178857565,8.85026601967427,-0.701620532853175,330.992563656524
738213.67977318493649363518,8.80102949105299,-0.812402722251045,330.980254524369
738213.67977327539119869471,9.01028473769341,-0.54160181483403,330.955636260058
738213.67977336572948843241,9.08413953062532,-0.43081962543616,330.918708863592
738213.67977345618419349194,9.09644866278064,-0.393892228970204,330.992563656524
738213.67977354663889855146,9.09644866278064,-0.381583096814885,331.066418449456
738213.67977363709360361099,9.05952126631469,-0.356964832504247,331.078727581612
738213.67977372754830867052,9.05952126631469,-0.381583096814885,331.091036713767
738213.67977381800301373005,9.07183039847001,-0.393892228970204,331.103345845922
738213.67977390834130346775,9.07183039847001,-0.393892228970204,331.140273242388
738213.67977399879600852728,9.04721213415937,-0.369273964659566,331.115654978078
738213.67977408925071358681,9.04721213415937,-0.393892228970204,331.091036713767
738213.67977417970541864634,9.07183039847001,-0.393892228970204,331.140273242388
738213.67977427016012370586,9.04721213415937,-0.381583096814885,331.177200638854
738213.67977436061482876539,9.04721213415937,-0.381583096814885,331.066418449456
738213.67977445106953382492,9.08413953062532,-0.356964832504247,331.140273242388
738213.67977454140782356262,9.09644866278064,-0.356964832504247,331.152582374543
738213.67977463186252862215,9.09644866278064,-0.356964832504247,331.152582374543
738213.67977472231723368168,9.12106692709128,-0.320037436038291,331.078727581612
738213.67977481277193874121,9.12106692709128,-0.320037436038291,331.091036713767
738213.67977490322664380074,9.14568519140192,-0.295419171727653,331.103345845922
738213.67977499368134886026,9.15799432355724,-0.295419171727653,331.078727581612
738213.67977508401963859797,9.15799432355724,-0.283110039572334,331.127964110233
738213.67977517447434365749,9.17030345571256,-0.246182643106377,331.115654978078
738213.67977526492904871702,9.18261258786788,-0.22156437879574,331.078727581612
738213.67977535538375377655,9.20723085217851,-0.209255246640421,331.091036713767
738213.67977544583845883608,9.21953998433383,-0.184636982329783,331.066418449456
738213.67977553629316389561,9.23184911648915,-0.147709585863826,331.115654978078
738213.67977562674786895514,9.23184911648915,-0.123091321553189,331.041800185146
738213.67977571708615869284,9.23184911648915,-0.123091321553189,331.103345845922
738213.67977580754086375237,9.25646738079979,-0.0861639250872321,331.140273242388
738213.67977589799556881189,9.28108564511043,-0.0738547929319132,331.115654978078
738213.67977598845027387142,9.24415824864447,-0.0738547929319132,331.127964110233
738213.67977607890497893095,9.29339477726574,-0.0861639250872321,331.091036713767
738213.67977616935968399048,9.26877651295511,-0.0984730572425509,331.103345845922
738213.67977625969797372818,9.24415824864447,-0.11078218939787,331.115654978078
738213.67977635015267878771,9.21953998433383,-0.184636982329783,331.091036713767
738213.67977644060738384724,9.20723085217851,-0.209255246640421,331.041800185146
738213.67977653106208890676,9.17030345571256,-0.258491775261696,331.041800185146
738213.67977662151679396629,9.15799432355724,-0.295419171727653,331.041800185146
738213.67977671197149902582,9.15799432355724,-0.320037436038291,331.041800185146
738213.67977680242620408535,9.12106692709128,-0.320037436038291,330.980254524369
738213.67977689276449382305,9.12106692709128,-0.320037436038291,330.967945392214
738213.67977698321919888258,9.1333760592466,-0.320037436038291,331.066418449456
738213.67977707367390394211,9.12106692709128,-0.356964832504247,331.02949105299
738213.67977716412860900164,9.12106692709128,-0.369273964659566,331.078727581612
738213.67977725458331406116,9.09644866278064,-0.381583096814885,331.115654978078
738213.67977734503801912069,9.09644866278064,-0.393892228970204,331.078727581612
738213.67977743549272418022,9.12106692709128,-0.369273964659566,331.078727581612
738213.67977752583101391792,9.10875779493596,-0.369273964659566,331.066418449456
738213.67977761628571897745,9.1333760592466,-0.356964832504247,331.140273242388
738213.67977770674042403698,9.1333760592466,-0.369273964659566,331.127964110233
738213.67977779719512909651,9.12106692709128,-0.381583096814885,331.041800185146
738213.67977788764983415604,9.12106692709128,-0.393892228970204,331.103345845922
738213.67977797810453921556,9.10875779493596,-0.418510493280842,331.091036713767
738213.67977806844282895327,9.10875779493596,-0.418510493280842,331.103345845922
738213.67977815889753401279,9.10875779493596,-0.406201361125523,331.054109317301
738213.67977824935223907232,9.12106692709128,-0.406201361125523,331.127964110233
738213.67977833980694413185,9.08413953062532,-0.393892228970204,331.091036713767
738213.67977843026164919138,9.10875779493596,-0.406201361125523,331.017181920835
738213.67977852071635425091,9.12106692709128,-0.393892228970204,331.078727581612
738213.67977861117105931044,9.09644866278064,-0.406201361125523,331.078727581612
738213.67977870150934904814,9.07183039847001,-0.406201361125523,331.02949105299
738213.67977879196405410767,9.09644866278064,-0.406201361125523,331.078727581612
738213.67977888241875916719,9.08413953062532,-0.393892228970204,331.127964110233
738213.67977897287346422672,9.09644866278064,-0.393892228970204,331.115654978078
738213.67977906332816928625,9.10875779493596,-0.381583096814885,331.140273242388
738213.67977915378287434578,9.09644866278064,-0.393892228970204,331.152582374543
738213.67977924412116408348,9.07183039847001,-0.393892228970204,331.140273242388
738213.67977933457586914301,9.09644866278064,-0.369273964659566,331.041800185146
738213.67977942503057420254,9.07183039847001,-0.393892228970204,331.078727581612
738213.67977951548527926207,9.07183039847001,-0.406201361125523,330.992563656524
738213.67977960593998432159,9.07183039847001,-0.393892228970204,330.992563656524
738213.67977969639468938112,9.07183039847001,-0.381583096814885,330.967945392214
738213.67977978684939444065,9.07183039847001,-0.393892228970204,330.980254524369
738213.67977987718768417835,9.05952126631469,-0.381583096814885,331.02949105299
738213.67977996764238923788,9.05952126631469,-0.381583096814885,331.066418449456
738213.67978005809709429741,9.08413953062532,-0.393892228970204,331.054109317301
738213.67978014855179935694,9.08413953062532,-0.406201361125523,331.02949105299
738213.67978023900650441647,9.10875779493596,-0.369273964659566,331.054109317301
738213.67978032946120947599,9.10875779493596,-0.369273964659566,330.955636260058
738213.67978041979949921370,9.12106692709128,-0.369273964659566,330.943327127903
738213.67978051025420427322,9.15799432355724,-0.332346568193609,331.078727581612
738213.67978060070890933275,9.1333760592466,-0.307728303882972,331.00487278868
738213.67978069116361439228,9.10875779493596,-0.307728303882972,331.078727581612
738213.67978078161831945181,9.09644866278064,-0.332346568193609,331.041800185146
738213.67978087207302451134,9.07183039847001,-0.381583096814885,331.041800185146
738213.67978096252772957087,9.07183039847001,-0.393892228970204,330.980254524369
738213.67978105286601930857,9.07183039847001,-0.418510493280842,331.041800185146
738213.67978114332072436810,9.03490300200405,-0.43081962543616,331.00487278868
738213.67978123377542942762,9.04721213415937,-0.455437889746798,330.992563656524
738213.67978132423013448715,9.03490300200405,-0.443128757591479,331.02949105299
738213.67978141468483954668,9.03490300200405,-0.443128757591479,330.992563656524
738213.67978150513954460621,9.03490300200405,-0.443128757591479,331.00487278868
738213.67978159547783434391,9.02259386984873,-0.455437889746798,331.017181920835
738213.67978168593253940344,8.97335734122746,-0.603147475610625,331.00487278868
738213.67978177638724446297,8.99797560553809,-0.603147475610625,331.091036713767
738213.67978186684194952250,9.12106692709128,-0.270800907417015,331.115654978078
738213.67978195729665458202,9.45341349528489,0.320037436038291,330.967945392214
738213.67978204775135964155,9.56419568468276,0.677002268542538,330.82023580635
738213.67978213820606470108,9.14568519140192,0.172327850174464,330.955636260058
738213.67978222854435443878,8.85026601967427,-0.590838343455306,330.906399731437
738213.67978231899905949831,8.78872035889767,-0.787784457940408,330.967945392214
738213.67978240945376455784,8.9364299447615,-0.54160181483403,331.041800185146
738213.67978249990846961737,9.04721213415937,-0.406201361125523,331.017181920835
738213.67978259036317467690,9.07183039847001,-0.43081962543616,331.054109317301
738213.67978268081787973642,9.07183039847001,-0.406201361125523,331.066418449456
738213.67978277127258479595,9.07183039847001,-0.418510493280842,331.066418449456
738213.67978286161087453365,9.08413953062532,-0.418510493280842,331.041800185146
738213.67978295206557959318,9.09644866278064,-0.418510493280842,331.054109317301
738213.67978304252028465271,9.09644866278064,-0.406201361125523,331.078727581612
738213.67978313297498971224,9.10875779493596,-0.381583096814885,330.992563656524
738213.67978322342969477177,9.12106692709128,-0.381583096814885,331.054109317301
738213.67978331388439983130,9.10875779493596,-0.393892228970204,331.078727581612
738213.67978340422268956900,9.1333760592466,-0.356964832504247,331.066418449456
738213.67978349467739462852,9.14568519140192,-0.356964832504247,331.02949105299
738213.67978358513209968805,9.14568519140192,-0.332346568193609,331.066418449456
738213.67978367558680474758,9.14568519140192,-0.344655700348928,331.091036713767
738213.67978376604150980711,9.14568519140192,-0.344655700348928,330.980254524369
738213.67978385649621486664,9.15799432355724,-0.307728303882972,330.869472334971
738213.67978394695091992617,9.18261258786788,-0.270800907417015,330.931017995748
738213.67978403728920966387,9.17030345571256,-0.258491775261696,331.02949105299
738213.67978412774391472340,9.19492172002319,-0.246182643106377,331.00487278868
738213.67978421819861978292,9.19492172002319,-0.209255246640421,331.00487278868
738213.67978430865332484245,9.23184911648915,-0.184636982329783,331.00487278868
738213.67978439910802990198,9.23184911648915,-0.172327850174464,331.041800185146
738213.67978448956273496151,9.24415824864447,-0.135400453708508,331.066418449456
738213.67978457990102469921,9.28108564511043,-0.123091321553189,331.078727581612
738213.67978467035572975874,9.29339477726574,-0.0984730572425509,331.103345845922
738213.67978476081043481827,9.30570390942106,-0.0861639250872321,331.103345845922
738213.67978485126513987780,9.28108564511043,-0.0615456607765943,331.091036713767
738213.67978494171984493732,9.30570390942106,-0.0369273964659566,331.02949105299
738213.67978503217454999685,9.31801304157638,-0.0246182643106377,331.078727581612
738213.67978512262925505638,9.3303221737317,0,331.127964110233
738213.67978521296754479408,9.3303221737317,0.0123091321553189,331.115654978078
738213.67978530342224985361,9.3303221737317,0,331.103345845922
738213.67978539387695491314,9.30570390942106,-0.0123091321553189,330.992563656524
738213.67978548433165997267,9.29339477726574,-0.0615456607765943,331.02949105299
738213.67978557478636503220,9.25646738079979,-0.123091321553189,331.041800185146
738213.67978566524107009172,9.24415824864447,-0.184636982329783,331.017181920835
738213.67978575557935982943,9.21953998433383,-0.233873510951058,331.00487278868
738213.67978584603406488895,9.18261258786788,-0.270800907417015,331.00487278868
738213.67978593648876994848,9.17030345571256,-0.283110039572334,331.054109317301
738213.67978602694347500801,9.17030345571256,-0.307728303882972,330.980254524369
738213.67978611739818006754,9.17030345571256,-0.320037436038291,331.066418449456
738213.67978620785288512707,9.14568519140192,-0.344655700348928,331.041800185146
738213.67978629830759018660,9.15799432355724,-0.344655700348928,330.955636260058
738213.67978638864587992430,9.1333760592466,-0.356964832504247,330.967945392214
738213.67978647910058498383,9.17030345571256,-0.344655700348928,330.980254524369
738213.67978656955529004335,9.15799432355724,-0.356964832504247,330.955636260058
738213.67978666000999510288,9.17030345571256,-0.332346568193609,330.918708863592
738213.67978675046470016241,9.15799432355724,-0.344655700348928,330.955636260058
738213.67978684091940522194,9.15799432355724,-0.369273964659566,330.992563656524
738213.67978693137411028147,9.15799432355724,-0.381583096814885,330.955636260058
738213.67978702171240001917,9.17030345571256,-0.381583096814885,331.017181920835
738213.67978711216710507870,9.15799432355724,-0.369273964659566,331.041800185146
738213.67978720262181013823,9.14568519140192,-0.393892228970204,331.017181920835
738213.67978729307651519775,9.1333760592466,-0.393892228970204,331.054109317301
738213.67978738353122025728,9.12106692709128,-0.393892228970204,330.980254524369
738213.67978747398592531681,9.12106692709128,-0.418510493280842,330.955636260058
738213.67978756432421505451,9.14568519140192,-0.418510493280842,331.017181920835
738213.67978765477892011404,9.12106692709128,-0.393892228970204,330.967945392214
738213.67978774523362517357,9.1333760592466,-0.393892228970204,330.955636260058
738213.67978783568833023310,9.14568519140192,-0.393892228970204,330.955636260058
738213.67978792614303529263,9.1333760592466,-0.393892228970204,330.955636260058
738213.67978801659774035215,9.14568519140192,-0.393892228970204,331.017181920835
738213.67978810705244541168,9.1333760592466,-0.393892228970204,331.00487278868
738213.67978819739073514938,9.10875779493596,-0.406201361125523,330.992563656524
738213.67978828784544020891,9.10875779493596,-0.381583096814885,330.955636260058
738213.67978837830014526844,9.1333760592466,-0.381583096814885,331.00487278868
738213.67978846875485032797,9.14568519140192,-0.393892228970204,331.017181920835
738213.67978855920955538750,9.14568519140192,-0.393892228970204,331.017181920835
738213.67978864966426044703,9.14568519140192,-0.393892228970204,331.017181920835
738213.67978874000255018473,9.12106692709128,-0.406201361125523,331.02949105299
738213.67978883045725524426,9.08413953062532,-0.418510493280842,330.980254524369
738213.67978892091196030378,9.09644866278064,-0.43081962543616,331.02949105299
738213.67978901136666536331,9.12106692709128,-0.418510493280842,330.992563656524
738213.67978910182137042284,9.07183039847001,-0.443128757591479,330.992563656524
738213.67978919227607548237,9.10875779493596,-0.443128757591479,331.02949105299
738213.67978928273078054190,9.04721213415937,-0.467747021902117,330.992563656524
738213.67978937306907027960,9.1333760592466,-0.467747021902117,330.881781467126
738213.67978946352377533913,9.14568519140192,-0.467747021902117,330.955636260058
738213.67978955397848039865,9.1333760592466,-0.467747021902117,330.894090599282
738213.67978964443318545818,9.14568519140192,-0.443128757591479,330.980254524369
738213.67978973488789051771,9.1333760592466,-0.43081962543616,330.992563656524
738213.67978982534259557724,9.08413953062532,-0.43081962543616,330.992563656524
738213.67978991568088531494,9.07183039847001,-0.443128757591479,330.980254524369
738213.67979000613559037447,9.04721213415937,-0.418510493280842,331.066418449456
738213.67979009659029543400,9.05952126631469,-0.43081962543616,331.017181920835
738213.67979018704500049353,9.05952126631469,-0.43081962543616,330.943327127903
738213.67979027749970555305,9.07183039847001,-0.443128757591479,330.967945392214
738213.67979036795441061258,9.08413953062532,-0.467747021902117,331.054109317301
738213.67979045840911567211,9.03490300200405,-0.492365286212755,331.02949105299
738213.67979054874740540981,9.08413953062532,-0.516983550523392,330.992563656524
738213.67979063920211046934,9.07183039847001,-0.54160181483403,331.078727581612
738213.67979072965681552887,9.03490300200405,-0.6523840042319,331.078727581612
738213.67979082011152058840,9.09644866278064,-0.529292682678711,331.091036713767
738213.67979091056622564793,9.28108564511043,-0.11078218939787,330.992563656524
738213.67979100102093070745,9.61343221330404,0.504674418368074,330.697144484797
738213.67979109135922044516,9.46572262744021,0.54160181483403,330.943327127903
738213.67979118181392550468,9.1333760592466,-0.135400453708508,330.906399731437
738213.67979127226863056421,8.8748842839849,-0.775475325785089,331.00487278868
738213.67979136272333562374,8.85026601967427,-0.787784457940408,330.967945392214
738213.67979145317804068327,9.03490300200405,-0.529292682678711,330.967945392214
738213.67979154363274574280,9.09644866278064,-0.43081962543616,330.931017995748
738213.67979163408745080233,9.10875779493596,-0.443128757591479,330.955636260058
738213.67979172442574054003,9.10875779493596,-0.43081962543616,330.980254524369
738213.67979181488044559956,9.08413953062532,-0.43081962543616,330.955636260058
738213.67979190533515065908,9.10875779493596,-0.443128757591479,330.955636260058
738213.67979199578985571861,9.1333760592466,-0.43081962543616,330.992563656524
738213.67979208624456077814,9.14568519140192,-0.43081962543616,330.955636260058
738213.67979217669926583767,9.1333760592466,-0.406201361125523,330.943327127903
738213.67979226715397089720,9.14568519140192,-0.406201361125523,330.918708863592
738213.67979235749226063490,9.14568519140192,-0.393892228970204,330.918708863592
738213.67979244794696569443,9.14568519140192,-0.393892228970204,330.967945392214
738213.67979253840167075396,9.14568519140192,-0.406201361125523,331.00487278868
738213.67979262885637581348,9.14568519140192,-0.406201361125523,330.967945392214
738213.67979271931108087301,9.17030345571256,-0.393892228970204,330.931017995748
738213.67979280976578593254,9.18261258786788,-0.356964832504247,330.967945392214
738213.67979290010407567024,9.20723085217851,-0.320037436038291,330.955636260058
738213.67979299055878072977,9.21953998433383,-0.307728303882972,330.992563656524
738213.67979308101348578930,9.20723085217851,-0.283110039572334,330.980254524369
738213.67979317146819084883,9.20723085217851,-0.258491775261696,330.943327127903
738213.67979326192289590836,9.25646738079979,-0.22156437879574,330.967945392214
738213.67979335237760096788,9.25646738079979,-0.22156437879574,331.00487278868
738213.67979344283230602741,9.26877651295511,-0.209255246640421,330.992563656524
738213.67979353317059576511,9.26877651295511,-0.196946114485102,330.992563656524
738213.67979362362530082464,9.26877651295511,-0.184636982329783,330.980254524369
738213.67979371408000588417,9.28108564511043,-0.172327850174464,330.967945392214
738213.67979380453471094370,9.29339477726574,-0.160018718019145,331.041800185146
738213.67979389498941600323,9.28108564511043,-0.123091321553189,331.041800185146
738213.67979398544412106276,9.29339477726574,-0.0984730572425509,331.017181920835
738213.67979407578241080046,9.3303221737317,-0.0738547929319132,331.00487278868
738213.67979416623711585999,9.3303221737317,-0.0369273964659566,331.02949105299
738213.67979425669182091951,9.35494043804234,-0.0246182643106377,331.041800185146
738213.67979434714652597904,9.3303221737317,-0.0369273964659566,331.041800185146
738213.67979443760123103857,9.30570390942106,-0.0984730572425509,330.980254524369
738213.67979452805593609810,9.25646738079979,-0.184636982329783,331.00487278868
738213.67979461851064115763,9.24415824864447,-0.246182643106377,331.00487278868
738213.67979470884893089533,9.21953998433383,-0.307728303882972,331.00487278868
738213.67979479930363595486,9.19492172002319,-0.369273964659566,330.967945392214
738213.67979488975834101439,9.18261258786788,-0.369273964659566,331.017181920835
738213.67979498021304607391,9.18261258786788,-0.369273964659566,331.054109317301
738213.67979507066775113344,9.14568519140192,-0.381583096814885,330.931017995748
738213.67979516112245619297,9.15799432355724,-0.381583096814885,331.017181920835
738213.67979525146074593067,9.12106692709128,-0.393892228970204,330.992563656524
738213.67979534191545099020,9.17030345571256,-0.381583096814885,330.943327127903
738213.67979543237015604973,9.15799432355724,-0.381583096814885,330.943327127903
738213.67979552282486110926,9.15799432355724,-0.393892228970204,331.02949105299
738213.67979561327956616879,9.14568519140192,-0.393892228970204,331.041800185146
738213.67979570373427122831,9.15799432355724,-0.381583096814885,330.943327127903
738213.67979579418897628784,9.14568519140192,-0.393892228970204,330.980254524369
738213.67979588452726602554,9.15799432355724,-0.393892228970204,330.980254524369
738213.67979597498197108507,9.14568519140192,-0.406201361125523,330.943327127903
738213.67979606543667614460,9.14568519140192,-0.393892228970204,330.918708863592
738213.67979615589138120413,9.14568519140192,-0.393892228970204,331.02949105299
738213.67979624634608626366,9.12106692709128,-0.393892228970204,330.967945392214
738213.67979633680079132318,9.10875779493596,-0.418510493280842,330.894090599282
738213.67979642713908106089,9.12106692709128,-0.43081962543616,330.906399731437
738213.67979651759378612041,9.10875779493596,-0.43081962543616,330.894090599282
738213.67979660804849117994,9.10875779493596,-0.43081962543616,330.943327127903
738213.67979669850319623947,9.09644866278064,-0.43081962543616,330.918708863592
738213.67979678895790129900,9.10875779493596,-0.455437889746798,330.918708863592
738213.67979687941260635853,9.10875779493596,-0.443128757591479,330.918708863592
738213.67979696986731141806,9.12106692709128,-0.443128757591479,330.906399731437
738213.67979706020560115576,9.08413953062532,-0.443128757591479,330.894090599282
738213.67979715066030621529,9.08413953062532,-0.443128757591479,330.931017995748
738213.67979724111501127481,9.09644866278064,-0.467747021902117,330.931017995748
738213.67979733156971633434,9.10875779493596,-0.455437889746798,330.943327127903
738213.67979742202442139387,9.10875779493596,-0.455437889746798,330.992563656524
738213.67979751247912645340,9.09644866278064,-0.455437889746798,330.967945392214
738213.67979760293383151293,9.09644866278064,-0.443128757591479,331.00487278868
738213.67979769327212125063,9.09644866278064,-0.455437889746798,331.00487278868
738213.67979778372682631016,9.12106692709128,-0.443128757591479,331.041800185146
738213.67979787418153136969,9.10875779493596,-0.455437889746798,330.992563656524
738213.67979796463623642921,9.08413953062532,-0.455437889746798,330.931017995748
738213.67979805509094148874,9.12106692709128,-0.455437889746798,330.906399731437
738213.67979814554564654827,9.09644866278064,-0.455437889746798,330.992563656524
738213.67979823588393628597,9.12106692709128,-0.443128757591479,330.906399731437
738213.67979832633864134550,9.1333760592466,-0.418510493280842,330.992563656524
738213.67979841679334640503,9.12106692709128,-0.406201361125523,330.955636260058
738213.67979850724805146456,9.14568519140192,-0.381583096814885,330.931017995748
738213.67979859770275652409,9.15799432355724,-0.356964832504247,330.992563656524
738213.67979868815746158361,9.1333760592466,-0.369273964659566,331.02949105299
738213.67979877861216664314,9.12106692709128,-0.406201361125523,330.967945392214
738213.67979886895045638084,9.08413953062532,-0.443128757591479,331.041800185146
738213.67979895940516144037,9.08413953062532,-0.455437889746798,331.066418449456
738213.67979904985986649990,9.07183039847001,-0.467747021902117,331.02949105299
738213.67979914031457155943,9.04721213415937,-0.492365286212755,330.967945392214
738213.67979923076927661896,9.04721213415937,-0.467747021902117,331.054109317301
738213.67979932122398167849,9.05952126631469,-0.480056154057436,331.041800185146
738213.67979941156227141619,9.04721213415937,-0.480056154057436,330.943327127903
738213.67979950201697647572,9.04721213415937,-0.480056154057436,331.041800185146
738213.67979959247168153524,9.07183039847001,-0.480056154057436,331.041800185146
738213.67979968292638659477,9.03490300200405,-0.553910946989349,330.967945392214
738213.67979977338109165430,9.02259386984873,-0.664693136387219,330.955636260058
738213.67979986383579671383,9.10875779493596,-0.492365286212755,331.041800185146
738213.67979995429050177336,9.31801304157638,-0.0246182643106377,330.906399731437
738213.67980004462879151106,9.62574134545936,0.553910946989349,330.598671427554
738213.67980013508349657059,9.35494043804234,0.393892228970204,330.807926674195
738213.67980022553820163012,9.01028473769341,-0.344655700348928,330.783308409884
738213.67980031599290668964,8.82564775536363,-0.824711854406364,330.906399731437
738213.67980040644761174917,8.86257515182958,-0.750857061474451,330.943327127903
738213.67980049690231680870,9.05952126631469,-0.516983550523392,330.931017995748
738213.67980058724060654640,9.08413953062532,-0.467747021902117,330.894090599282
738213.67980067769531160593,9.07183039847001,-0.455437889746798,330.943327127903
738213.67980076815001666546,9.09644866278064,-0.467747021902117,330.869472334971
738213.67980085860472172499,9.07183039847001,-0.455437889746798,330.881781467126
738213.67980094905942678452,9.10875779493596,-0.443128757591479,330.955636260058
738213.67980103951413184404,9.10875779493596,-0.43081962543616,330.967945392214
738213.67980112996883690357,9.09644866278064,-0.455437889746798,330.918708863592
738213.67980122030712664127,9.09644866278064,-0.443128757591479,330.943327127903
738213.67980131076183170080,9.09644866278064,-0.443128757591479,330.918708863592
738213.67980140121653676033,9.05952126631469,-0.443128757591479,330.967945392214
738213.67980149167124181986,9.08413953062532,-0.43081962543616,330.795617542039
738213.67980158212594687939,9.12106692709128,-0.443128757591479,330.807926674195
738213.67980167258065193892,9.1333760592466,-0.443128757591479,330.931017995748
738213.67980176303535699844,9.1333760592466,-0.43081962543616,330.967945392214
738213.67980185337364673615,9.12106692709128,-0.418510493280842,330.980254524369
738213.67980194382835179567,9.1333760592466,-0.418510493280842,330.869472334971
738213.67980203428305685520,9.15799432355724,-0.406201361125523,330.918708863592
738213.67980212473776191473,9.15799432355724,-0.381583096814885,330.918708863592
738213.67980221519246697426,9.14568519140192,-0.344655700348928,330.918708863592
738213.67980230564717203379,9.17030345571256,-0.320037436038291,330.906399731437
738213.67980239598546177149,9.21953998433383,-0.320037436038291,330.918708863592
738213.67980248644016683102,9.20723085217851,-0.295419171727653,330.857163202816
738213.67980257689487189054,9.25646738079979,-0.258491775261696,330.955636260058
738213.67980266734957695007,9.24415824864447,-0.283110039572334,331.017181920835
738213.67980275780428200960,9.24415824864447,-0.258491775261696,331.017181920835
738213.67980284825898706913,9.23184911648915,-0.233873510951058,330.955636260058
738213.67980293871369212866,9.29339477726574,-0.184636982329783,331.017181920835
738213.67980302905198186636,9.26877651295511,-0.184636982329783,331.00487278868
738213.67980311950668692589,9.30570390942106,-0.147709585863826,331.066418449456
738213.67980320996139198542,9.29339477726574,-0.123091321553189,331.078727581612
738213.67980330041609704494,9.28108564511043,-0.135400453708508,331.041800185146
738213.67980339087080210447,9.30570390942106,-0.147709585863826,330.943327127903
738213.67980348132550716400,9.29339477726574,-0.196946114485102,331.017181920835
738213.67980357166379690170,9.23184911648915,-0.258491775261696,330.980254524369
738213.67980366211850196123,9.19492172002319,-0.332346568193609,331.00487278868
738213.67980375257320702076,9.18261258786788,-0.344655700348928,330.967945392214
738213.67980384302791208029,9.14568519140192,-0.418510493280842,330.967945392214
738213.67980393348261713982,9.14568519140192,-0.43081962543616,330.967945392214
738213.67980402393732219934,9.12106692709128,-0.418510493280842,330.931017995748
738213.67980411439202725887,9.12106692709128,-0.418510493280842,330.955636260058
738213.67980420473031699657,9.09644866278064,-0.443128757591479,330.967945392214
738213.67980429518502205610,9.10875779493596,-0.480056154057436,331.017181920835
738213.67980438563972711563,9.09644866278064,-0.467747021902117,330.943327127903
738213.67980447609443217516,9.08413953062532,-0.467747021902117,330.943327127903
738213.67980456654913723469,9.09644866278064,-0.480056154057436,330.943327127903
738213.67980465700384229422,9.10875779493596,-0.467747021902117,330.967945392214
738213.67980474734213203192,9.10875779493596,-0.455437889746798,330.918708863592
738213.67980483779683709145,9.09644866278064,-0.480056154057436,331.00487278868
738213.67980492825154215097,9.09644866278064,-0.467747021902117,330.967945392214
738213.67980501870624721050,9.08413953062532,-0.455437889746798,330.783308409884
738213.67980510916095227003,9.09644866278064,-0.467747021902117,330.869472334971
738213.67980519961565732956,9.09644866278064,-0.467747021902117,330.955636260058
738213.67980529007036238909,9.08413953062532,-0.467747021902117,330.918708863592
738213.67980538040865212679,9.07183039847001,-0.480056154057436,330.894090599282
738213.67980547086335718632,9.04721213415937,-0.492365286212755,330.869472334971
738213.67980556131806224585,9.08413953062532,-0.516983550523392,330.844854070661
738213.67980565177276730537,9.04721213415937,-0.516983550523392,330.869472334971
738213.67980574222747236490,9.07183039847001,-0.529292682678711,330.857163202816
738213.67980583268217742443,9.07183039847001,-0.553910946989349,330.844854070661
738213.67980592302046716213,9.08413953062532,-0.553910946989349,330.906399731437
738213.67980601347517222166,9.05952126631469,-0.516983550523392,330.943327127903
738213.67980610392987728119,9.07183039847001,-0.516983550523392,330.931017995748
738213.67980619438458234072,9.08413953062532,-0.504674418368074,330.931017995748
738213.67980628483928740025,9.08413953062532,-0.492365286212755,330.931017995748
738213.67980637529399245977,9.07183039847001,-0.492365286212755,330.906399731437
738213.67980646574869751930,9.05952126631469,-0.504674418368074,330.931017995748
738213.67980655608698725700,9.04721213415937,-0.504674418368074,331.00487278868
738213.67980664654169231653,9.05952126631469,-0.492365286212755,330.918708863592
738213.67980673699639737606,9.05952126631469,-0.492365286212755,330.992563656524
738213.67980682745110243559,9.07183039847001,-0.504674418368074,330.980254524369
738213.67980691790580749512,9.03490300200405,-0.504674418368074,330.931017995748
738213.67980700836051255465,9.09644866278064,-0.504674418368074,330.795617542039
738213.67980709881521761417,9.08413953062532,-0.492365286212755,330.931017995748
738213.67980718915350735188,9.09644866278064,-0.480056154057436,330.931017995748
738213.67980727960821241140,9.12106692709128,-0.443128757591479,330.894090599282
738213.67980737006291747093,9.1333760592466,-0.418510493280842,330.967945392214
738213.67980746051762253046,9.10875779493596,-0.406201361125523,330.955636260058
738213.67980755097232758999,9.12106692709128,-0.406201361125523,330.894090599282
738213.67980764142703264952,9.08413953062532,-0.43081962543616,330.992563656524
738213.67980773176532238722,9.08413953062532,-0.467747021902117,331.00487278868
738213.67980782222002744675,9.03490300200405,-0.504674418368074,330.955636260058
738213.67980791267473250628,9.05952126631469,-0.529292682678711,330.980254524369
738213.67980800312943756580,9.05952126631469,-0.504674418368074,331.00487278868
738213.67980809358414262533,9.07183039847001,-0.504674418368074,331.00487278868
738213.67980818403884768486,9.05952126631469,-0.516983550523392,330.955636260058
738213.67980827449355274439,9.08413953062532,-0.492365286212755,331.00487278868
738213.67980836483184248209,9.02259386984873,-0.504674418368074,331.017181920835
738213.67980845528654754162,9.08413953062532,-0.504674418368074,330.967945392214
738213.67980854574125260115,9.02259386984873,-0.640074872076581,330.832544938505
738213.67980863619595766068,9.08413953062532,-0.603147475610625,330.869472334971
738213.67980872665066272020,9.19492172002319,-0.283110039572334,330.906399731437
738213.67980881710536777973,9.50265002390617,0.307728303882972,330.795617542039
738213.67980890744365751743,9.51495915606148,0.553910946989349,330.758690145573
738213.67980899789836257696,9.17030345571256,0.0246182643106377,330.844854070661
738213.67980908835306763649,8.86257515182958,-0.713929665008494,330.82023580635
738213.67980917880777269602,8.78872035889767,-0.861639250872321,330.844854070661
738213.67980926926247775555,8.94873907691682,-0.627765739921262,330.931017995748
738213.67980935971718281507,9.01028473769341,-0.54160181483403,330.943327127903
738213.67980945017188787460,9.07183039847001,-0.480056154057436,330.807926674195
738213.67980954051017761230,9.04721213415937,-0.504674418368074,330.844854070661
738213.67980963096488267183,9.07183039847001,-0.492365286212755,330.906399731437
738213.67980972141958773136,9.08413953062532,-0.516983550523392,330.918708863592
738213.67980981187429279089,9.09644866278064,-0.480056154057436,331.00487278868
738213.67980990232899785042,9.10875779493596,-0.467747021902117,330.967945392214
738213.67980999278370290995,9.12106692709128,-0.455437889746798,330.918708863592
738213.67981008312199264765,9.10875779493596,-0.455437889746798,330.980254524369
738213.67981017357669770718,9.09644866278064,-0.455437889746798,330.943327127903
738213.67981026403140276670,9.09644866278064,-0.43081962543616,330.943327127903
738213.67981035448610782623,9.14568519140192,-0.443128757591479,330.943327127903
738213.67981044494081288576,9.15799432355724,-0.406201361125523,330.967945392214
738213.67981053539551794529,9.14568519140192,-0.418510493280842,330.955636260058
738213.67981062585022300482,9.15799432355724,-0.406201361125523,330.955636260058
738213.67981071618851274252,9.15799432355724,-0.406201361125523,331.00487278868
738213.67981080664321780205,9.17030345571256,-0.381583096814885,331.017181920835
738213.67981089709792286158,9.14568519140192,-0.369273964659566,330.931017995748
738213.67981098755262792110,9.19492172002319,-0.320037436038291,331.00487278868
738213.67981107800733298063,9.20723085217851,-0.307728303882972,330.992563656524
738213.67981116846203804016,9.21953998433383,-0.295419171727653,330.967945392214
738213.67981125880032777786,9.18261258786788,-0.270800907417015,330.980254524369
738213.67981134925503283739,9.24415824864447,-0.233873510951058,330.980254524369
738213.67981143970973789692,9.23184911648915,-0.22156437879574,330.980254524369
738213.67981153016444295645,9.26877651295511,-0.196946114485102,330.992563656524
738213.67981162061914801598,9.26877651295511,-0.172327850174464,331.041800185146
738213.67981171107385307550,9.26877651295511,-0.160018718019145,331.02949105299
738213.67981180152855813503,9.26877651295511,-0.160018718019145,331.078727581612
738213.67981189186684787273,9.25646738079979,-0.147709585863826,331.041800185146
738213.67981198232155293226,9.28108564511043,-0.147709585863826,331.054109317301
738213.67981207277625799179,9.26877651295511,-0.135400453708508,330.869472334971
738213.67981216323096305132,9.28108564511043,-0.135400453708508,330.906399731437
738213.67981225368566811085,9.30570390942106,-0.172327850174464,330.992563656524
738213.67981234414037317038,9.25646738079979,-0.233873510951058,330.931017995748
738213.67981243459507822990,9.23184911648915,-0.270800907417015,330.980254524369
738213.67981252493336796761,9.18261258786788,-0.332346568193609,330.980254524369
738213.67981261538807302713,9.18261258786788,-0.393892228970204,330.931017995748
738213.67981270584277808666,9.17030345571256,-0.418510493280842,330.992563656524
738213.67981279629748314619,9.14568519140192,-0.443128757591479,330.967945392214
738213.67981288675218820572,9.14568519140192,-0.443128757591479,331.00487278868
738213.67981297720689326525,9.14568519140192,-0.443128757591479,330.980254524369
738213.67981306754518300295,9.1333760592466,-0.455437889746798,331.017181920835
738213.67981315799988806248,9.1333760592466,-0.43081962543616,331.02949105299
738213.67981324845459312201,9.14568519140192,-0.418510493280842,330.931017995748
738213.67981333890929818153,9.14568519140192,-0.418510493280842,330.918708863592
738213.67981342936400324106,9.14568519140192,-0.393892228970204,330.931017995748
738213.67981351981870830059,9.17030345571256,-0.393892228970204,330.967945392214
738213.67981361027341336012,9.1333760592466,-0.418510493280842,330.906399731437
738213.67981370061170309782,9.1333760592466,-0.406201361125523,330.992563656524
738213.67981379106640815735,9.17030345571256,-0.43081962543616,330.931017995748
738213.67981388152111321688,9.17030345571256,-0.43081962543616,330.906399731437
738213.67981397197581827641,9.1333760592466,-0.455437889746798,330.918708863592
738213.67981406243052333593,9.10875779493596,-0.467747021902117,330.967945392214
738213.67981415288522839546,9.1333760592466,-0.467747021902117,330.881781467126
738213.67981424322351813316,9.09644866278064,-0.480056154057436,330.918708863592
738213.67981433367822319269,9.1333760592466,-0.455437889746798,330.906399731437
738213.67981442413292825222,9.10875779493596,-0.480056154057436,330.992563656524
738213.67981451458763331175,9.12106692709128,-0.467747021902117,330.943327127903
738213.67981460504233837128,9.10875779493596,-0.455437889746798,330.955636260058
738213.67981469549704343081,9.10875779493596,-0.443128757591479,330.881781467126
738213.67981478595174849033,9.09644866278064,-0.443128757591479,330.894090599282
738213.67981487629003822803,9.08413953062532,-0.480056154057436,330.918708863592
738213.67981496674474328756,9.09644866278064,-0.492365286212755,330.906399731437
738213.67981505719944834709,9.09644866278064,-0.492365286212755,330.967945392214
738213.67981514765415340662,9.08413953062532,-0.504674418368074,330.906399731437
738213.67981523810885846615,9.09644866278064,-0.492365286212755,330.869472334971
738213.67981532856356352568,9.08413953062532,-0.504674418368074,330.931017995748
738213.67981541890185326338,9.12106692709128,-0.492365286212755,330.881781467126
738213.67981550935655832291,9.10875779493596,-0.492365286212755,330.894090599282
738213.67981559981126338243,9.09644866278064,-0.504674418368074,330.770999277729
738213.67981569026596844196,9.10875779493596,-0.492365286212755,330.783308409884
738213.67981578072067350149,9.10875779493596,-0.492365286212755,330.832544938505
738213.67981587117537856102,9.12106692709128,-0.467747021902117,330.857163202816
738213.67981596163008362055,9.14568519140192,-0.455437889746798,330.918708863592
738213.67981605196837335825,9.15799432355724,-0.43081962543616,330.832544938505
738213.67981614242307841778,9.17030345571256,-0.406201361125523,330.918708863592
738213.67981623287778347731,9.19492172002319,-0.381583096814885,330.918708863592
738213.67981632333248853683,9.20723085217851,-0.356964832504247,330.967945392214
738213.67981641378719359636,9.18261258786788,-0.381583096814885,330.918708863592
738213.67981650424189865589,9.14568519140192,-0.393892228970204,330.955636260058
738213.67981659469660371542,9.1333760592466,-0.443128757591479,330.992563656524
738213.67981668503489345312,9.10875779493596,-0.480056154057436,330.992563656524
738213.67981677548959851265,9.09644866278064,-0.492365286212755,330.980254524369
738213.67981686594430357218,9.08413953062532,-0.492365286212755,331.017181920835
738213.67981695639900863171,9.12106692709128,-0.480056154057436,330.967945392214
738213.67981704685371369123,9.08413953062532,-0.504674418368074,330.931017995748
738213.67981713730841875076,9.09644866278064,-0.492365286212755,330.980254524369
738213.67981722764670848846,9.09644866278064,-0.516983550523392,330.955636260058
738213.67981731810141354799,9.09644866278064,-0.529292682678711,330.881781467126
738213.67981740855611860752,9.03490300200405,-0.6523840042319,330.906399731437
738213.67981749901082366705,9.08413953062532,-0.6523840042319,330.931017995748
738213.67981758946552872658,9.20723085217851,-0.356964832504247,330.980254524369
738213.67981767992023378611,9.46572262744021,0.172327850174464,330.832544938505
738213.67981777037493884563,9.56419568468276,0.590838343455306,330.672526220486
738213.67981786071322858334,9.23184911648915,0.135400453708508,330.844854070661
738213.67981795116793364286,8.96104820907214,-0.590838343455306,330.869472334971
738213.67981804162263870239,8.86257515182958,-0.824711854406364,330.82023580635
738213.67981813207734376192,8.89950254829554,-0.713929665008494,330.881781467126
738213.67981822253204882145,9.08413953062532,-0.43081962543616,330.894090599282
738213.67981831298675388098,9.14568519140192,-0.295419171727653,330.931017995748
738213.67981840332504361868,9.12106692709128,-0.283110039572334,330.955636260058
738213.67981849377974867821,9.12106692709128,-0.233873510951058,330.881781467126
738213.67981858423445373774,9.12106692709128,-0.258491775261696,330.795617542039
738213.67981867468915879726,9.15799432355724,-0.43081962543616,330.82023580635
738213.67981876514386385679,9.14568519140192,-0.578529211299987,330.82023580635
738213.67981885559856891632,9.15799432355724,-0.529292682678711,330.857163202816
738213.67981894605327397585,9.17030345571256,-0.529292682678711,330.881781467126
738213.67981903639156371355,9.1333760592466,-0.467747021902117,330.931017995748
738213.67981912684626877308,9.14568519140192,-0.381583096814885,330.783308409884
738213.67981921730097383261,9.14568519140192,-0.369273964659566,330.881781467126
738213.67981930775567889214,9.18261258786788,-0.393892228970204,330.980254524369
738213.67981939821038395166,9.21953998433383,-0.381583096814885,331.00487278868
738213.67981948866508901119,9.21953998433383,-0.332346568193609,331.02949105299
738213.67981957900337874889,9.23184911648915,-0.307728303882972,330.980254524369
738213.67981966945808380842,9.23184911648915,-0.295419171727653,330.955636260058
738213.67981975991278886795,9.23184911648915,-0.283110039572334,330.955636260058
738213.67981985036749392748,9.25646738079979,-0.270800907417015,331.017181920835
738213.67981994082219898701,9.26877651295511,-0.258491775261696,331.00487278868
738213.67982003127690404654,9.28108564511043,-0.209255246640421,330.992563656524
738213.67982012173160910606,9.30570390942106,-0.172327850174464,331.02949105299
738213.67982021206989884377,9.29339477726574,-0.135400453708508,331.091036713767
738213.67982030252460390329,9.30570390942106,-0.11078218939787,331.041800185146
738213.67982039297930896282,9.3303221737317,-0.0861639250872321,331.041800185146
738213.67982048343401402235,9.34263130588702,-0.0369273964659566,331.066418449456
738213.67982057388871908188,9.35494043804234,-0.0369273964659566,331.091036713767
738213.67982066434342414141,9.36724957019766,-0.0246182643106377,331.041800185146
738213.67982075468171387911,9.35494043804234,-0.0123091321553189,331.054109317301
738213.67982084513641893864,9.35494043804234,0,331.041800185146
738213.67982093559112399817,9.35494043804234,-0.0369273964659566,330.931017995748
738213.67982102604582905769,9.36724957019766,-0.0123091321553189,331.066418449456
738213.67982111650053411722,9.29339477726574,-0.0861639250872321,330.992563656524
738213.67982120695523917675,9.29339477726574,-0.0984730572425509,330.881781467126
738213.67982129740994423628,9.26877651295511,-0.22156437879574,330.906399731437
738213.67982138774823397398,9.21953998433383,-0.258491775261696,330.869472334971
738213.67982147820293903351,9.20723085217851,-0.270800907417015,330.82023580635
738213.67982156865764409304,9.19492172002319,-0.320037436038291,330.844854070661
738213.67982165911234915257,9.17030345571256,-0.393892228970204,330.881781467126
738213.67982174956705421209,9.25646738079979,-0.344655700348928,330.82023580635
738213.67982184002175927162,9.17030345571256,-0.418510493280842,330.881781467126
738213.67982193047646433115,9.23184911648915,-0.406201361125523,330.869472334971
738213.67982202081475406885,9.19492172002319,-0.406201361125523,330.832544938505
738213.67982211126945912838,9.15799432355724,-0.418510493280842,330.807926674195
738213.67982220172416418791,9.15799432355724,-0.43081962543616,330.807926674195
738213.67982229217886924744,9.15799432355724,-0.43081962543616,330.82023580635
738213.67982238263357430696,9.15799432355724,-0.393892228970204,330.906399731437
738213.67982247308827936649,9.20723085217851,-0.356964832504247,330.906399731437
738213.67982256342656910419,9.17030345571256,-0.356964832504247,330.783308409884
738213.67982265388127416372,9.10875779493596,-0.406201361125523,330.697144484797
738213.67982274433597922325,9.18261258786788,-0.406201361125523,330.734071881263
738213.67982283479068428278,9.18261258786788,-0.332346568193609,330.807926674195
738213.67982292524538934231,9.18261258786788,-0.332346568193609,330.869472334971
738213.67982301570009440184,9.08413953062532,-0.356964832504247,330.832544938505
738213.67982310615479946136,9.1333760592466,-0.356964832504247,330.844854070661
738213.67982319649308919907,9.18261258786788,-0.369273964659566,330.770999277729
738213.67982328694779425859,9.20723085217851,-0.356964832504247,330.746381013418
738213.67982337740249931812,9.14568519140192,-0.443128757591479,330.721762749107
738213.67982346785720437765,9.12106692709128,-0.455437889746798,330.623289691865
738213.67982355831190943718,9.08413953062532,-0.455437889746798,330.647907956175
738213.67982364876661449671,9.07183039847001,-0.553910946989349,330.586362295399
738213.67982373910490423441,9.05952126631469,-0.492365286212755,330.63559882402
738213.67982382955960929394,9.07183039847001,-0.480056154057436,330.660217088331
738213.67982392001431435347,9.03490300200405,-0.504674418368074,330.610980559709
738213.67982401046901941299,8.98566647338277,-0.553910946989349,330.660217088331
738213.67982410092372447252,9.07183039847001,-0.504674418368074,330.807926674195
738213.67982419137842953205,9.02259386984873,-0.529292682678711,330.857163202816
738213.67982428183313459158,9.05952126631469,-0.455437889746798,330.881781467126
738213.67982437217142432928,9.02259386984873,-0.455437889746798,330.894090599282
738213.67982446262612938881,9.09644866278064,-0.393892228970204,330.943327127903
738213.67982455308083444834,9.07183039847001,-0.443128757591479,330.918708863592
738213.67982464353553950787,9.14568519140192,-0.356964832504247,330.906399731437
738213.67982473399024456739,9.17030345571256,-0.369273964659566,330.881781467126
738213.67982482444494962692,9.25646738079979,-0.332346568193609,330.894090599282
738213.67982491478323936462,9.23184911648915,-0.344655700348928,330.869472334971
738213.67982500523794442415,9.30570390942106,-0.320037436038291,330.881781467126
738213.67982509569264948368,9.35494043804234,-0.283110039572334,331.00487278868
738213.67982518614735454321,9.34263130588702,-0.270800907417015,331.00487278868
738213.67982527660205960274,9.21953998433383,-0.406201361125523,331.041800185146
738213.67982536705676466227,9.23184911648915,-0.566220079144668,331.091036713767
738213.67982545751146972179,9.20723085217851,-0.6523840042319,331.017181920835
738213.67982554784975945950,9.28108564511043,-0.566220079144668,331.091036713767
738213.67982563830446451902,9.21953998433383,-0.54160181483403,331.078727581612
738213.67982572875916957855,9.17030345571256,-0.529292682678711,330.955636260058
738213.67982581921387463808,9.26877651295511,-0.393892228970204,331.115654978078
738213.67982590966857969761,9.21953998433383,-0.406201361125523,331.164891506699
738213.67982600012328475714,9.07183039847001,-0.54160181483403,331.066418449456
738213.67982609057798981667,8.96104820907214,-0.553910946989349,330.992563656524
738213.67982618091627955437,8.94873907691682,-0.640074872076581,330.770999277729
738213.67982627137098461390,8.96104820907214,-0.750857061474451,330.869472334971
738213.67982636182568967342,9.02259386984873,-0.516983550523392,330.980254524369
738213.67982645228039473295,9.29339477726574,0.0738547929319132,330.894090599282
738213.67982654273509979248,9.56419568468276,0.6523840042319,330.709453616952
738213.67982663318980485201,9.30570390942106,0.381583096814885,330.709453616952
738213.67982672352809458971,8.9364299447615,-0.480056154057436,330.709453616952
738213.67982681398279964924,8.82564775536363,-0.726238797163813,330.709453616952
738213.67982690443750470877,8.77641122674235,-0.800093590095726,330.758690145573
738213.67982699489220976830,8.80102949105299,-0.677002268542538,330.734071881263
738213.67982708534691482782,8.86257515182958,-0.529292682678711,330.734071881263
738213.67982717580161988735,8.97335734122746,-0.418510493280842,330.894090599282
738213.67982726625632494688,8.88719341614022,-0.492365286212755,330.770999277729
738213.67982735659461468458,8.88719341614022,-0.492365286212755,330.869472334971
738213.67982744704931974411,8.92412081260618,-0.455437889746798,330.807926674195
738213.67982753750402480364,8.89950254829554,-0.467747021902117,330.857163202816
738213.67982762795872986317,8.86257515182958,-0.480056154057436,330.844854070661
738213.67982771841343492270,8.91181168045086,-0.381583096814885,330.783308409884
738213.67982780886813998222,8.96104820907214,-0.369273964659566,330.807926674195
738213.67982789920642971992,8.94873907691682,-0.418510493280842,330.783308409884
738213.67982798966113477945,8.8748842839849,-0.455437889746798,330.82023580635
738213.67982808011583983898,8.99797560553809,-0.356964832504247,330.758690145573
738213.67982817057054489851,8.94873907691682,-0.393892228970204,330.869472334971
738213.67982826102524995804,9.02259386984873,-0.369273964659566,330.844854070661
738213.67982835147995501757,8.99797560553809,-0.381583096814885,330.869472334971
738213.67982844193466007710,8.8748842839849,-0.529292682678711,330.832544938505
738213.67982853227294981480,8.88719341614022,-0.516983550523392,330.844854070661
738213.67982862272765487432,9.08413953062532,-0.295419171727653,330.906399731437
738213.67982871318235993385,9.02259386984873,-0.381583096814885,330.906399731437
738213.67982880363706499338,8.98566647338277,-0.406201361125523,330.918708863592
738213.67982889409177005291,8.98566647338277,-0.393892228970204,330.906399731437
738213.67982898454647511244,8.99797560553809,-0.393892228970204,330.943327127903
738213.67982907488476485014,9.02259386984873,-0.381583096814885,330.931017995748
738213.67982916533946990967,9.05952126631469,-0.369273964659566,330.931017995748
738213.67982925579417496920,9.04721213415937,-0.369273964659566,330.943327127903
738213.67982934624888002872,9.03490300200405,-0.344655700348928,330.931017995748
738213.67982943670358508825,9.1333760592466,-0.246182643106377,330.869472334971
738213.67982952715829014778,9.12106692709128,-0.283110039572334,330.992563656524
738213.67982961761299520731,9.07183039847001,-0.258491775261696,330.967945392214
738213.67982970795128494501,9.1333760592466,-0.184636982329783,330.783308409884
738213.67982979840599000454,9.14568519140192,-0.184636982329783,330.832544938505
738213.67982988886069506407,9.07183039847001,-0.258491775261696,330.844854070661
738213.67982997931540012360,9.01028473769341,-0.344655700348928,330.832544938505
738213.67983006977010518312,9.08413953062532,-0.307728303882972,330.881781467126
738213.67983016022481024265,8.94873907691682,-0.492365286212755,330.881781467126
738213.67983025056309998035,8.8748842839849,-0.553910946989349,330.82023580635
738213.67983034101780503988,9.02259386984873,-0.467747021902117,330.832544938505
738213.67983043147251009941,8.99797560553809,-0.492365286212755,330.82023580635
738213.67983052192721515894,8.94873907691682,-0.553910946989349,330.770999277729
738213.67983061238192021847,9.01028473769341,-0.516983550523392,330.758690145573
738213.67983070283662527800,9.07183039847001,-0.443128757591479,330.795617542039
738213.67983079329133033752,9.07183039847001,-0.467747021902117,330.783308409884
738213.67983088362962007523,9.07183039847001,-0.492365286212755,330.783308409884
738213.67983097408432513475,9.07183039847001,-0.529292682678711,330.758690145573
738213.67983106453903019428,9.08413953062532,-0.516983550523392,330.770999277729
738213.67983115499373525381,9.08413953062532,-0.480056154057436,330.795617542039
738213.67983124544844031334,9.05952126631469,-0.504674418368074,330.758690145573
738213.67983133590314537287,9.02259386984873,-0.529292682678711,330.758690145573
738213.67983142635785043240,8.94873907691682,-0.566220079144668,330.783308409884
738213.67983151669614017010,9.03490300200405,-0.418510493280842,330.758690145573
738213.67983160715084522963,8.9364299447615,-0.578529211299987,330.746381013418
738213.67983169760555028915,8.99797560553809,-0.467747021902117,330.709453616952
738213.67983178806025534868,8.98566647338277,-0.504674418368074,330.783308409884
738213.67983187851496040821,9.02259386984873,-0.603147475610625,330.746381013418
738213.67983196896966546774,8.98566647338277,-0.6523840042319,330.709453616952
738213.67983205930795520544,9.10875779493596,-0.627765739921262,330.832544938505
738213.67983214976266026497,9.29339477726574,-0.529292682678711,330.881781467126
738213.67983224021736532450,9.40417696666361,-0.480056154057436,330.894090599282
738213.67983233067207038403,9.56419568468276,-0.393892228970204,330.857163202816
738213.67983242112677544355,9.63805047761467,-0.344655700348928,330.967945392214
738213.67983251158148050308,9.50265002390617,-0.393892228970204,330.955636260058
738213.67983260203618556261,9.34263130588702,-0.504674418368074,330.894090599282
738213.67983269237447530031,9.3303221737317,-0.455437889746798,330.844854070661
738213.67983278282918035984,9.18261258786788,-0.590838343455306,330.832544938505
738213.67983287328388541937,9.3303221737317,-0.516983550523392,330.906399731437
738213.67983296373859047890,9.15799432355724,-0.6523840042319,330.869472334971
738213.67983305419329553843,9.18261258786788,-0.76316619362977,330.807926674195
738213.67983314464800059795,9.19492172002319,-0.87394838302764,330.857163202816
738213.67983323498629033566,9.19492172002319,-0.960112308114872,330.697144484797
738213.67983332544099539518,9.29339477726574,-0.960112308114872,330.697144484797
738213.67983341589570045471,9.18261258786788,-1.02165796889147,330.758690145573
738213.67983350635040551424,9.20723085217851,-1.0462762332021,330.770999277729
738213.67983359680511057377,9.30570390942106,-1.02165796889147,330.697144484797
738213.67983368725981563330,9.37955870235298,-0.984730572425509,330.63559882402
738213.67983377771452069283,9.36724957019766,-1.02165796889147,330.684835352641
738213.67983386805281043053,9.25646738079979,-1.07089449751274,330.610980559709
738213.67983395850751549006,9.25646738079979,-0.997039704580828,330.721762749107
738213.67983404896222054958,9.15799432355724,-1.02165796889147,330.709453616952
738213.67983413941692560911,9.12106692709128,-1.08320362966806,330.684835352641
738213.67983422987163066864,9.12106692709128,-1.09551276182338,330.734071881263
738213.67983432032633572817,9.28108564511043,-0.997039704580828,330.660217088331
738213.67983441066462546587,9.26877651295511,-0.972421440270191,330.660217088331
738213.67983450111933052540,9.20723085217851,-0.960112308114872,330.63559882402
738213.67983459157403558493,9.26877651295511,-0.947803175959553,330.574053163243
738213.67983468202874064445,9.29339477726574,-0.960112308114872,330.537125766778
738213.67983477248344570398,9.19492172002319,-0.997039704580828,330.586362295399
738213.67983486293815076351,9.18261258786788,-1.00934883673615,330.574053163243
738213.67983495339285582304,9.19492172002319,-0.960112308114872,330.63559882402
738213.67983504373114556074,9.18261258786788,-0.972421440270191,330.610980559709
738213.67983513418585062027,9.12106692709128,-0.997039704580828,330.586362295399
738213.67983522464055567980,9.15799432355724,-0.87394838302764,330.672526220486
738213.67983531509526073933,9.5272682882168,-0.258491775261696,330.586362295399
738213.67983540554996579885,9.76114179916786,0.406201361125523,330.377107048758
738213.67983549600467085838,9.57650481683808,0.344655700348928,330.475580106001
738213.67983558634296059608,9.29339477726574,-0.270800907417015,330.561744031088
738213.67983567679766565561,9.12106692709128,-0.886257515182958,330.623289691865
738213.67983576725237071514,8.89950254829554,-1.12013102613402,330.598671427554
738213.67983585770707577467,9.10875779493596,-0.87394838302764,330.623289691865
738213.67983594816178083420,9.24415824864447,-0.677002268542538,330.660217088331
738213.67983603861648589373,9.1333760592466,-0.677002268542538,330.734071881263
738213.67983612907119095325,9.28108564511043,-0.590838343455306,330.684835352641
738213.67983621940948069096,9.31801304157638,-0.504674418368074,330.721762749107
738213.67983630986418575048,9.25646738079979,-0.590838343455306,330.758690145573
738213.67983640031889081001,9.3303221737317,-0.529292682678711,330.783308409884
738213.67983649077359586954,9.29339477726574,-0.516983550523392,330.795617542039
738213.67983658122830092907,9.40417696666361,-0.418510493280842,330.783308409884
738213.67983667168300598860,9.25646738079979,-0.455437889746798,330.746381013418
738213.67983676213771104813,9.19492172002319,-0.455437889746798,330.586362295399
738213.67983685247600078583,9.37955870235298,-0.283110039572334,330.672526220486
738213.67983694293070584536,9.31801304157638,-0.455437889746798,330.82023580635
738213.67983703338541090488,9.34263130588702,-0.393892228970204,330.857163202816
738213.67983712384011596441,9.29339477726574,-0.43081962543616,330.931017995748
738213.67983721429482102394,9.29339477726574,-0.43081962543616,330.894090599282
738213.67983730474952608347,9.29339477726574,-0.369273964659566,330.931017995748
738213.67983739508781582117,9.37955870235298,-0.295419171727653,330.992563656524
738213.67983748554252088070,9.37955870235298,-0.320037436038291,330.967945392214
738213.67983757599722594023,9.46572262744021,-0.22156437879574,331.00487278868
738213.67983766645193099976,9.42879523097425,-0.258491775261696,330.869472334971
738213.67983775690663605928,9.49034089175085,-0.209255246640421,330.967945392214
738213.67983784736134111881,9.36724957019766,-0.246182643106377,331.02949105299
738213.67983793781604617834,9.44110436312957,-0.147709585863826,331.00487278868
738213.67983802815433591604,9.44110436312957,-0.123091321553189,330.931017995748
738213.67983811860904097557,9.49034089175085,0.0492365286212755,330.955636260058
738213.67983820906374603510,9.40417696666361,-0.135400453708508,330.955636260058
738213.67983829951845109463,9.51495915606148,-0.0369273964659566,330.881781467126
738213.67983838997315615416,9.49034089175085,-0.0123091321553189,330.967945392214
738213.67983848042786121368,9.44110436312957,-0.0861639250872321,331.115654978078
738213.67983857076615095139,9.42879523097425,-0.0246182643106377,331.054109317301
738213.67983866122085601091,9.45341349528489,-0.0246182643106377,331.02949105299
738213.67983875167556107044,9.49034089175085,0.0246182643106377,331.078727581612
738213.67983884213026612997,9.35494043804234,-0.123091321553189,331.02949105299
738213.67983893258497118950,9.44110436312957,-0.123091321553189,330.943327127903
738213.67983902303967624903,9.41648609881893,-0.184636982329783,330.943327127903
738213.67983911349438130856,9.31801304157638,-0.332346568193609,330.967945392214
738213.67983920383267104626,9.36724957019766,-0.295419171727653,330.955636260058
738213.67983929428737610579,9.36724957019766,-0.307728303882972,330.931017995748
738213.67983938474208116531,9.21953998433383,-0.332346568193609,330.967945392214
738213.67983947519678622484,9.29339477726574,-0.418510493280842,330.980254524369
738213.67983956565149128437,9.30570390942106,-0.393892228970204,330.894090599282
738213.67983965610619634390,9.25646738079979,-0.344655700348928,330.894090599282
738213.67983974644448608160,9.26877651295511,-0.43081962543616,331.041800185146
738213.67983983689919114113,9.31801304157638,-0.369273964659566,331.054109317301
738213.67983992735389620066,9.29339477726574,-0.393892228970204,330.918708863592
738213.67984001780860126019,9.36724957019766,-0.406201361125523,331.02949105299
738213.67984010826330631971,9.26877651295511,-0.418510493280842,330.943327127903
738213.67984019871801137924,9.21953998433383,-0.467747021902117,330.906399731437
738213.67984028917271643877,9.14568519140192,-0.566220079144668,330.746381013418
738213.67984037951100617647,9.29339477726574,-0.455437889746798,330.881781467126
738213.67984046996571123600,9.21953998433383,-0.529292682678711,330.943327127903
738213.67984056042041629553,9.31801304157638,-0.504674418368074,330.967945392214
738213.67984065087512135506,9.1333760592466,-0.54160181483403,330.943327127903
738213.67984074132982641459,9.1333760592466,-0.578529211299987,330.894090599282
738213.67984083178453147411,9.3303221737317,-0.480056154057436,330.943327127903
738213.67984092223923653364,9.34263130588702,-0.492365286212755,330.992563656524
738213.67984101257752627134,9.26877651295511,-0.603147475610625,331.00487278868
738213.67984110303223133087,9.24415824864447,-0.578529211299987,331.066418449456
738213.67984119348693639040,9.21953998433383,-0.664693136387219,330.980254524369
738213.67984128394164144993,9.26877651295511,-0.590838343455306,331.041800185146
738213.67984137439634650946,9.24415824864447,-0.590838343455306,330.967945392214
738213.67984146485105156898,9.28108564511043,-0.603147475610625,330.943327127903
738213.67984155518934130669,9.24415824864447,-0.627765739921262,330.955636260058
738213.67984164564404636621,9.18261258786788,-0.627765739921262,330.869472334971
738213.67984173609875142574,9.29339477726574,-0.566220079144668,330.881781467126
738213.67984182655345648527,9.18261258786788,-0.578529211299987,330.881781467126
738213.67984191700816154480,9.15799432355724,-0.640074872076581,330.832544938505
738213.67984200746286660433,9.30570390942106,-0.529292682678711,330.844854070661
738213.67984209791757166386,9.18261258786788,-0.578529211299987,330.881781467126
738213.67984218825586140156,9.21953998433383,-0.603147475610625,330.869472334971
738213.67984227871056646109,9.37955870235298,-0.467747021902117,330.894090599282
738213.67984236916527152061,9.31801304157638,-0.529292682678711,330.955636260058
738213.67984245961997658014,9.3303221737317,-0.54160181483403,330.967945392214
738213.67984255007468163967,9.24415824864447,-0.492365286212755,330.869472334971
738213.67984264052938669920,9.31801304157638,-0.467747021902117,331.00487278868
738213.67984273086767643690,9.30570390942106,-0.467747021902117,331.00487278868
738213.67984282132238149643,9.35494043804234,-0.393892228970204,330.992563656524
738213.67984291177708655596,9.28108564511043,-0.504674418368074,330.992563656524
738213.67984300223179161549,9.21953998433383,-0.529292682678711,330.943327127903
738213.67984309268649667501,9.25646738079979,-0.516983550523392,331.017181920835
738213.67984318314120173454,9.30570390942106,-0.43081962543616,330.967945392214
738213.67984327359590679407,9.17030345571256,-0.566220079144668,330.857163202816
738213.67984336393419653177,9.28108564511043,-0.492365286212755,330.857163202816
738213.67984345438890159130,9.28108564511043,-0.516983550523392,330.857163202816
738213.67984354484360665083,9.20723085217851,-0.492365286212755,330.869472334971
738213.67984363529831171036,9.19492172002319,-0.480056154057436,330.869472334971
738213.67984372575301676989,9.28108564511043,-0.467747021902117,330.918708863592
738213.67984381620772182941,9.12106692709128,-0.455437889746798,330.734071881263
738213.67984390654601156712,9.12106692709128,-0.590838343455306,330.857163202816
738213.67984399700071662664,9.10875779493596,-0.76316619362977,330.844854070661
738213.67984408745542168617,9.23184911648915,-0.578529211299987,330.906399731437
738213.67984417791012674570,9.26877651295511,-0.418510493280842,330.955636260058
738213.67984426836483180523,9.49034089175085,0.0246182643106377,330.869472334971
738213.67984435881953686476,9.63805047761467,0.664693136387219,330.672526220486
738213.67984444927424192429,9.3303221737317,0.283110039572334,330.894090599282
738213.67984453961253166199,8.99797560553809,-0.553910946989349,330.783308409884
738213.67984463006723672152,8.89950254829554,-0.947803175959553,330.807926674195
738213.67984472052194178104,8.97335734122746,-0.837020986561683,330.881781467126
738213.67984481097664684057,9.07183039847001,-0.529292682678711,330.881781467126
738213.67984490143135190010,9.17030345571256,-0.418510493280842,330.857163202816
738213.67984499188605695963,9.15799432355724,-0.467747021902117,330.881781467126
738213.67984508222434669733,9.19492172002319,-0.443128757591479,330.857163202816
738213.67984517267905175686,9.12106692709128,-0.529292682678711,330.82023580635
738213.67984526313375681639,9.10875779493596,-0.529292682678711,330.795617542039
738213.67984535358846187592,9.14568519140192,-0.418510493280842,330.869472334971
738213.67984544404316693544,9.1333760592466,-0.480056154057436,330.857163202816
738213.67984553449787199497,9.24415824864447,-0.406201361125523,330.894090599282
738213.67984562495257705450,9.15799432355724,-0.480056154057436,330.931017995748
738213.67984571529086679220,9.15799432355724,-0.406201361125523,330.82023580635
738213.67984580574557185173,9.20723085217851,-0.344655700348928,330.869472334971
738213.67984589620027691126,9.25646738079979,-0.393892228970204,330.857163202816
738213.67984598665498197079,9.19492172002319,-0.43081962543616,330.943327127903
738213.67984607710968703032,9.29339477726574,-0.332346568193609,330.844854070661
738213.67984616756439208984,9.20723085217851,-0.332346568193609,330.931017995748
738213.67984625801909714937,9.12106692709128,-0.393892228970204,330.980254524369
738213.67984634835738688707,9.29339477726574,-0.246182643106377,330.869472334971
738213.67984643881209194660,9.23184911648915,-0.320037436038291,330.918708863592
738213.67984652926679700613,9.24415824864447,-0.283110039572334,330.931017995748
738213.67984661972150206566,9.23184911648915,-0.258491775261696,330.857163202816
738213.67984671017620712519,9.20723085217851,-0.270800907417015,330.881781467126
738213.67984680063091218472,9.34263130588702,-0.147709585863826,330.881781467126
738213.67984689096920192242,9.29339477726574,-0.172327850174464,330.918708863592
738213.67984698142390698195,9.3303221737317,-0.160018718019145,330.807926674195
738213.67984707187861204147,9.34263130588702,-0.123091321553189,330.955636260058
738213.67984716233331710100,9.37955870235298,-0.0492365286212755,330.931017995748
738213.67984725278802216053,9.28108564511043,-0.135400453708508,330.869472334971
738213.67984734324272722006,9.35494043804234,-0.0615456607765943,330.721762749107
738213.67984743369743227959,9.36724957019766,-0.0369273964659566,330.844854070661
738213.67984752403572201729,9.31801304157638,-0.160018718019145,330.869472334971
738213.67984761449042707682,9.24415824864447,-0.172327850174464,330.807926674195
738213.67984770494513213634,9.26877651295511,-0.135400453708508,330.894090599282
738213.67984779539983719587,9.26877651295511,-0.184636982329783,330.881781467126
738213.67984788585454225540,9.21953998433383,-0.246182643106377,330.795617542039
738213.67984797630924731493,9.19492172002319,-0.307728303882972,330.832544938505
738213.67984806664753705263,9.1333760592466,-0.393892228970204,330.881781467126
738213.67984815710224211216,9.17030345571256,-0.492365286212755,330.931017995748
738213.67984824755694717169,9.14568519140192,-0.480056154057436,330.82023580635
738213.67984833801165223122,9.10875779493596,-0.455437889746798,330.746381013418
738213.67984842846635729074,9.09644866278064,-0.529292682678711,330.844854070661
738213.67984851892106235027,9.09644866278064,-0.54160181483403,330.906399731437
738213.67984860937576740980,9.19492172002319,-0.43081962543616,330.783308409884
738213.67984869971405714750,9.15799432355724,-0.443128757591479,330.758690145573
738213.67984879016876220703,9.1333760592466,-0.480056154057436,330.918708863592
738213.67984888062346726656,9.04721213415937,-0.553910946989349,330.869472334971
738213.67984897107817232609,9.10875779493596,-0.516983550523392,330.844854070661
738213.67984906153287738562,9.20723085217851,-0.406201361125523,330.844854070661
738213.67984915198758244514,9.15799432355724,-0.418510493280842,330.807926674195
738213.67984924232587218285,9.14568519140192,-0.43081962543616,330.844854070661
738213.67984933278057724237,9.17030345571256,-0.393892228970204,330.832544938505
738213.67984942323528230190,9.15799432355724,-0.406201361125523,330.894090599282
738213.67984951368998736143,9.1333760592466,-0.480056154057436,330.844854070661
738213.67984960414469242096,9.09644866278064,-0.480056154057436,330.832544938505
738213.67984969459939748049,9.21953998433383,-0.369273964659566,330.746381013418
738213.67984978505410254002,9.07183039847001,-0.467747021902117,330.844854070661
738213.67984987539239227772,9.14568519140192,-0.418510493280842,330.881781467126
738213.67984996584709733725,9.09644866278064,-0.504674418368074,330.918708863592
738213.67985005630180239677,9.1333760592466,-0.467747021902117,330.844854070661
738213.67985014675650745630,9.10875779493596,-0.492365286212755,330.918708863592
738213.67985023721121251583,9.07183039847001,-0.480056154057436,330.918708863592
738213.67985032766591757536,9.05952126631469,-0.455437889746798,330.918708863592
738213.67985041800420731306,9.05952126631469,-0.529292682678711,330.869472334971
738213.67985050845891237259,8.96104820907214,-0.578529211299987,330.894090599282
738213.67985059891361743212,8.94873907691682,-0.578529211299987,330.906399731437
738213.67985068936832249165,9.15799432355724,-0.393892228970204,330.894090599282
738213.67985077982302755117,9.10875779493596,-0.467747021902117,330.955636260058
738213.67985087027773261070,9.07183039847001,-0.492365286212755,330.734071881263
738213.67985096073243767023,9.07183039847001,-0.467747021902117,330.746381013418
738213.67985105107072740793,9.07183039847001,-0.443128757591479,330.881781467126
738213.67985114152543246746,9.07183039847001,-0.418510493280842,330.881781467126
738213.67985123198013752699,9.08413953062532,-0.467747021902117,330.894090599282
738213.67985132243484258652,9.03490300200405,-0.54160181483403,330.857163202816
738213.67985141288954764605,9.03490300200405,-0.516983550523392,330.931017995748
738213.67985150334425270557,9.04721213415937,-0.615456607765943,330.906399731437
738213.67985159379895776510,9.01028473769341,-0.6523840042319,330.758690145573
738213.67985168413724750280,9.08413953062532,-0.590838343455306,330.807926674195
738213.67985177459195256233,9.08413953062532,-0.578529211299987,330.770999277729
738213.67985186504665762186,9.12106692709128,-0.516983550523392,330.783308409884
738213.67985195550136268139,9.09644866278064,-0.529292682678711,330.807926674195
738213.67985204595606774092,9.09644866278064,-0.54160181483403,330.807926674195
738213.67985213641077280045,9.10875779493596,-0.480056154057436,330.82023580635
738213.67985222674906253815,9.08413953062532,-0.455437889746798,330.844854070661
738213.67985231720376759768,9.05952126631469,-0.480056154057436,330.844854070661
738213.67985240765847265720,9.02259386984873,-0.578529211299987,330.832544938505
738213.67985249811317771673,9.01028473769341,-0.566220079144668,330.857163202816
738213.67985258856788277626,9.05952126631469,-0.516983550523392,330.844854070661
738213.67985267902258783579,9.04721213415937,-0.566220079144668,330.795617542039
738213.67985276947729289532,9.01028473769341,-0.578529211299987,330.82023580635
738213.67985285981558263302,8.98566647338277,-0.603147475610625,330.82023580635
738213.67985295027028769255,8.97335734122746,-0.627765739921262,330.770999277729
738213.67985304072499275208,9.03490300200405,-0.566220079144668,330.807926674195
738213.67985313117969781160,9.01028473769341,-0.553910946989349,330.82023580635
738213.67985322163440287113,8.98566647338277,-0.566220079144668,330.807926674195
738213.67985331208910793066,9.02259386984873,-0.590838343455306,330.832544938505
738213.67985340242739766836,8.98566647338277,-0.713929665008494,330.795617542039
738213.67985349288210272789,9.02259386984873,-0.677002268542538,330.906399731437
738213.67985358333680778742,9.15799432355724,-0.295419171727653,330.82023580635
738213.67985367379151284695,9.44110436312957,0.344655700348928,330.610980559709
738213.67985376424621790648,9.44110436312957,0.640074872076581,330.709453616952
738213.67985385470092296600,9.07183039847001,0.0123091321553189,330.758690145573
738213.67985394515562802553,8.86257515182958,-0.701620532853175,330.844854070661
738213.67985403549391776323,8.75179296243171,-0.910875779493596,330.770999277729
738213.67985412594862282276,8.88719341614022,-0.677002268542538,330.869472334971
738213.67985421640332788229,9.01028473769341,-0.54160181483403,330.857163202816
738213.67985430685803294182,8.97335734122746,-0.578529211299987,330.807926674195
738213.67985439731273800135,9.04721213415937,-0.516983550523392,330.697144484797
738213.67985448776744306087,9.04721213415937,-0.504674418368074,330.832544938505
738213.67985457810573279858,9.04721213415937,-0.54160181483403,330.869472334971
738213.67985466856043785810,8.99797560553809,-0.578529211299987,330.832544938505
738213.67985475901514291763,9.07183039847001,-0.455437889746798,330.844854070661
738213.67985484946984797716,9.05952126631469,-0.529292682678711,330.869472334971
738213.67985493992455303669,9.08413953062532,-0.492365286212755,330.857163202816
738213.67985503037925809622,9.05952126631469,-0.492365286212755,330.844854070661
738213.67985512083396315575,9.07183039847001,-0.443128757591479,330.906399731437
738213.67985521117225289345,9.04721213415937,-0.492365286212755,330.931017995748
738213.67985530162695795298,9.08413953062532,-0.455437889746798,330.807926674195
738213.67985539208166301250,9.09644866278064,-0.418510493280842,330.894090599282
738213.67985548253636807203,9.05952126631469,-0.455437889746798,330.857163202816
738213.67985557299107313156,9.03490300200405,-0.516983550523392,330.795617542039
738213.67985566344577819109,9.09644866278064,-0.43081962543616,330.857163202816
738213.67985575390048325062,9.07183039847001,-0.406201361125523,330.770999277729
738213.67985584423877298832,9.17030345571256,-0.344655700348928,330.82023580635
738213.67985593469347804785,9.14568519140192,-0.356964832504247,330.881781467126
738213.67985602514818310738,9.19492172002319,-0.270800907417015,330.881781467126
738213.67985611560288816690,9.19492172002319,-0.283110039572334,330.869472334971
738213.67985620605759322643,9.20723085217851,-0.283110039572334,330.857163202816
738213.67985629651229828596,9.21953998433383,-0.22156437879574,330.807926674195
738213.67985638685058802366,9.24415824864447,-0.184636982329783,330.844854070661
738213.67985647730529308319,9.21953998433383,-0.172327850174464,330.869472334971
738213.67985656775999814272,9.18261258786788,-0.209255246640421,330.832544938505
738213.67985665821470320225,9.28108564511043,-0.0984730572425509,330.857163202816
738213.67985674866940826178,9.18261258786788,-0.196946114485102,330.869472334971
738213.67985683912411332130,9.20723085217851,-0.135400453708508,330.881781467126
738213.67985692957881838083,9.29339477726574,-0.135400453708508,330.894090599282
738213.67985701991710811853,9.29339477726574,-0.0984730572425509,330.844854070661
738213.67985711037181317806,9.26877651295511,-0.196946114485102,330.807926674195
738213.67985720082651823759,9.17030345571256,-0.258491775261696,330.807926674195
738213.67985729128122329712,9.1333760592466,-0.320037436038291,330.770999277729
738213.67985738173592835665,9.1333760592466,-0.406201361125523,330.795617542039
738213.67985747219063341618,9.1333760592466,-0.406201361125523,330.82023580635
738213.67985756252892315388,9.09644866278064,-0.480056154057436,330.795617542039
738213.67985765298362821341,9.03490300200405,-0.504674418368074,330.783308409884
738213.67985774343833327293,9.07183039847001,-0.406201361125523,330.795617542039
738213.67985783389303833246,9.05952126631469,-0.492365286212755,330.758690145573
738213.67985792434774339199,9.05952126631469,-0.529292682678711,330.475580106001
738213.67985801480244845152,9.08413953062532,-0.566220079144668,330.672526220486
738213.67985810525715351105,9.09644866278064,-0.54160181483403,330.832544938505
738213.67985819559544324875,9.09644866278064,-0.516983550523392,330.783308409884
738213.67985828605014830828,9.09644866278064,-0.516983550523392,330.795617542039
738213.67985837650485336781,9.09644866278064,-0.504674418368074,330.770999277729
738213.67985846695955842733,9.09644866278064,-0.492365286212755,330.82023580635
738213.67985855741426348686,9.09644866278064,-0.455437889746798,330.770999277729
738213.67985864786896854639,9.08413953062532,-0.455437889746798,330.697144484797
738213.67985873820725828409,9.05952126631469,-0.553910946989349,330.795617542039
738213.67985882866196334362,9.04721213415937,-0.504674418368074,330.770999277729
738213.67985891911666840315,9.07183039847001,-0.492365286212755,330.783308409884
738213.67985900957137346268,9.05952126631469,-0.492365286212755,330.807926674195
738213.67985910002607852221,9.07183039847001,-0.43081962543616,330.832544938505
738213.67985919048078358173,9.08413953062532,-0.590838343455306,330.857163202816
738213.67985928093548864126,9.05952126631469,-0.553910946989349,330.832544938505
738213.67985937127377837896,9.05952126631469,-0.529292682678711,330.844854070661
738213.67985946172848343849,9.04721213415937,-0.443128757591479,330.857163202816
738213.67985955218318849802,8.97335734122746,-0.54160181483403,330.807926674195
738213.67985964263789355755,8.96104820907214,-0.590838343455306,330.869472334971
738213.67985973309259861708,9.01028473769341,-0.480056154057436,330.906399731437
738213.67985982354730367661,9.03490300200405,-0.43081962543616,330.931017995748
738213.67985991388559341431,8.97335734122746,-0.467747021902117,330.906399731437
738213.67986000434029847383,8.96104820907214,-0.43081962543616,330.918708863592
738213.67986009479500353336,8.98566647338277,-0.393892228970204,330.918708863592
738213.67986018524970859289,8.97335734122746,-0.406201361125523,330.894090599282
738213.67986027570441365242,8.9364299447615,-0.480056154057436,330.894090599282
738213.67986036615911871195,9.10875779493596,-0.418510493280842,330.943327127903
738213.67986045661382377148,9.10875779493596,-0.369273964659566,330.844854070661
738213.67986054695211350918,9.07183039847001,-0.443128757591479,330.758690145573
738213.67986063740681856871,9.09644866278064,-0.516983550523392,330.82023580635
738213.67986072786152362823,9.18261258786788,-0.455437889746798,330.869472334971
738213.67986081831622868776,9.15799432355724,-0.406201361125523,330.721762749107
738213.67986090877093374729,9.17030345571256,-0.356964832504247,330.672526220486
738213.67986099922563880682,9.12106692709128,-0.553910946989349,330.734071881263
738213.67986108968034386635,9.01028473769341,-0.480056154057436,330.746381013418
738213.67986118001863360405,9.01028473769341,-0.443128757591479,330.734071881263
738213.67986127047333866358,9.01028473769341,-0.467747021902117,330.795617542039
738213.67986136092804372311,8.9364299447615,-0.504674418368074,330.734071881263
738213.67986145138274878263,9.03490300200405,-0.406201361125523,330.598671427554
738213.67986154183745384216,9.02259386984873,-0.455437889746798,330.647907956175
738213.67986163229215890169,9.01028473769341,-0.480056154057436,330.758690145573
738213.67986172263044863939,8.9364299447615,-0.54160181483403,330.832544938505
738213.67986181308515369892,9.03490300200405,-0.480056154057436,330.869472334971
738213.67986190353985875845,9.08413953062532,-0.43081962543616,330.770999277729
738213.67986199399456381798,9.12106692709128,-0.480056154057436,330.832544938505
738213.67986208444926887751,9.1333760592466,-0.504674418368074,330.82023580635
738213.67986217490397393703,9.18261258786788,-0.467747021902117,330.844854070661
738213.67986226535867899656,9.21953998433383,-0.443128757591479,330.758690145573
738213.67986235569696873426,9.20723085217851,-0.443128757591479,330.857163202816
738213.67986244615167379379,9.12106692709128,-0.467747021902117,330.869472334971
738213.67986253660637885332,9.08413953062532,-0.492365286212755,330.844854070661
738213.67986262706108391285,9.03490300200405,-0.627765739921262,330.931017995748
738213.67986271751578897238,9.05952126631469,-0.529292682678711,330.980254524369
738213.67986280797049403191,9.02259386984873,-0.529292682678711,330.894090599282
738213.67986289830878376961,8.97335734122746,-0.566220079144668,330.955636260058
738213.67986298876348882914,8.96104820907214,-0.516983550523392,330.955636260058
738213.67986307921819388866,8.92412081260618,-0.553910946989349,330.906399731437
738213.67986316967289894819,8.97335734122746,-0.566220079144668,330.931017995748
738213.67986326012760400772,9.01028473769341,-0.529292682678711,330.955636260058
738213.67986335058230906725,9.01028473769341,-0.529292682678711,330.943327127903
738213.67986344103701412678,9.03490300200405,-0.54160181483403,330.894090599282
738213.67986353137530386448,9.01028473769341,-0.726238797163813,330.881781467126
738213.67986362183000892401,9.08413953062532,-0.578529211299987,330.980254524369
738213.67986371228471398354,9.28108564511043,-0.147709585863826,330.918708863592
738213.67986380273941904306,9.66266874192531,0.516983550523392,330.672526220486
738213.67986389319412410259,9.49034089175085,0.6523840042319,330.857163202816
738213.67986398364882916212,9.19492172002319,-0.0492365286212755,330.746381013418
738213.67986407398711889982,8.88719341614022,-0.775475325785089,330.758690145573
738213.67986416444182395935,8.76410209458703,-0.910875779493596,330.758690145573
738213.67986425489652901888,9.03490300200405,-0.590838343455306,330.795617542039
738213.67986434535123407841,9.12106692709128,-0.455437889746798,330.807926674195
738213.67986443580593913794,9.10875779493596,-0.443128757591479,330.783308409884
738213.67986452626064419746,9.10875779493596,-0.406201361125523,330.770999277729
738213.67986461671534925699,9.10875779493596,-0.418510493280842,330.758690145573
