time_dn,ecg_projection_ll_ra_mV,ecg_projection_la_ra_mV,ecg_projection_vx_rl_mV
738213.70283970597665756941,10.6720175786615,0.184636982329783,331.02949105299
738213.70283979643136262894,10.6104719178849,0.123091321553189,330.943327127903
738213.70283988676965236664,10.5981627857295,0.0984730572425509,330.844854070661
738213.70283997722435742617,10.5858536535742,0.0615456607765943,330.943327127903
738213.70284006767906248569,10.5612353892636,0.0369273964659566,331.00487278868
738213.70284015813376754522,10.5489262571083,0.0123091321553189,331.017181920835
738213.70284024858847260475,10.5489262571083,0.0123091321553189,330.992563656524
738213.70284033904317766428,10.536617124953,0.0123091321553189,330.967945392214
738213.70284042938146740198,10.536617124953,0.0123091321553189,330.992563656524
738213.70284051983617246151,10.5489262571083,0.0246182643106377,330.992563656524
738213.70284061029087752104,10.536617124953,0.0123091321553189,330.992563656524
738213.70284070074558258057,10.536617124953,0.0123091321553189,331.02949105299
738213.70284079120028764009,10.5735445214189,0.0492365286212755,331.078727581612
738213.70284088165499269962,10.5735445214189,0.0492365286212755,331.091036713767
738213.70284097199328243732,10.5489262571083,0.0369273964659566,331.041800185146
738213.70284106244798749685,10.5489262571083,0.0369273964659566,331.127964110233
738213.70284115290269255638,10.536617124953,0.0369273964659566,331.127964110233
738213.70284124335739761591,10.5612353892636,0.0492365286212755,331.041800185146
738213.70284133381210267544,10.5489262571083,0.0492365286212755,331.091036713767
738213.70284142426680773497,10.5489262571083,0.0369273964659566,331.078727581612
738213.70284151460509747267,10.536617124953,0.0246182643106377,331.091036713767
738213.70284160505980253220,10.5489262571083,0.0369273964659566,331.02949105299
738213.70284169551450759172,10.5489262571083,0.0492365286212755,331.091036713767
738213.70284178596921265125,10.5735445214189,0.0738547929319132,331.091036713767
738213.70284187642391771078,10.5489262571083,0.0615456607765943,331.054109317301
738213.70284196687862277031,10.536617124953,0.0369273964659566,331.091036713767
738213.70284205721691250801,10.536617124953,0.0369273964659566,331.078727581612
738213.70284214767161756754,10.536617124953,0.0369273964659566,331.103345845922
738213.70284223812632262707,10.536617124953,0.0369273964659566,331.054109317301
738213.70284232858102768660,10.536617124953,0.0492365286212755,331.152582374543
738213.70284241903573274612,10.536617124953,0.0492365286212755,331.115654978078
738213.70284250949043780565,10.536617124953,0.0492365286212755,331.041800185146
738213.70284259982872754335,10.5489262571083,0.0492365286212755,331.078727581612
738213.70284269028343260288,10.5489262571083,0.0615456607765943,330.980254524369
738213.70284278073813766241,10.536617124953,0.0492365286212755,330.992563656524
738213.70284287119284272194,10.536617124953,0.0492365286212755,331.00487278868
738213.70284296164754778147,10.5489262571083,0.0615456607765943,331.017181920835
738213.70284305210225284100,10.5243079927976,0.0369273964659566,331.02949105299
738213.70284314244054257870,10.5119988606423,0.0369273964659566,331.00487278868
738213.70284323289524763823,10.5489262571083,0.0738547929319132,331.017181920835
738213.70284332334995269775,10.536617124953,0.0738547929319132,331.00487278868
738213.70284341380465775728,10.536617124953,0.0738547929319132,330.918708863592
738213.70284350425936281681,10.5489262571083,0.0615456607765943,331.054109317301
738213.70284359471406787634,10.5489262571083,0.0615456607765943,331.078727581612
738213.70284368505235761404,10.5735445214189,0.0738547929319132,331.091036713767
738213.70284377550706267357,10.5735445214189,0.0861639250872321,331.091036713767
738213.70284386596176773310,10.5735445214189,0.0738547929319132,330.992563656524
738213.70284395641647279263,10.5858536535742,0.11078218939787,330.992563656524
738213.70284404687117785215,10.6104719178849,0.147709585863826,331.017181920835
738213.70284413732588291168,10.5981627857295,0.147709585863826,331.078727581612
738213.70284422766417264938,10.5981627857295,0.160018718019145,331.091036713767
738213.70284431811887770891,10.5735445214189,0.147709585863826,331.091036713767
738213.70284440857358276844,10.536617124953,0.123091321553189,331.127964110233
738213.70284449902828782797,10.5119988606423,0.0861639250872321,331.091036713767
738213.70284458948299288750,10.5489262571083,0.0861639250872321,331.078727581612
738213.70284467993769794703,10.5243079927976,0.0861639250872321,331.091036713767
738213.70284477027598768473,10.5243079927976,0.0984730572425509,331.066418449456
738213.70284486073069274426,10.5243079927976,0.0984730572425509,331.091036713767
738213.70284495118539780378,10.5243079927976,0.0861639250872321,331.115654978078
738213.70284504164010286331,10.5119988606423,0.0984730572425509,331.078727581612
738213.70284513209480792284,10.5119988606423,0.0984730572425509,331.066418449456
738213.70284522254951298237,10.5119988606423,0.0738547929319132,331.017181920835
738213.70284531288780272007,10.4873805963317,-0.0492365286212755,331.02949105299
738213.70284540334250777960,10.5243079927976,-0.0492365286212755,331.066418449456
738213.70284549379721283913,10.6473993143508,0.270800907417015,331.140273242388
738213.70284558425191789865,10.8935819574572,0.800093590095726,330.943327127903
738213.70284567470662295818,11.1151463362529,1.29245887630848,330.857163202816
738213.70284576516132801771,10.7581815037487,0.849330118717002,330.967945392214
738213.70284585549961775541,10.3889075390891,0.0246182643106377,331.02949105299
738213.70284594595432281494,10.2904344818466,-0.246182643106377,331.02949105299
738213.70284603640902787447,10.4381440677104,-0.0123091321553189,331.054109317301
738213.70284612686373293400,10.5612353892636,0.123091321553189,331.078727581612
738213.70284621731843799353,10.5735445214189,0.123091321553189,330.980254524369
738213.70284630777314305305,10.5735445214189,0.123091321553189,331.078727581612
738213.70284639811143279076,10.5735445214189,0.123091321553189,331.103345845922
738213.70284648856613785028,10.5735445214189,0.147709585863826,331.066418449456
738213.70284657902084290981,10.5858536535742,0.147709585863826,331.078727581612
738213.70284666947554796934,10.5858536535742,0.147709585863826,331.078727581612
738213.70284675993025302887,10.5858536535742,0.172327850174464,331.091036713767
738213.70284685038495808840,10.5735445214189,0.172327850174464,330.992563656524
738213.70284694072324782610,10.5981627857295,0.184636982329783,330.918708863592
738213.70284703117795288563,10.6227810500402,0.196946114485102,331.041800185146
738213.70284712163265794516,10.6104719178849,0.196946114485102,331.017181920835
738213.70284721208736300468,10.6104719178849,0.209255246640421,331.017181920835
738213.70284730254206806421,10.6227810500402,0.209255246640421,331.017181920835
738213.70284739299677312374,10.6350901821955,0.22156437879574,331.017181920835
738213.70284748333506286144,10.6350901821955,0.22156437879574,331.017181920835
738213.70284757378976792097,10.6597084465061,0.246182643106377,331.054109317301
738213.70284766424447298050,10.6720175786615,0.283110039572334,331.041800185146
738213.70284775469917804003,10.6843267108168,0.307728303882972,330.992563656524
738213.70284784515388309956,10.7212541072827,0.344655700348928,331.066418449456
738213.70284793560858815908,10.7335632394381,0.369273964659566,331.017181920835
738213.70284802594687789679,10.7458723715934,0.406201361125523,331.00487278868
738213.70284811640158295631,10.770490635904,0.455437889746798,331.00487278868
738213.70284820685628801584,10.7951089002146,0.504674418368074,331.041800185146
738213.70284829731099307537,10.80741803237,0.516983550523392,331.041800185146
738213.70284838776569813490,10.8197271645253,0.566220079144668,331.041800185146
738213.70284847822040319443,10.8320362966806,0.603147475610625,331.078727581612
738213.70284856855869293213,10.8566545609912,0.627765739921262,331.103345845922
738213.70284865901339799166,10.8689636931466,0.640074872076581,331.066418449456
738213.70284874946810305119,10.8443454288359,0.627765739921262,331.127964110233
738213.70284883992280811071,10.8443454288359,0.603147475610625,331.103345845922
738213.70284893037751317024,10.8320362966806,0.578529211299987,331.115654978078
738213.70284902083221822977,10.7951089002146,0.504674418368074,331.017181920835
738213.70284911117050796747,10.7581815037487,0.443128757591479,331.054109317301
738213.70284920162521302700,10.7212541072827,0.381583096814885,331.066418449456
738213.70284929207991808653,10.6473993143508,0.283110039572334,331.115654978078
738213.70284938253462314606,10.6597084465061,0.283110039572334,331.091036713767
738213.70284947298932820559,10.6597084465061,0.270800907417015,331.066418449456
738213.70284956344403326511,10.6473993143508,0.246182643106377,331.091036713767
738213.70284965378232300282,10.6227810500402,0.233873510951058,331.115654978078
738213.70284974423702806234,10.6227810500402,0.22156437879574,331.02949105299
738213.70284983469173312187,10.6350901821955,0.233873510951058,331.127964110233
738213.70284992514643818140,10.6227810500402,0.233873510951058,331.103345845922
738213.70285001560114324093,10.6227810500402,0.233873510951058,331.078727581612
738213.70285010605584830046,10.6227810500402,0.22156437879574,331.091036713767
738213.70285019639413803816,10.6104719178849,0.209255246640421,331.115654978078
738213.70285028684884309769,10.6227810500402,0.22156437879574,331.091036713767
738213.70285037730354815722,10.6227810500402,0.233873510951058,331.066418449456
738213.70285046775825321674,10.6227810500402,0.233873510951058,330.967945392214
738213.70285055821295827627,10.6104719178849,0.209255246640421,331.091036713767
738213.70285064866766333580,10.6473993143508,0.258491775261696,331.091036713767
738213.70285073900595307350,10.6350901821955,0.233873510951058,331.00487278868
738213.70285082946065813303,10.6104719178849,0.233873510951058,331.127964110233
738213.70285091991536319256,10.6227810500402,0.246182643106377,331.103345845922
738213.70285101037006825209,10.6227810500402,0.233873510951058,331.041800185146
738213.70285110082477331161,10.6104719178849,0.233873510951058,331.017181920835
738213.70285119127947837114,10.6104719178849,0.22156437879574,331.078727581612
738213.70285128161776810884,10.6104719178849,0.233873510951058,331.091036713767
738213.70285137207247316837,10.6350901821955,0.246182643106377,331.115654978078
738213.70285146252717822790,10.6104719178849,0.22156437879574,331.041800185146
738213.70285155298188328743,10.6227810500402,0.233873510951058,331.078727581612
738213.70285164343658834696,10.5858536535742,0.209255246640421,331.091036713767
738213.70285173389129340649,10.6104719178849,0.233873510951058,331.017181920835
738213.70285182422958314419,10.5612353892636,0.184636982329783,331.041800185146
738213.70285191468428820372,10.6104719178849,0.233873510951058,331.115654978078
738213.70285200513899326324,10.5735445214189,0.196946114485102,331.115654978078
738213.70285209559369832277,10.5735445214189,0.196946114485102,331.02949105299
738213.70285218604840338230,10.5489262571083,0.184636982329783,331.041800185146
738213.70285227650310844183,10.5981627857295,0.22156437879574,331.02949105299
738213.70285236684139817953,10.5612353892636,0.196946114485102,330.980254524369
738213.70285245729610323906,10.5858536535742,0.233873510951058,331.017181920835
738213.70285254775080829859,10.5735445214189,0.209255246640421,331.00487278868
738213.70285263820551335812,10.6350901821955,0.270800907417015,330.980254524369
738213.70285272866021841764,10.6104719178849,0.246182643106377,330.980254524369
738213.70285281911492347717,10.5858536535742,0.233873510951058,331.017181920835
738213.70285290945321321487,10.5243079927976,0.172327850174464,330.992563656524
738213.70285299990791827440,10.6350901821955,0.283110039572334,330.967945392214
738213.70285309036262333393,10.5735445214189,0.209255246640421,331.02949105299
738213.70285318081732839346,10.5981627857295,0.233873510951058,331.041800185146
738213.70285327127203345299,10.6843267108168,0.320037436038291,331.00487278868
738213.70285336172673851252,10.6473993143508,0.270800907417015,330.967945392214
738213.70285345206502825022,10.6473993143508,0.270800907417015,331.041800185146
738213.70285354251973330975,10.770490635904,0.393892228970204,331.02949105299
738213.70285363297443836927,10.770490635904,0.381583096814885,331.017181920835
738213.70285372342914342880,10.7827997680593,0.393892228970204,330.955636260058
738213.70285381388384848833,10.8197271645253,0.443128757591479,330.992563656524
738213.70285390433855354786,10.9058910896125,0.553910946989349,331.00487278868
738213.70285399467684328556,10.8320362966806,0.492365286212755,330.906399731437
738213.70285408513154834509,10.80741803237,0.455437889746798,331.054109317301
738213.70285417558625340462,10.770490635904,0.406201361125523,331.103345845922
738213.70285426604095846415,10.7212541072827,0.344655700348928,331.066418449456
738213.70285435649566352367,10.80741803237,0.443128757591479,330.992563656524
738213.70285444695036858320,10.7089449751274,0.332346568193609,331.066418449456
738213.70285453728865832090,10.7212541072827,0.356964832504247,331.078727581612
738213.70285462774336338043,10.7335632394381,0.369273964659566,331.00487278868
738213.70285471819806843996,10.6720175786615,0.295419171727653,331.091036713767
738213.70285480865277349949,10.6473993143508,0.283110039572334,331.078727581612
738213.70285489910747855902,10.6597084465061,0.295419171727653,330.967945392214
738213.70285498956218361855,10.7089449751274,0.332346568193609,331.017181920835
738213.70285507990047335625,10.5981627857295,0.135400453708508,330.980254524369
738213.70285517035517841578,10.7212541072827,0.246182643106377,331.02949105299
738213.70285526080988347530,10.8320362966806,0.603147475610625,330.943327127903
738213.70285535126458853483,11.078218939787,1.13244015828934,330.783308409884
738213.70285544171929359436,11.1274554684083,1.47709585863826,330.684835352641
738213.70285553217399865389,10.8320362966806,0.960112308114872,330.783308409884
738213.70285562251228839159,10.6473993143508,0.529292682678711,330.869472334971
738213.70285571296699345112,10.462762332021,0.0369273964659566,330.869472334971
738213.70285580342169851065,10.4873805963317,0.0861639250872321,330.967945392214
738213.70285589387640357018,10.6227810500402,0.320037436038291,330.992563656524
738213.70285598433110862970,10.6227810500402,0.307728303882972,331.017181920835
738213.70285607478581368923,10.6966358429721,0.369273964659566,330.943327127903
738213.70285616512410342693,10.6473993143508,0.307728303882972,330.980254524369
738213.70285625557880848646,10.6104719178849,0.295419171727653,330.967945392214
738213.70285634603351354599,10.6473993143508,0.295419171727653,330.918708863592
738213.70285643648821860552,10.5981627857295,0.246182643106377,330.881781467126
738213.70285652694292366505,10.6104719178849,0.246182643106377,330.906399731437
738213.70285661739762872458,10.6227810500402,0.246182643106377,330.906399731437
738213.70285670773591846228,10.6473993143508,0.270800907417015,330.918708863592
738213.70285679819062352180,10.5489262571083,0.196946114485102,330.918708863592
738213.70285688864532858133,10.6843267108168,0.344655700348928,330.906399731437
738213.70285697910003364086,10.5981627857295,0.246182643106377,330.906399731437
738213.70285706955473870039,10.5858536535742,0.22156437879574,330.844854070661
738213.70285716000944375992,10.6104719178849,0.233873510951058,330.869472334971
738213.70285725034773349762,10.6104719178849,0.233873510951058,330.869472334971
738213.70285734080243855715,10.5981627857295,0.22156437879574,330.894090599282
738213.70285743125714361668,10.6473993143508,0.270800907417015,330.82023580635
738213.70285752171184867620,10.6227810500402,0.258491775261696,330.770999277729
738213.70285761216655373573,10.5612353892636,0.233873510951058,330.832544938505
738213.70285770262125879526,10.7089449751274,0.356964832504247,330.857163202816
738213.70285779295954853296,10.7335632394381,0.406201361125523,330.857163202816
738213.70285788341425359249,10.7335632394381,0.418510493280842,330.931017995748
738213.70285797386895865202,10.770490635904,0.504674418368074,330.894090599282
738213.70285806432366371155,10.770490635904,0.529292682678711,330.931017995748
738213.70285815477836877108,10.80741803237,0.566220079144668,330.955636260058
738213.70285824523307383060,10.8197271645253,0.590838343455306,330.943327127903
738213.70285833557136356831,10.8443454288359,0.6523840042319,330.931017995748
738213.70285842602606862783,10.8443454288359,0.677002268542538,331.017181920835
738213.70285851648077368736,10.8566545609912,0.689311400697857,330.992563656524
738213.70285860693547874689,10.8443454288359,0.6523840042319,330.894090599282
738213.70285869739018380642,10.8443454288359,0.615456607765943,330.931017995748
738213.70285878784488886595,10.8320362966806,0.578529211299987,330.931017995748
738213.70285887818317860365,10.7951089002146,0.492365286212755,330.832544938505
738213.70285896863788366318,10.7335632394381,0.418510493280842,330.931017995748
738213.70285905909258872271,10.7335632394381,0.393892228970204,330.931017995748
738213.70285914954729378223,10.7089449751274,0.356964832504247,330.955636260058
738213.70285924000199884176,10.6227810500402,0.283110039572334,330.894090599282
738213.70285933045670390129,10.5981627857295,0.233873510951058,330.783308409884
738213.70285942079499363899,10.5612353892636,0.196946114485102,330.844854070661
738213.70285951124969869852,10.5735445214189,0.22156437879574,330.881781467126
738213.70285960170440375805,10.5119988606423,0.172327850174464,330.906399731437
738213.70285969215910881758,10.499689728487,0.11078218939787,330.894090599282
738213.70285978261381387711,10.4135258033998,0.0738547929319132,330.918708863592
738213.70285987306851893663,10.4012166712444,0.0246182643106377,330.881781467126
738213.70285996340680867434,10.4012166712444,0.0123091321553189,330.844854070661
738213.70286005386151373386,10.3642892747785,-0.0123091321553189,330.869472334971
738213.70286014431621879339,10.4012166712444,0,330.869472334971
738213.70286023477092385292,10.3519801426232,0,330.869472334971
738213.70286032522562891245,10.3396710104678,-0.0246182643106377,330.881781467126
738213.70286041568033397198,10.4135258033998,-0.0123091321553189,330.918708863592
738213.70286050601862370968,10.3765984069338,0,330.967945392214
738213.70286059647332876921,10.4012166712444,0.0123091321553189,330.918708863592
738213.70286068692803382874,10.3396710104678,-0.0492365286212755,330.943327127903
738213.70286077738273888826,10.3765984069338,-0.0246182643106377,330.943327127903
738213.70286086783744394779,10.3765984069338,-0.0246182643106377,330.869472334971
738213.70286095829214900732,10.3765984069338,-0.0369273964659566,330.894090599282
738213.70286104863043874502,10.3889075390891,-0.0492365286212755,330.783308409884
738213.70286113908514380455,10.4135258033998,-0.0492365286212755,330.906399731437
738213.70286122953984886408,10.3519801426232,-0.0861639250872321,330.955636260058
738213.70286131999455392361,10.3765984069338,-0.0123091321553189,330.906399731437
738213.70286141044925898314,10.3765984069338,-0.0615456607765943,330.943327127903
738213.70286150090396404266,10.3519801426232,-0.0492365286212755,330.931017995748
738213.70286159124225378036,10.3889075390891,-0.0615456607765943,330.967945392214
738213.70286168169695883989,10.3765984069338,-0.0738547929319132,330.906399731437
738213.70286177215166389942,10.3396710104678,-0.11078218939787,330.943327127903
738213.70286186260636895895,10.3889075390891,-0.0984730572425509,330.894090599282
738213.70286195306107401848,10.4012166712444,-0.0861639250872321,330.931017995748
738213.70286204351577907801,10.3642892747785,-0.0738547929319132,330.980254524369
738213.70286213385406881571,10.3889075390891,-0.11078218939787,331.00487278868
738213.70286222430877387524,10.3765984069338,-0.0738547929319132,330.881781467126
738213.70286231476347893476,10.4012166712444,-0.0861639250872321,330.894090599282
738213.70286240521818399429,10.3765984069338,-0.0738547929319132,330.918708863592
738213.70286249567288905382,10.462762332021,-0.0738547929319132,330.894090599282
738213.70286258612759411335,10.4258349355551,-0.0615456607765943,330.881781467126
738213.70286267646588385105,10.4258349355551,-0.0615456607765943,330.894090599282
738213.70286276692058891058,10.4135258033998,-0.0738547929319132,330.955636260058
738213.70286285737529397011,10.4135258033998,-0.0738547929319132,330.894090599282
738213.70286294782999902964,10.4873805963317,-0.0369273964659566,330.931017995748
738213.70286303828470408916,10.462762332021,-0.0492365286212755,330.894090599282
738213.70286312873940914869,10.4258349355551,-0.0615456607765943,330.894090599282
738213.70286321907769888639,10.499689728487,-0.0246182643106377,330.918708863592
738213.70286330953240394592,10.5243079927976,0.0369273964659566,330.869472334971
738213.70286339998710900545,10.4873805963317,0,330.931017995748
738213.70286349044181406498,10.4873805963317,0.0246182643106377,330.967945392214
738213.70286358089651912451,10.462762332021,0.0123091321553189,330.894090599282
738213.70286367135122418404,10.4504531998657,-0.0369273964659566,330.980254524369
738213.70286376168951392174,10.3889075390891,-0.0738547929319132,331.02949105299
738213.70286385214421898127,10.4258349355551,-0.0861639250872321,330.894090599282
738213.70286394259892404079,10.3765984069338,-0.123091321553189,330.992563656524
738213.70286403305362910032,10.4012166712444,-0.0984730572425509,330.992563656524
738213.70286412350833415985,10.4012166712444,-0.0984730572425509,330.967945392214
738213.70286421396303921938,10.4012166712444,-0.0861639250872321,330.918708863592
738213.70286430441774427891,10.4258349355551,-0.0861639250872321,330.967945392214
738213.70286439475603401661,10.3889075390891,-0.0984730572425509,330.992563656524
738213.70286448521073907614,10.4012166712444,-0.0861639250872321,330.906399731437
738213.70286457566544413567,10.4012166712444,-0.135400453708508,330.770999277729
738213.70286466612014919519,10.3519801426232,-0.258491775261696,330.918708863592
738213.70286475657485425472,10.4135258033998,-0.147709585863826,330.980254524369
738213.70286484702955931425,10.6720175786615,0.356964832504247,330.980254524369
738213.70286493736784905195,10.9428184860785,0.861639250872321,330.709453616952
738213.70286502782255411148,10.8566545609912,0.886257515182958,330.63559882402
738213.70286511827725917101,10.5489262571083,0.196946114485102,330.721762749107
738213.70286520873196423054,10.2411979532253,-0.43081962543616,330.881781467126
738213.70286529918666929007,10.1550340281381,-0.455437889746798,330.967945392214
738213.70286538964137434959,10.3027436140019,-0.258491775261696,330.943327127903
738213.70286547997966408730,10.4135258033998,-0.123091321553189,330.869472334971
738213.70286557043436914682,10.4135258033998,-0.135400453708508,330.918708863592
738213.70286566088907420635,10.4135258033998,-0.11078218939787,330.955636260058
738213.70286575134377926588,10.4135258033998,-0.123091321553189,331.00487278868
738213.70286584179848432541,10.4135258033998,-0.0861639250872321,331.041800185146
738213.70286593225318938494,10.4750714641764,-0.0861639250872321,330.906399731437
738213.70286602259147912264,10.462762332021,-0.0861639250872321,330.931017995748
738213.70286611304618418217,10.4258349355551,-0.0738547929319132,330.943327127903
738213.70286620350088924170,10.4504531998657,-0.0615456607765943,330.992563656524
738213.70286629395559430122,10.4381440677104,-0.0492365286212755,331.066418449456
738213.70286638441029936075,10.4258349355551,-0.0492365286212755,331.017181920835
738213.70286647486500442028,10.4381440677104,-0.0369273964659566,331.02949105299
738213.70286656520329415798,10.462762332021,-0.0369273964659566,331.054109317301
738213.70286665565799921751,10.462762332021,-0.0246182643106377,331.017181920835
738213.70286674611270427704,10.4873805963317,0,330.931017995748
738213.70286683656740933657,10.4873805963317,0.0123091321553189,331.02949105299
738213.70286692702211439610,10.4873805963317,0.0492365286212755,331.041800185146
738213.70286701747681945562,10.499689728487,0.0492365286212755,330.980254524369
738213.70286710781510919333,10.5243079927976,0.0861639250872321,331.00487278868
738213.70286719826981425285,10.536617124953,0.123091321553189,331.041800185146
738213.70286728872451931238,10.5735445214189,0.147709585863826,331.00487278868
738213.70286737917922437191,10.5858536535742,0.196946114485102,330.992563656524
738213.70286746963392943144,10.5981627857295,0.246182643106377,331.017181920835
738213.70286756008863449097,10.6227810500402,0.295419171727653,331.041800185146
738213.70286765042692422867,10.6227810500402,0.344655700348928,330.980254524369
738213.70286774088162928820,10.6473993143508,0.356964832504247,331.02949105299
738213.70286783133633434772,10.6597084465061,0.381583096814885,331.066418449456
738213.70286792179103940725,10.6720175786615,0.406201361125523,330.992563656524
738213.70286801224574446678,10.6473993143508,0.43081962543616,330.943327127903
738213.70286810270044952631,10.6720175786615,0.418510493280842,330.906399731437
738213.70286819303873926401,10.6720175786615,0.369273964659566,330.943327127903
738213.70286828349344432354,10.6350901821955,0.295419171727653,330.918708863592
738213.70286837394814938307,10.6227810500402,0.22156437879574,330.931017995748
738213.70286846440285444260,10.5612353892636,0.147709585863826,330.918708863592
738213.70286855485755950212,10.536617124953,0.0738547929319132,330.894090599282
738213.70286864531226456165,10.462762332021,0,330.881781467126
738213.70286873565055429935,10.4504531998657,-0.0246182643106377,330.992563656524
738213.70286882610525935888,10.4135258033998,-0.0492365286212755,330.980254524369
738213.70286891655996441841,10.4381440677104,-0.0492365286212755,330.931017995748
738213.70286900701466947794,10.4258349355551,-0.0615456607765943,331.017181920835
738213.70286909746937453747,10.4135258033998,-0.0738547929319132,331.00487278868
738213.70286918792407959700,10.4012166712444,-0.0738547929319132,331.054109317301
738213.70286927826236933470,10.4012166712444,-0.0738547929319132,330.967945392214
738213.70286936871707439423,10.4012166712444,-0.0738547929319132,331.00487278868
738213.70286945917177945375,10.3889075390891,-0.0861639250872321,330.955636260058
738213.70286954962648451328,10.3889075390891,-0.0738547929319132,331.02949105299
738213.70286964008118957281,10.4012166712444,-0.0738547929319132,331.017181920835
738213.70286973053589463234,10.4012166712444,-0.0615456607765943,331.041800185146
738213.70286982087418437004,10.3889075390891,-0.0738547929319132,331.078727581612
738213.70286991132888942957,10.4135258033998,-0.0615456607765943,331.02949105299
738213.70287000178359448910,10.4135258033998,-0.0492365286212755,331.091036713767
738213.70287009223829954863,10.4135258033998,-0.0615456607765943,331.066418449456
738213.70287018269300460815,10.4012166712444,-0.0738547929319132,331.00487278868
738213.70287027314770966768,10.3889075390891,-0.0615456607765943,331.054109317301
738213.70287036348599940538,10.4135258033998,-0.0738547929319132,330.992563656524
738213.70287045394070446491,10.4012166712444,-0.0738547929319132,331.078727581612
738213.70287054439540952444,10.3889075390891,-0.0861639250872321,331.041800185146
738213.70287063485011458397,10.4012166712444,-0.0738547929319132,331.041800185146
738213.70287072530481964350,10.3765984069338,-0.0861639250872321,331.017181920835
738213.70287081575952470303,10.4012166712444,-0.0861639250872321,331.054109317301
738213.70287090609781444073,10.3642892747785,-0.0861639250872321,331.054109317301
738213.70287099655251950026,10.3642892747785,-0.11078218939787,331.017181920835
738213.70287108700722455978,10.3765984069338,-0.11078218939787,331.041800185146
738213.70287117746192961931,10.3765984069338,-0.0984730572425509,331.041800185146
738213.70287126791663467884,10.3765984069338,-0.0861639250872321,331.054109317301
738213.70287135837133973837,10.3642892747785,-0.0984730572425509,331.054109317301
738213.70287144870962947607,10.3765984069338,-0.11078218939787,331.091036713767
738213.70287153916433453560,10.3642892747785,-0.0984730572425509,331.02949105299
738213.70287162961903959513,10.3765984069338,-0.0984730572425509,330.918708863592
738213.70287172007374465466,10.3765984069338,-0.0984730572425509,331.078727581612
738213.70287181052844971418,10.3519801426232,-0.0984730572425509,331.103345845922
738213.70287190098315477371,10.3519801426232,-0.123091321553189,330.992563656524
738213.70287199132144451141,10.3765984069338,-0.11078218939787,331.054109317301
738213.70287208177614957094,10.3642892747785,-0.11078218939787,331.078727581612
738213.70287217223085463047,10.3765984069338,-0.11078218939787,331.127964110233
738213.70287226268555969000,10.3642892747785,-0.11078218939787,330.992563656524
738213.70287235314026474953,10.3765984069338,-0.123091321553189,331.078727581612
738213.70287244359496980906,10.3765984069338,-0.11078218939787,331.127964110233
738213.70287253393325954676,10.3765984069338,-0.11078218939787,331.066418449456
738213.70287262438796460629,10.3889075390891,-0.123091321553189,331.066418449456
738213.70287271484266966581,10.4012166712444,-0.0984730572425509,330.992563656524
738213.70287280529737472534,10.4135258033998,-0.0861639250872321,330.943327127903
738213.70287289575207978487,10.4381440677104,-0.0615456607765943,330.955636260058
738213.70287298620678484440,10.4381440677104,-0.0369273964659566,330.906399731437
738213.70287307654507458210,10.462762332021,0,330.894090599282
738213.70287316699977964163,10.4750714641764,0.0246182643106377,330.931017995748
738213.70287325745448470116,10.4504531998657,0.0246182643106377,330.967945392214
738213.70287334790918976068,10.4135258033998,0.0123091321553189,330.980254524369
738213.70287343836389482021,10.3519801426232,-0.0615456607765943,330.992563656524
738213.70287352881859987974,10.3396710104678,-0.0492365286212755,330.992563656524
738213.70287361915688961744,10.3273618783125,-0.0861639250872321,331.00487278868
738213.70287370961159467697,10.3519801426232,-0.0984730572425509,331.017181920835
738213.70287380006629973650,10.3642892747785,-0.11078218939787,330.992563656524
738213.70287389052100479603,10.3519801426232,-0.0984730572425509,330.992563656524
738213.70287398097570985556,10.3396710104678,-0.0984730572425509,330.992563656524
738213.70287407143041491508,10.3396710104678,-0.0984730572425509,330.992563656524
738213.70287416176870465279,10.3519801426232,-0.11078218939787,331.00487278868
738213.70287425222340971231,10.3150527461572,-0.196946114485102,330.992563656524
738213.70287434267811477184,10.3396710104678,-0.233873510951058,330.967945392214
738213.70287443313281983137,10.4504531998657,0.0369273964659566,331.041800185146
738213.70287452358752489090,10.7212541072827,0.553910946989349,330.943327127903
738213.70287461404222995043,11.0166732790104,1.02165796889147,330.697144484797
738213.70287470438051968813,10.6350901821955,0.6523840042319,330.734071881263
738213.70287479483522474766,10.4258349355551,0.22156437879574,330.943327127903
738213.70287488528992980719,10.1550340281381,-0.381583096814885,330.980254524369
738213.70287497574463486671,10.1550340281381,-0.356964832504247,331.00487278868
738213.70287506619933992624,10.3519801426232,-0.0984730572425509,330.931017995748
738213.70287515665404498577,10.3889075390891,-0.0738547929319132,330.894090599282
738213.70287524699233472347,10.3765984069338,-0.0738547929319132,331.017181920835
738213.70287533744703978300,10.3765984069338,-0.0738547929319132,330.967945392214
738213.70287542790174484253,10.4012166712444,-0.0492365286212755,331.041800185146
738213.70287551835644990206,10.4012166712444,-0.0615456607765943,331.017181920835
738213.70287560881115496159,10.4135258033998,-0.0492365286212755,330.943327127903
738213.70287569926586002111,10.4012166712444,-0.0369273964659566,331.00487278868
738213.70287578960414975882,10.4135258033998,-0.0369273964659566,331.02949105299
738213.70287588005885481834,10.4135258033998,-0.0246182643106377,330.943327127903
738213.70287597051355987787,10.4381440677104,-0.0246182643106377,331.017181920835
738213.70287606096826493740,10.4258349355551,-0.0123091321553189,331.041800185146
738213.70287615142296999693,10.4381440677104,-0.0123091321553189,330.992563656524
738213.70287624187767505646,10.4504531998657,0.0123091321553189,330.992563656524
738213.70287633221596479416,10.462762332021,0.0246182643106377,330.931017995748
738213.70287642267066985369,10.4873805963317,0.0369273964659566,330.943327127903
738213.70287651312537491322,10.4750714641764,0.0369273964659566,330.918708863592
738213.70287660358007997274,10.4873805963317,0.0738547929319132,330.943327127903
738213.70287669403478503227,10.4873805963317,0.0738547929319132,330.967945392214
738213.70287678448949009180,10.5119988606423,0.0738547929319132,331.017181920835
738213.70287687482777982950,10.536617124953,0.11078218939787,331.066418449456
738213.70287696528248488903,10.5489262571083,0.135400453708508,331.017181920835
738213.70287705573718994856,10.5735445214189,0.172327850174464,331.017181920835
738213.70287714619189500809,10.5858536535742,0.22156437879574,330.967945392214
738213.70287723664660006762,10.5858536535742,0.246182643106377,330.992563656524
738213.70287732710130512714,10.6104719178849,0.270800907417015,331.017181920835
738213.70287741743959486485,10.6227810500402,0.283110039572334,331.054109317301
738213.70287750789429992437,10.6227810500402,0.307728303882972,331.00487278868
738213.70287759834900498390,10.6350901821955,0.332346568193609,330.918708863592
738213.70287768880371004343,10.6227810500402,0.332346568193609,330.992563656524
738213.70287777925841510296,10.6350901821955,0.307728303882972,331.00487278868
738213.70287786971312016249,10.6104719178849,0.283110039572334,330.967945392214
738213.70287796005140990019,10.5858536535742,0.233873510951058,331.02949105299
738213.70287805050611495972,10.5489262571083,0.172327850174464,331.00487278868
738213.70287814096082001925,10.5243079927976,0.11078218939787,330.955636260058
738213.70287823141552507877,10.499689728487,0.0861639250872321,330.931017995748
738213.70287832187023013830,10.4750714641764,0.0369273964659566,330.918708863592
738213.70287841232493519783,10.462762332021,0,330.906399731437
738213.70287850266322493553,10.4504531998657,-0.0369273964659566,330.918708863592
738213.70287859311792999506,10.4381440677104,-0.0246182643106377,330.869472334971
738213.70287868357263505459,10.4504531998657,-0.0246182643106377,330.807926674195
738213.70287877402734011412,10.462762332021,-0.0246182643106377,330.869472334971
738213.70287886448204517365,10.4381440677104,-0.0369273964659566,330.894090599282
738213.70287895493675023317,10.462762332021,-0.0246182643106377,330.943327127903
738213.70287904527503997087,10.4258349355551,-0.0492365286212755,330.955636260058
738213.70287913572974503040,10.4381440677104,-0.0492365286212755,330.992563656524
738213.70287922618445008993,10.4381440677104,-0.0369273964659566,330.931017995748
738213.70287931663915514946,10.4258349355551,-0.0492365286212755,330.980254524369
738213.70287940709386020899,10.4258349355551,-0.0615456607765943,330.967945392214
738213.70287949754856526852,10.4381440677104,-0.0492365286212755,330.906399731437
738213.70287958788685500622,10.4381440677104,-0.0369273964659566,330.980254524369
738213.70287967834156006575,10.4135258033998,-0.0492365286212755,330.992563656524
738213.70287976879626512527,10.4135258033998,-0.0492365286212755,330.967945392214
738213.70287985925097018480,10.4381440677104,-0.0492365286212755,331.00487278868
738213.70287994970567524433,10.4258349355551,-0.0615456607765943,331.017181920835
738213.70288004016038030386,10.4258349355551,-0.0369273964659566,331.00487278868
738213.70288013049867004156,10.4258349355551,-0.0492365286212755,331.02949105299
738213.70288022095337510109,10.4258349355551,-0.0492365286212755,330.992563656524
738213.70288031140808016062,10.4258349355551,-0.0492365286212755,331.02949105299
738213.70288040186278522015,10.4135258033998,-0.0615456607765943,330.955636260058
738213.70288049231749027967,10.4135258033998,-0.0492365286212755,330.992563656524
738213.70288058277219533920,10.4258349355551,-0.0615456607765943,331.00487278868
738213.70288067311048507690,10.4258349355551,-0.0492365286212755,330.955636260058
738213.70288076356519013643,10.4012166712444,-0.0615456607765943,330.980254524369
738213.70288085401989519596,10.4135258033998,-0.0738547929319132,330.980254524369
738213.70288094447460025549,10.4012166712444,-0.0738547929319132,330.918708863592
738213.70288103492930531502,10.4258349355551,-0.0615456607765943,330.980254524369
738213.70288112538401037455,10.4012166712444,-0.0615456607765943,331.041800185146
738213.70288121572230011225,10.4135258033998,-0.0615456607765943,331.054109317301
738213.70288130617700517178,10.4012166712444,-0.0492365286212755,331.00487278868
738213.70288139663171023130,10.4135258033998,-0.0492365286212755,331.02949105299
738213.70288148708641529083,10.3889075390891,-0.0615456607765943,330.992563656524
738213.70288157754112035036,10.3889075390891,-0.0615456607765943,331.00487278868
738213.70288166799582540989,10.4012166712444,-0.0492365286212755,331.017181920835
738213.70288175833411514759,10.3889075390891,-0.0492365286212755,330.992563656524
738213.70288184878882020712,10.4012166712444,-0.0492365286212755,331.02949105299
738213.70288193924352526665,10.3889075390891,-0.0492365286212755,331.017181920835
738213.70288202969823032618,10.4012166712444,-0.0492365286212755,331.017181920835
738213.70288212015293538570,10.3889075390891,-0.0492365286212755,330.943327127903
738213.70288221060764044523,10.4135258033998,-0.0492365286212755,330.807926674195
738213.70288230094593018293,10.4135258033998,-0.0369273964659566,330.943327127903
738213.70288239140063524246,10.4258349355551,-0.0369273964659566,330.931017995748
738213.70288248185534030199,10.4258349355551,-0.0246182643106377,330.918708863592
738213.70288257231004536152,10.462762332021,0.0123091321553189,330.857163202816
738213.70288266276475042105,10.4504531998657,0.0246182643106377,330.955636260058
738213.70288275321945548058,10.4504531998657,0.0369273964659566,331.017181920835
738213.70288284355774521828,10.4012166712444,0.0123091321553189,331.054109317301
738213.70288293401245027781,10.4258349355551,-0.0246182643106377,330.918708863592
738213.70288302446715533733,10.4012166712444,-0.0492365286212755,330.967945392214
738213.70288311492186039686,10.3889075390891,-0.0738547929319132,331.00487278868
738213.70288320537656545639,10.3889075390891,-0.0615456607765943,331.041800185146
738213.70288329583127051592,10.3765984069338,-0.0738547929319132,330.992563656524
738213.70288338616956025362,10.3765984069338,-0.0738547929319132,330.918708863592
738213.70288347662426531315,10.3642892747785,-0.0861639250872321,330.955636260058
738213.70288356707897037268,10.3765984069338,-0.0738547929319132,330.967945392214
738213.70288365753367543221,10.3642892747785,-0.0615456607765943,330.967945392214
738213.70288374798838049173,10.3765984069338,-0.0861639250872321,330.906399731437
738213.70288383844308555126,10.3273618783125,-0.196946114485102,330.992563656524
738213.70288392878137528896,10.3642892747785,-0.196946114485102,331.041800185146
738213.70288401923608034849,10.499689728487,0.11078218939787,331.017181920835
738213.70288410969078540802,10.7951089002146,0.640074872076581,330.869472334971
738213.70288420014549046755,10.9920550146997,1.05858536535742,330.758690145573
738213.70288429060019552708,10.6104719178849,0.54160181483403,330.906399731437
738213.70288438105490058661,10.22888882107,-0.233873510951058,330.918708863592
738213.70288447139319032431,10.1304157638274,-0.443128757591479,330.967945392214
738213.70288456184789538383,10.3273618783125,-0.160018718019145,331.017181920835
738213.70288465230260044336,10.4012166712444,-0.0615456607765943,330.918708863592
738213.70288474275730550289,10.4012166712444,-0.0615456607765943,331.00487278868
738213.70288483321201056242,10.3889075390891,-0.0615456607765943,331.00487278868
738213.70288492366671562195,10.4012166712444,-0.0615456607765943,330.992563656524
738213.70288501400500535965,10.4012166712444,-0.0492365286212755,330.967945392214
738213.70288510445971041918,10.4258349355551,-0.0369273964659566,330.992563656524
738213.70288519491441547871,10.4135258033998,-0.0492365286212755,331.017181920835
738213.70288528536912053823,10.4258349355551,-0.0369273964659566,330.943327127903
738213.70288537582382559776,10.4381440677104,-0.0246182643106377,331.00487278868
738213.70288546627853065729,10.4258349355551,-0.0246182643106377,331.02949105299
738213.70288555661682039499,10.4258349355551,-0.0246182643106377,331.02949105299
738213.70288564707152545452,10.4381440677104,-0.0123091321553189,330.918708863592
738213.70288573752623051405,10.4504531998657,0.0123091321553189,330.795617542039
738213.70288582798093557358,10.4504531998657,0.0123091321553189,330.967945392214
738213.70288591843564063311,10.462762332021,0.0123091321553189,331.017181920835
738213.70288600889034569263,10.462762332021,0.0246182643106377,330.980254524369
738213.70288609922863543034,10.499689728487,0.0492365286212755,331.02949105299
738213.70288618968334048986,10.5119988606423,0.0738547929319132,330.992563656524
738213.70288628013804554939,10.5243079927976,0.0984730572425509,330.906399731437
738213.70288637059275060892,10.536617124953,0.11078218939787,330.980254524369
738213.70288646104745566845,10.5612353892636,0.135400453708508,330.980254524369
738213.70288655150216072798,10.5612353892636,0.160018718019145,330.918708863592
738213.70288664184045046568,10.5981627857295,0.22156437879574,330.931017995748
738213.70288673229515552521,10.6227810500402,0.246182643106377,330.980254524369
738213.70288682274986058474,10.6473993143508,0.283110039572334,331.00487278868
738213.70288691320456564426,10.6350901821955,0.307728303882972,330.918708863592
738213.70288700365927070379,10.6350901821955,0.307728303882972,330.955636260058
738213.70288709411397576332,10.6227810500402,0.320037436038291,330.967945392214
738213.70288718445226550102,10.6104719178849,0.332346568193609,330.980254524369
738213.70288727490697056055,10.6350901821955,0.344655700348928,331.00487278868
738213.70288736536167562008,10.6104719178849,0.320037436038291,331.02949105299
738213.70288745581638067961,10.6104719178849,0.270800907417015,330.967945392214
738213.70288754627108573914,10.5858536535742,0.22156437879574,330.931017995748
738213.70288763672579079866,10.5612353892636,0.172327850174464,330.869472334971
738213.70288772706408053637,10.5119988606423,0.11078218939787,330.881781467126
738213.70288781751878559589,10.4873805963317,0.0615456607765943,330.857163202816
738213.70288790797349065542,10.462762332021,0.0246182643106377,330.918708863592
738213.70288799842819571495,10.4504531998657,0,330.943327127903
738213.70288808888290077448,10.4258349355551,-0.0123091321553189,330.918708863592
738213.70288817933760583401,10.4381440677104,-0.0123091321553189,330.992563656524
738213.70288826967589557171,10.4258349355551,-0.0123091321553189,330.992563656524
738213.70288836013060063124,10.4258349355551,-0.0246182643106377,330.931017995748
738213.70288845058530569077,10.4258349355551,0,331.017181920835
738213.70288854104001075029,10.4381440677104,-0.0246182643106377,331.017181920835
738213.70288863149471580982,10.4381440677104,-0.0123091321553189,331.02949105299
738213.70288872194942086935,10.4258349355551,-0.0123091321553189,330.906399731437
738213.70288881228771060705,10.4258349355551,-0.0123091321553189,330.980254524369
738213.70288890274241566658,10.4381440677104,-0.0246182643106377,331.017181920835
738213.70288899319712072611,10.4258349355551,-0.0246182643106377,330.980254524369
738213.70288908365182578564,10.4135258033998,-0.0369273964659566,330.992563656524
738213.70288917410653084517,10.4258349355551,-0.0246182643106377,330.943327127903
738213.70288926456123590469,10.4381440677104,-0.0246182643106377,330.931017995748
738213.70288935489952564240,10.4381440677104,-0.0369273964659566,330.967945392214
738213.70288944535423070192,10.4258349355551,-0.0246182643106377,330.894090599282
738213.70288953580893576145,10.4135258033998,-0.0246182643106377,330.918708863592
738213.70288962626364082098,10.4135258033998,-0.0246182643106377,330.955636260058
738213.70288971671834588051,10.4135258033998,-0.0246182643106377,330.967945392214
738213.70288980717305094004,10.4135258033998,-0.0123091321553189,331.017181920835
738213.70288989751134067774,10.4012166712444,-0.0123091321553189,330.955636260058
738213.70288998796604573727,10.4135258033998,-0.0246182643106377,330.992563656524
738213.70289007842075079679,10.4135258033998,-0.0123091321553189,330.980254524369
738213.70289016887545585632,10.4135258033998,-0.0246182643106377,331.00487278868
738213.70289025933016091585,10.4135258033998,-0.0123091321553189,331.00487278868
738213.70289034978486597538,10.4135258033998,-0.0246182643106377,331.02949105299
738213.70289044012315571308,10.4135258033998,-0.0369273964659566,331.041800185146
738213.70289053057786077261,10.4258349355551,-0.0369273964659566,331.103345845922
738213.70289062103256583214,10.4258349355551,-0.0246182643106377,331.054109317301
738213.70289071148727089167,10.4258349355551,-0.0369273964659566,331.00487278868
738213.70289080194197595119,10.4012166712444,-0.0246182643106377,331.00487278868
738213.70289089239668101072,10.4135258033998,-0.0369273964659566,331.00487278868
738213.70289098273497074842,10.4012166712444,-0.0246182643106377,331.00487278868
738213.70289107318967580795,10.4135258033998,-0.0369273964659566,331.02949105299
738213.70289116364438086748,10.4012166712444,-0.0246182643106377,331.041800185146
738213.70289125409908592701,10.4012166712444,-0.0369273964659566,330.967945392214
738213.70289134455379098654,10.4012166712444,-0.0369273964659566,330.992563656524
738213.70289143500849604607,10.4504531998657,-0.0123091321553189,330.992563656524
738213.70289152546320110559,10.4381440677104,-0.0369273964659566,331.017181920835
738213.70289161580149084330,10.4258349355551,-0.0369273964659566,330.980254524369
738213.70289170625619590282,10.4258349355551,-0.0369273964659566,331.00487278868
738213.70289179671090096235,10.4135258033998,-0.0615456607765943,331.00487278868
738213.70289188716560602188,10.4258349355551,-0.0369273964659566,330.967945392214
738213.70289197762031108141,10.4381440677104,-0.0369273964659566,330.931017995748
738213.70289206807501614094,10.462762332021,-0.0123091321553189,330.955636260058
738213.70289215841330587864,10.4750714641764,0.0123091321553189,331.00487278868
738213.70289224886801093817,10.4750714641764,0.0369273964659566,331.00487278868
738213.70289233932271599770,10.462762332021,0.0369273964659566,331.02949105299
738213.70289242977742105722,10.4381440677104,0.0246182643106377,331.041800185146
738213.70289252023212611675,10.4012166712444,-0.0123091321553189,331.02949105299
738213.70289261068683117628,10.3889075390891,-0.0246182643106377,331.00487278868
738213.70289270102512091398,10.3765984069338,-0.0492365286212755,330.980254524369
738213.70289279147982597351,10.3889075390891,-0.0492365286212755,330.869472334971
738213.70289288193453103304,10.4012166712444,-0.0492365286212755,330.931017995748
738213.70289297238923609257,10.3642892747785,-0.0615456607765943,330.980254524369
738213.70289306284394115210,10.3765984069338,-0.0492365286212755,330.980254524369
738213.70289315329864621162,10.3765984069338,-0.0369273964659566,330.931017995748
738213.70289324363693594933,10.3642892747785,-0.0492365286212755,331.017181920835
738213.70289333409164100885,10.3273618783125,-0.123091321553189,331.02949105299
738213.70289342454634606838,10.3273618783125,-0.196946114485102,331.078727581612
738213.70289351500105112791,10.4258349355551,-0.0246182643106377,331.054109317301
738213.70289360545575618744,10.6104719178849,0.393892228970204,331.054109317301
738213.70289369591046124697,10.9305093539232,0.898566647338277,330.758690145573
738213.70289378624875098467,10.7581815037487,0.886257515182958,330.795617542039
738213.70289387670345604420,10.3396710104678,0.0861639250872321,330.857163202816
738213.70289396715816110373,10.2042705567593,-0.233873510951058,330.857163202816
738213.70289405761286616325,10.1181066316721,-0.43081962543616,330.857163202816
738213.70289414806757122278,10.3396710104678,-0.135400453708508,330.918708863592
738213.70289423852227628231,10.4012166712444,-0.0246182643106377,330.857163202816
738213.70289432886056602001,10.4012166712444,-0.0492365286212755,330.943327127903
738213.70289441931527107954,10.4135258033998,-0.0369273964659566,330.931017995748
738213.70289450976997613907,10.3889075390891,-0.0492365286212755,330.943327127903
738213.70289460022468119860,10.4135258033998,-0.0246182643106377,330.943327127903
738213.70289469067938625813,10.4012166712444,-0.0492365286212755,330.894090599282
738213.70289478113409131765,10.4135258033998,-0.0369273964659566,330.931017995748
738213.70289487147238105536,10.4012166712444,-0.0369273964659566,330.894090599282
738213.70289496192708611488,10.4258349355551,-0.0246182643106377,330.955636260058
738213.70289505238179117441,10.4258349355551,0,330.931017995748
738213.70289514283649623394,10.4504531998657,0,330.967945392214
738213.70289523329120129347,10.4381440677104,0.0246182643106377,330.992563656524
738213.70289532374590635300,10.4873805963317,0.0369273964659566,330.943327127903
738213.70289541408419609070,10.4873805963317,0.0369273964659566,330.931017995748
738213.70289550453890115023,10.4750714641764,0.0492365286212755,330.955636260058
738213.70289559499360620975,10.4750714641764,0.0492365286212755,330.931017995748
738213.70289568544831126928,10.499689728487,0.0615456607765943,330.906399731437
738213.70289577590301632881,10.5243079927976,0.0615456607765943,330.894090599282
738213.70289586635772138834,10.5243079927976,0.0861639250872321,330.918708863592
738213.70289595669601112604,10.5243079927976,0.123091321553189,330.894090599282
738213.70289604715071618557,10.5489262571083,0.147709585863826,330.881781467126
738213.70289613760542124510,10.5735445214189,0.196946114485102,330.881781467126
738213.70289622806012630463,10.5858536535742,0.233873510951058,330.795617542039
738213.70289631851483136415,10.6227810500402,0.283110039572334,330.807926674195
738213.70289640896953642368,10.6104719178849,0.295419171727653,330.967945392214
738213.70289649930782616138,10.6227810500402,0.320037436038291,330.918708863592
738213.70289658976253122091,10.6350901821955,0.344655700348928,331.00487278868
738213.70289668021723628044,10.6350901821955,0.356964832504247,330.992563656524
738213.70289677067194133997,10.6104719178849,0.356964832504247,330.931017995748
738213.70289686112664639950,10.6350901821955,0.356964832504247,330.980254524369
738213.70289695158135145903,10.6597084465061,0.356964832504247,330.992563656524
738213.70289704191964119673,10.5858536535742,0.295419171727653,330.943327127903
738213.70289713237434625626,10.536617124953,0.233873510951058,330.931017995748
738213.70289722282905131578,10.536617124953,0.172327850174464,330.967945392214
738213.70289731328375637531,10.5243079927976,0.123091321553189,330.967945392214
738213.70289740373846143484,10.4873805963317,0.0984730572425509,330.881781467126
738213.70289749419316649437,10.4873805963317,0.0738547929319132,330.992563656524
738213.70289758453145623207,10.4504531998657,0.0369273964659566,330.992563656524
738213.70289767498616129160,10.4504531998657,0.0492365286212755,330.980254524369
738213.70289776544086635113,10.4381440677104,0.0246182643106377,330.906399731437
738213.70289785589557141066,10.4381440677104,0.0369273964659566,330.894090599282
738213.70289794635027647018,10.4258349355551,0.0369273964659566,330.918708863592
738213.70289803680498152971,10.4504531998657,0.0246182643106377,330.857163202816
738213.70289812714327126741,10.4504531998657,0.0369273964659566,330.906399731437
738213.70289821759797632694,10.4258349355551,0.0246182643106377,330.906399731437
738213.70289830805268138647,10.4258349355551,0.0123091321553189,330.881781467126
738213.70289839850738644600,10.4258349355551,0.0246182643106377,330.918708863592
738213.70289848896209150553,10.4135258033998,0.0246182643106377,330.931017995748
738213.70289857941679656506,10.4381440677104,0.0123091321553189,330.906399731437
738213.70289866975508630276,10.4258349355551,0,330.943327127903
738213.70289876020979136229,10.4381440677104,0.0123091321553189,330.918708863592
738213.70289885066449642181,10.4504531998657,0.0246182643106377,330.955636260058
738213.70289894111920148134,10.4258349355551,0.0123091321553189,330.918708863592
738213.70289903157390654087,10.4258349355551,0.0123091321553189,330.967945392214
738213.70289912202861160040,10.4381440677104,0.0246182643106377,330.918708863592
738213.70289921236690133810,10.4381440677104,0.0123091321553189,330.967945392214
738213.70289930282160639763,10.4258349355551,0,330.931017995748
738213.70289939327631145716,10.4750714641764,0.0123091321553189,330.931017995748
738213.70289948373101651669,10.4258349355551,0,330.906399731437
738213.70289957418572157621,10.462762332021,0.0246182643106377,330.881781467126
738213.70289966464042663574,10.4504531998657,0.0123091321553189,330.869472334971
738213.70289975497871637344,10.4135258033998,0.0123091321553189,330.82023580635
738213.70289984543342143297,10.4135258033998,0,330.832544938505
738213.70289993588812649250,10.4381440677104,0.0123091321553189,330.943327127903
738213.70290002634283155203,10.4135258033998,0,330.943327127903
738213.70290011679753661156,10.4135258033998,0.0246182643106377,330.918708863592
738213.70290020725224167109,10.4012166712444,0.0123091321553189,331.00487278868
738213.70290029759053140879,10.4135258033998,-0.0123091321553189,330.980254524369
738213.70290038804523646832,10.4135258033998,0.0123091321553189,330.980254524369
738213.70290047849994152784,10.4012166712444,0.0123091321553189,330.955636260058
738213.70290056895464658737,10.4012166712444,0.0246182643106377,330.955636260058
738213.70290065940935164690,10.4135258033998,0.0123091321553189,330.980254524369
738213.70290074986405670643,10.3889075390891,0.0123091321553189,330.906399731437
738213.70290084020234644413,10.3889075390891,0,330.943327127903
738213.70290093065705150366,10.4135258033998,0,330.967945392214
738213.70290102111175656319,10.3889075390891,-0.0123091321553189,330.955636260058
738213.70290111156646162271,10.4135258033998,0,330.918708863592
738213.70290120202116668224,10.4258349355551,0.0123091321553189,330.881781467126
738213.70290129247587174177,10.4381440677104,0.0123091321553189,330.906399731437
738213.70290138281416147947,10.4258349355551,0.0123091321553189,330.943327127903
738213.70290147326886653900,10.4381440677104,0.0369273964659566,330.869472334971
738213.70290156372357159853,10.4750714641764,0.0615456607765943,330.906399731437
738213.70290165417827665806,10.462762332021,0.0861639250872321,330.931017995748
738213.70290174463298171759,10.4504531998657,0.0738547929319132,330.857163202816
738213.70290183508768677711,10.4381440677104,0.0984730572425509,330.881781467126
738213.70290192542597651482,10.4012166712444,0.0615456607765943,330.881781467126
738213.70290201588068157434,10.3889075390891,0.0123091321553189,330.881781467126
738213.70290210633538663387,10.3273618783125,0.0123091321553189,330.857163202816
738213.70290219679009169340,10.3027436140019,0,330.931017995748
738213.70290228724479675293,10.3027436140019,0,330.980254524369
738213.70290237769950181246,10.2781253496913,0,330.943327127903
738213.70290246803779155016,10.2658162175359,0.0123091321553189,330.906399731437
738213.70290255849249660969,10.2781253496913,0.0123091321553189,330.943327127903
738213.70290264894720166922,10.2904344818466,0,330.980254524369
738213.70290273940190672874,10.2411979532253,-0.0123091321553189,330.967945392214
738213.70290282985661178827,10.2658162175359,-0.123091321553189,330.931017995748
738213.70290292031131684780,10.2781253496913,-0.11078218939787,330.943327127903
738213.70290301064960658550,10.3889075390891,0.184636982329783,330.992563656524
738213.70290310110431164503,10.6473993143508,0.664693136387219,330.881781467126
738213.70290319155901670456,10.8320362966806,1.05858536535742,330.586362295399
738213.70290328201372176409,10.4873805963317,0.627765739921262,330.709453616952
738213.70290337246842682362,10.1796522924487,-0.135400453708508,330.746381013418
738213.70290346292313188314,10.0565609708955,-0.356964832504247,330.857163202816
738213.70290355326142162085,10.22888882107,-0.0861639250872321,330.844854070661
738213.70290364371612668037,10.3765984069338,0.0492365286212755,330.82023580635
738213.70290373417083173990,10.3150527461572,0.0369273964659566,330.881781467126
738213.70290382462553679943,10.3396710104678,0.0369273964659566,330.918708863592
738213.70290391508024185896,10.3273618783125,0.0369273964659566,330.918708863592
738213.70290400553494691849,10.3273618783125,0.0369273964659566,330.943327127903
738213.70290409587323665619,10.3396710104678,0.0369273964659566,330.943327127903
738213.70290418632794171572,10.3396710104678,0.0492365286212755,330.943327127903
738213.70290427678264677525,10.3519801426232,0.0615456607765943,330.967945392214
738213.70290436723735183477,10.3642892747785,0.0738547929319132,330.943327127903
738213.70290445769205689430,10.3519801426232,0.0861639250872321,330.943327127903
738213.70290454814676195383,10.3519801426232,0.0738547929319132,331.00487278868
738213.70290463848505169153,10.3765984069338,0.0861639250872321,331.00487278868
738213.70290472893975675106,10.3642892747785,0.0861639250872321,330.955636260058
738213.70290481939446181059,10.3642892747785,0.0984730572425509,330.980254524369
738213.70290490984916687012,10.4012166712444,0.0984730572425509,330.992563656524
738213.70290500030387192965,10.4258349355551,0.123091321553189,330.967945392214
738213.70290509075857698917,10.4135258033998,0.147709585863826,330.967945392214
738213.70290518109686672688,10.4381440677104,0.160018718019145,331.00487278868
738213.70290527155157178640,10.4504531998657,0.184636982329783,330.992563656524
738213.70290536200627684593,10.4504531998657,0.22156437879574,330.943327127903
738213.70290545246098190546,10.4381440677104,0.233873510951058,330.992563656524
738213.70290554291568696499,10.4750714641764,0.307728303882972,331.017181920835
738213.70290563337039202452,10.4873805963317,0.332346568193609,331.02949105299
738213.70290572370868176222,10.536617124953,0.369273964659566,330.992563656524
738213.70290581416338682175,10.536617124953,0.381583096814885,330.943327127903
738213.70290590461809188128,10.5119988606423,0.406201361125523,330.955636260058
738213.70290599507279694080,10.536617124953,0.418510493280842,330.980254524369
738213.70290608552750200033,10.5243079927976,0.43081962543616,330.955636260058
738213.70290617598220705986,10.536617124953,0.443128757591479,330.955636260058
738213.70290626632049679756,10.5489262571083,0.455437889746798,330.980254524369
738213.70290635677520185709,10.5858536535742,0.455437889746798,331.00487278868
738213.70290644722990691662,10.5735445214189,0.406201361125523,330.955636260058
738213.70290653768461197615,10.5489262571083,0.307728303882972,330.918708863592
738213.70290662813931703568,10.4873805963317,0.258491775261696,330.894090599282
738213.70290671859402209520,10.462762332021,0.172327850174464,330.906399731437
738213.70290680893231183290,10.4135258033998,0.11078218939787,330.807926674195
738213.70290689938701689243,10.4258349355551,0.0738547929319132,330.795617542039
738213.70290698984172195196,10.4012166712444,0.0615456607765943,330.906399731437
738213.70290708029642701149,10.3889075390891,0.0738547929319132,330.857163202816
738213.70290717075113207102,10.3642892747785,0.0615456607765943,330.857163202816
738213.70290726120583713055,10.3765984069338,0.0615456607765943,330.881781467126
738213.70290735154412686825,10.3642892747785,0.0615456607765943,330.844854070661
738213.70290744199883192778,10.3765984069338,0.0492365286212755,330.881781467126
738213.70290753245353698730,10.3519801426232,0.0615456607765943,330.894090599282
738213.70290762290824204683,10.3889075390891,0.0492365286212755,330.967945392214
738213.70290771336294710636,10.3765984069338,0.0492365286212755,330.980254524369
738213.70290780381765216589,10.3765984069338,0.0615456607765943,330.943327127903
738213.70290789415594190359,10.3765984069338,0.0615456607765943,330.894090599282
738213.70290798461064696312,10.3642892747785,0.0492365286212755,330.967945392214
738213.70290807506535202265,10.3519801426232,0.0615456607765943,330.906399731437
738213.70290816552005708218,10.3765984069338,0.0615456607765943,330.918708863592
738213.70290825597476214170,10.3889075390891,0.0492365286212755,330.931017995748
738213.70290834642946720123,10.3642892747785,0.0369273964659566,330.955636260058
738213.70290843676775693893,10.3765984069338,0.0492365286212755,330.869472334971
738213.70290852722246199846,10.3642892747785,0.0369273964659566,330.869472334971
738213.70290861767716705799,10.3642892747785,0.0246182643106377,330.931017995748
738213.70290870813187211752,10.3519801426232,0.0246182643106377,330.881781467126
738213.70290879858657717705,10.3519801426232,0.0123091321553189,330.918708863592
738213.70290888904128223658,10.3273618783125,0.0369273964659566,330.931017995748
738213.70290897937957197428,10.3150527461572,0.0492365286212755,330.955636260058
738213.70290906983427703381,10.3273618783125,0.0492365286212755,330.955636260058
738213.70290916028898209333,10.3519801426232,0.0492365286212755,330.906399731437
738213.70290925074368715286,10.3396710104678,0.0738547929319132,330.943327127903
738213.70290934119839221239,10.3396710104678,0.0738547929319132,330.967945392214
738213.70290943165309727192,10.3396710104678,0.0615456607765943,330.931017995748
738213.70290952199138700962,10.3273618783125,0.0492365286212755,330.931017995748
738213.70290961244609206915,10.3519801426232,0.0615456607765943,330.967945392214
738213.70290970290079712868,10.3396710104678,0.0615456607765943,330.992563656524
738213.70290979335550218821,10.3396710104678,0.0738547929319132,330.943327127903
738213.70290988381020724773,10.3642892747785,0.0738547929319132,330.967945392214
738213.70290997426491230726,10.3396710104678,0.0615456607765943,330.980254524369
738213.70291006460320204496,10.3273618783125,0.0492365286212755,330.980254524369
738213.70291015505790710449,10.3396710104678,0.0369273964659566,330.844854070661
738213.70291024551261216402,10.3765984069338,0.0615456607765943,330.955636260058
738213.70291033596731722355,10.3642892747785,0.0492365286212755,330.894090599282
738213.70291042642202228308,10.3519801426232,0.0123091321553189,330.844854070661
738213.70291051687672734261,10.3642892747785,0.0369273964659566,330.918708863592
738213.70291060721501708031,10.3765984069338,0.0615456607765943,330.832544938505
738213.70291069766972213984,10.3889075390891,0.0861639250872321,330.82023580635
738213.70291078812442719936,10.4012166712444,0.0984730572425509,330.844854070661
738213.70291087857913225889,10.3889075390891,0.135400453708508,330.746381013418
738213.70291096903383731842,10.4012166712444,0.172327850174464,330.844854070661
738213.70291105948854237795,10.4012166712444,0.172327850174464,330.881781467126
738213.70291114982683211565,10.3765984069338,0.160018718019145,330.906399731437
738213.70291124028153717518,10.3396710104678,0.123091321553189,330.881781467126
738213.70291133073624223471,10.3519801426232,0.0984730572425509,330.918708863592
738213.70291142119094729424,10.3519801426232,0.0738547929319132,330.931017995748
738213.70291151164565235376,10.3396710104678,0.0861639250872321,330.943327127903
738213.70291160210035741329,10.3150527461572,0.0984730572425509,330.906399731437
738213.70291169243864715099,10.3396710104678,0.0984730572425509,330.943327127903
738213.70291178289335221052,10.3273618783125,0.0984730572425509,330.906399731437
738213.70291187334805727005,10.3273618783125,0.0984730572425509,330.931017995748
738213.70291196380276232958,10.3273618783125,0.0738547929319132,330.943327127903
738213.70291205425746738911,10.3150527461572,0.0369273964659566,330.967945392214
738213.70291214471217244864,10.2904344818466,-0.0738547929319132,330.906399731437
738213.70291223505046218634,10.3396710104678,0,331.02949105299
738213.70291232550516724586,10.499689728487,0.393892228970204,331.017181920835
738213.70291241595987230539,10.7581815037487,0.923184911648915,330.795617542039
738213.70291250641457736492,10.7581815037487,1.1078218939787,330.770999277729
738213.70291259686928242445,10.4258349355551,0.492365286212755,330.770999277729
738213.70291268732398748398,10.1304157638274,-0.160018718019145,330.931017995748
738213.70291277766227722168,10.0565609708955,-0.246182643106377,330.844854070661
738213.70291286811698228121,10.2535070853806,0.0246182643106377,330.869472334971
738213.70291295857168734074,10.3396710104678,0.123091321553189,330.894090599282
738213.70291304902639240026,10.3396710104678,0.123091321553189,330.918708863592
738213.70291313948109745979,10.3642892747785,0.135400453708508,330.955636260058
738213.70291322993580251932,10.3642892747785,0.123091321553189,330.992563656524
738213.70291332027409225702,10.3765984069338,0.135400453708508,330.918708863592
738213.70291341072879731655,10.3642892747785,0.135400453708508,330.992563656524
738213.70291350118350237608,10.3642892747785,0.123091321553189,330.967945392214
738213.70291359163820743561,10.3642892747785,0.147709585863826,330.943327127903
738213.70291368209291249514,10.3765984069338,0.172327850174464,330.992563656524
738213.70291377254761755466,10.3642892747785,0.160018718019145,330.967945392214
738213.70291386288590729237,10.3642892747785,0.184636982329783,330.844854070661
738213.70291395334061235189,10.3765984069338,0.184636982329783,330.869472334971
738213.70291404379531741142,10.3765984069338,0.172327850174464,330.980254524369
738213.70291413425002247095,10.3765984069338,0.196946114485102,330.931017995748
738213.70291422470472753048,10.4135258033998,0.196946114485102,330.943327127903
738213.70291431515943259001,10.4135258033998,0.196946114485102,330.955636260058
738213.70291440549772232771,10.4258349355551,0.209255246640421,330.931017995748
738213.70291449595242738724,10.4381440677104,0.233873510951058,330.881781467126
738213.70291458640713244677,10.462762332021,0.233873510951058,330.894090599282
738213.70291467686183750629,10.4873805963317,0.283110039572334,330.894090599282
738213.70291476731654256582,10.499689728487,0.332346568193609,330.857163202816
738213.70291485777124762535,10.499689728487,0.356964832504247,330.894090599282
738213.70291494810953736305,10.5119988606423,0.381583096814885,330.869472334971
738213.70291503856424242258,10.536617124953,0.418510493280842,330.955636260058
738213.70291512901894748211,10.5243079927976,0.443128757591479,330.980254524369
738213.70291521947365254164,10.536617124953,0.480056154057436,331.041800185146
738213.70291530992835760117,10.536617124953,0.516983550523392,331.017181920835
738213.70291540038306266069,10.5612353892636,0.54160181483403,331.066418449456
738213.70291549072135239840,10.536617124953,0.553910946989349,331.054109317301
738213.70291558117605745792,10.5612353892636,0.566220079144668,330.955636260058
738213.70291567163076251745,10.5735445214189,0.54160181483403,331.00487278868
738213.70291576208546757698,10.5489262571083,0.480056154057436,331.02949105299
738213.70291585254017263651,10.5119988606423,0.43081962543616,330.967945392214
738213.70291594299487769604,10.4750714641764,0.369273964659566,330.967945392214
738213.70291603333316743374,10.4381440677104,0.307728303882972,330.980254524369
738213.70291612378787249327,10.4258349355551,0.258491775261696,330.955636260058
738213.70291621424257755280,10.4012166712444,0.22156437879574,330.918708863592
738213.70291630469728261232,10.3765984069338,0.196946114485102,330.980254524369
738213.70291639515198767185,10.3642892747785,0.196946114485102,330.931017995748
738213.70291648560669273138,10.3642892747785,0.184636982329783,330.906399731437
738213.70291657594498246908,10.3519801426232,0.184636982329783,330.857163202816
738213.70291666639968752861,10.3642892747785,0.172327850174464,330.943327127903
738213.70291675685439258814,10.3765984069338,0.172327850174464,330.980254524369
738213.70291684730909764767,10.3765984069338,0.172327850174464,330.955636260058
738213.70291693776380270720,10.3765984069338,0.172327850174464,330.894090599282
738213.70291702821850776672,10.3519801426232,0.160018718019145,330.931017995748
738213.70291711855679750443,10.3396710104678,0.160018718019145,330.894090599282
738213.70291720901150256395,10.3519801426232,0.160018718019145,330.881781467126
738213.70291729946620762348,10.3519801426232,0.160018718019145,330.955636260058
738213.70291738992091268301,10.3396710104678,0.160018718019145,330.881781467126
738213.70291748037561774254,10.3519801426232,0.172327850174464,330.857163202816
738213.70291757083032280207,10.3273618783125,0.172327850174464,330.980254524369
738213.70291766116861253977,10.3273618783125,0.172327850174464,330.980254524369
738213.70291775162331759930,10.3519801426232,0.184636982329783,330.943327127903
738213.70291784207802265882,10.3396710104678,0.184636982329783,330.943327127903
738213.70291793253272771835,10.3519801426232,0.184636982329783,330.967945392214
738213.70291802298743277788,10.3396710104678,0.172327850174464,330.992563656524
738213.70291811344213783741,10.3273618783125,0.172327850174464,330.918708863592
738213.70291820378042757511,10.3273618783125,0.172327850174464,330.980254524369
738213.70291829423513263464,10.3396710104678,0.184636982329783,330.992563656524
738213.70291838468983769417,10.3273618783125,0.172327850174464,330.980254524369
738213.70291847514454275370,10.3150527461572,0.184636982329783,330.992563656524
738213.70291856559924781322,10.3150527461572,0.160018718019145,330.980254524369
738213.70291865605395287275,10.3273618783125,0.172327850174464,331.017181920835
738213.70291874650865793228,10.3519801426232,0.172327850174464,330.967945392214
738213.70291883684694766998,10.3396710104678,0.160018718019145,330.992563656524
738213.70291892730165272951,10.3273618783125,0.160018718019145,330.931017995748
738213.70291901775635778904,10.3273618783125,0.172327850174464,330.869472334971
738213.70291910821106284857,10.3273618783125,0.160018718019145,330.881781467126
738213.70291919866576790810,10.3396710104678,0.160018718019145,330.894090599282
738213.70291928912047296762,10.3273618783125,0.160018718019145,330.894090599282
738213.70291937945876270533,10.3273618783125,0.147709585863826,330.906399731437
738213.70291946991346776485,10.3519801426232,0.147709585863826,330.906399731437
738213.70291956036817282438,10.3519801426232,0.160018718019145,330.943327127903
738213.70291965082287788391,10.3519801426232,0.147709585863826,330.906399731437
738213.70291974127758294344,10.3396710104678,0.160018718019145,330.881781467126
738213.70291983173228800297,10.3642892747785,0.172327850174464,330.906399731437
738213.70291992207057774067,10.3889075390891,0.209255246640421,330.795617542039
738213.70292001252528280020,10.4258349355551,0.246182643106377,330.918708863592
738213.70292010297998785973,10.4012166712444,0.246182643106377,330.931017995748
738213.70292019343469291925,10.3889075390891,0.233873510951058,330.955636260058
738213.70292028388939797878,10.3396710104678,0.209255246640421,331.017181920835
738213.70292037434410303831,10.3150527461572,0.184636982329783,330.992563656524
738213.70292046468239277601,10.3150527461572,0.160018718019145,330.955636260058
738213.70292055513709783554,10.3027436140019,0.123091321553189,330.967945392214
738213.70292064559180289507,10.3027436140019,0.147709585863826,330.955636260058
738213.70292073604650795460,10.3027436140019,0.135400453708508,330.992563656524
738213.70292082650121301413,10.2658162175359,0.135400453708508,331.02949105299
738213.70292091695591807365,10.2535070853806,0.123091321553189,330.894090599282
738213.70292100729420781136,10.3027436140019,0.11078218939787,330.918708863592
738213.70292109774891287088,10.2658162175359,0.0861639250872321,330.980254524369
738213.70292118820361793041,10.2535070853806,0,330.918708863592
738213.70292127865832298994,10.2658162175359,-0.0123091321553189,330.980254524369
738213.70292136911302804947,10.4012166712444,0.270800907417015,330.955636260058
738213.70292145956773310900,10.6473993143508,0.824711854406364,330.869472334971
738213.70292154990602284670,10.8443454288359,1.21860408337657,330.721762749107
738213.70292164036072790623,10.5119988606423,0.812402722251045,330.844854070661
738213.70292173081543296576,10.1427248959827,0.0369273964659566,330.931017995748
738213.70292182127013802528,10.0811792352062,-0.160018718019145,330.943327127903
738213.70292191172484308481,10.0688701030508,-0.147709585863826,330.906399731437
738213.70292200217954814434,10.3027436140019,0.11078218939787,330.906399731437
738213.70292209251783788204,10.3642892747785,0.184636982329783,330.931017995748
738213.70292218297254294157,10.3642892747785,0.196946114485102,330.906399731437
738213.70292227342724800110,10.3273618783125,0.184636982329783,330.894090599282
738213.70292236388195306063,10.3396710104678,0.172327850174464,330.906399731437
738213.70292245433665812016,10.3273618783125,0.160018718019145,330.918708863592
738213.70292254479136317968,10.3273618783125,0.147709585863826,330.980254524369
738213.70292263512965291739,10.3519801426232,0.160018718019145,330.967945392214
738213.70292272558435797691,10.3642892747785,0.172327850174464,330.943327127903
738213.70292281603906303644,10.3273618783125,0.172327850174464,330.992563656524
738213.70292290649376809597,10.3519801426232,0.22156437879574,331.017181920835
738213.70292299694847315550,10.3396710104678,0.22156437879574,330.992563656524
738213.70292308740317821503,10.3765984069338,0.233873510951058,330.906399731437
738213.70292317774146795273,10.4012166712444,0.22156437879574,330.992563656524
738213.70292326819617301226,10.3765984069338,0.233873510951058,331.017181920835
738213.70292335865087807178,10.3889075390891,0.258491775261696,330.931017995748
738213.70292344910558313131,10.4135258033998,0.270800907417015,330.955636260058
738213.70292353956028819084,10.4012166712444,0.283110039572334,330.992563656524
738213.70292363001499325037,10.4381440677104,0.307728303882972,331.00487278868
738213.70292372035328298807,10.462762332021,0.356964832504247,330.967945392214
738213.70292381080798804760,10.4504531998657,0.393892228970204,330.980254524369
738213.70292390126269310713,10.4750714641764,0.418510493280842,331.02949105299
738213.70292399171739816666,10.4750714641764,0.443128757591479,331.00487278868
738213.70292408217210322618,10.499689728487,0.504674418368074,331.00487278868
738213.70292417262680828571,10.499689728487,0.529292682678711,331.054109317301
738213.70292426296509802341,10.536617124953,0.553910946989349,331.054109317301
738213.70292435341980308294,10.5119988606423,0.578529211299987,330.931017995748
738213.70292444387450814247,10.536617124953,0.590838343455306,330.918708863592
738213.70292453432921320200,10.536617124953,0.603147475610625,330.955636260058
738213.70292462478391826153,10.5489262571083,0.603147475610625,331.054109317301
738213.70292471523862332106,10.5489262571083,0.578529211299987,331.00487278868
738213.70292480557691305876,10.536617124953,0.553910946989349,331.041800185146
738213.70292489603161811829,10.4873805963317,0.480056154057436,331.017181920835
738213.70292498648632317781,10.4873805963317,0.418510493280842,330.906399731437
738213.70292507694102823734,10.4504531998657,0.356964832504247,330.955636260058
738213.70292516739573329687,10.4012166712444,0.307728303882972,330.955636260058
738213.70292525785043835640,10.3642892747785,0.270800907417015,330.906399731437
738213.70292534818872809410,10.3519801426232,0.258491775261696,330.943327127903
738213.70292543864343315363,10.4012166712444,0.246182643106377,330.955636260058
738213.70292552909813821316,10.3642892747785,0.246182643106377,330.980254524369
738213.70292561955284327269,10.3642892747785,0.209255246640421,330.943327127903
738213.70292571000754833221,10.3519801426232,0.209255246640421,330.931017995748
738213.70292580046225339174,10.3396710104678,0.209255246640421,330.955636260058
738213.70292589080054312944,10.3396710104678,0.196946114485102,330.894090599282
738213.70292598125524818897,10.3396710104678,0.209255246640421,330.943327127903
738213.70292607170995324850,10.3273618783125,0.209255246640421,330.931017995748
738213.70292616216465830803,10.3396710104678,0.196946114485102,330.906399731437
738213.70292625261936336756,10.3150527461572,0.209255246640421,330.869472334971
738213.70292634307406842709,10.3396710104678,0.22156437879574,330.955636260058
738213.70292643341235816479,10.3396710104678,0.22156437879574,330.955636260058
738213.70292652386706322432,10.3396710104678,0.233873510951058,330.955636260058
738213.70292661432176828384,10.3273618783125,0.209255246640421,330.943327127903
738213.70292670477647334337,10.3396710104678,0.209255246640421,330.931017995748
738213.70292679523117840290,10.3273618783125,0.184636982329783,330.918708863592
738213.70292688568588346243,10.3273618783125,0.184636982329783,330.881781467126
738213.70292697602417320013,10.3396710104678,0.184636982329783,330.943327127903
738213.70292706647887825966,10.3396710104678,0.184636982329783,330.943327127903
738213.70292715693358331919,10.3273618783125,0.172327850174464,330.869472334971
738213.70292724738828837872,10.3273618783125,0.160018718019145,330.906399731437
738213.70292733784299343824,10.3150527461572,0.160018718019145,330.869472334971
738213.70292742829769849777,10.3150527461572,0.160018718019145,330.869472334971
738213.70292751863598823547,10.3150527461572,0.160018718019145,330.906399731437
738213.70292760909069329500,10.3027436140019,0.160018718019145,330.943327127903
738213.70292769954539835453,10.3027436140019,0.184636982329783,330.918708863592
738213.70292779000010341406,10.2904344818466,0.184636982329783,330.931017995748
738213.70292788045480847359,10.3150527461572,0.196946114485102,330.955636260058
738213.70292797090951353312,10.2904344818466,0.160018718019145,330.844854070661
738213.70292806124780327082,10.3150527461572,0.172327850174464,330.807926674195
738213.70292815170250833035,10.3027436140019,0.160018718019145,330.955636260058
738213.70292824215721338987,10.2904344818466,0.172327850174464,330.931017995748
738213.70292833261191844940,10.3273618783125,0.172327850174464,330.906399731437
738213.70292842306662350893,10.3396710104678,0.172327850174464,330.844854070661
738213.70292851352132856846,10.3396710104678,0.196946114485102,330.869472334971
738213.70292860385961830616,10.3396710104678,0.196946114485102,330.881781467126
738213.70292869431432336569,10.3765984069338,0.233873510951058,330.906399731437
738213.70292878476902842522,10.3889075390891,0.246182643106377,330.857163202816
738213.70292887522373348475,10.4012166712444,0.283110039572334,330.881781467126
738213.70292896567843854427,10.3642892747785,0.270800907417015,330.918708863592
738213.70292905613314360380,10.3519801426232,0.258491775261696,330.955636260058
738213.70292914647143334150,10.3396710104678,0.246182643106377,330.980254524369
738213.70292923692613840103,10.3273618783125,0.209255246640421,330.943327127903
738213.70292932738084346056,10.2904344818466,0.184636982329783,330.943327127903
738213.70292941783554852009,10.2904344818466,0.184636982329783,330.931017995748
738213.70292950829025357962,10.3150527461572,0.196946114485102,330.980254524369
738213.70292959874495863914,10.3027436140019,0.172327850174464,330.881781467126
738213.70292968908324837685,10.3150527461572,0.172327850174464,330.955636260058
738213.70292977953795343637,10.3027436140019,0.172327850174464,330.967945392214
738213.70292986999265849590,10.2781253496913,0.160018718019145,331.00487278868
738213.70292996044736355543,10.2904344818466,0.11078218939787,331.017181920835
738213.70293005090206861496,10.2535070853806,-0.0123091321553189,330.943327127903
738213.70293014135677367449,10.3027436140019,0.11078218939787,331.041800185146
738213.70293023169506341219,10.5119988606423,0.553910946989349,331.041800185146
738213.70293032214976847172,10.8197271645253,1.13244015828934,330.783308409884
738213.70293041260447353125,10.6473993143508,1.05858536535742,330.807926674195
738213.70293050305917859077,10.2904344818466,0.381583096814885,330.783308409884
738213.70293059351388365030,10.1673431602934,0.0369273964659566,330.758690145573
738213.70293068396858870983,10.0565609708955,-0.209255246640421,330.795617542039
738213.70293077430687844753,10.1673431602934,-0.0246182643106377,330.82023580635
738213.70293086476158350706,10.2904344818466,0.160018718019145,330.844854070661
738213.70293095521628856659,10.3150527461572,0.184636982329783,330.918708863592
738213.70293104567099362612,10.3273618783125,0.172327850174464,330.881781467126
738213.70293113612569868565,10.3273618783125,0.160018718019145,330.918708863592
738213.70293122658040374517,10.3150527461572,0.184636982329783,330.955636260058
738213.70293131691869348288,10.3150527461572,0.184636982329783,330.857163202816
738213.70293140737339854240,10.3519801426232,0.196946114485102,330.967945392214
738213.70293149782810360193,10.3027436140019,0.196946114485102,330.82023580635
738213.70293158828280866146,10.3396710104678,0.22156437879574,330.881781467126
738213.70293167873751372099,10.3642892747785,0.233873510951058,330.931017995748
738213.70293176919221878052,10.3889075390891,0.270800907417015,330.918708863592
738213.70293185953050851822,10.3765984069338,0.283110039572334,330.881781467126
738213.70293194998521357775,10.3765984069338,0.283110039572334,330.832544938505
738213.70293204043991863728,10.3765984069338,0.320037436038291,330.881781467126
738213.70293213089462369680,10.4012166712444,0.332346568193609,330.869472334971
738213.70293222134932875633,10.4135258033998,0.344655700348928,330.857163202816
738213.70293231180403381586,10.4135258033998,0.344655700348928,330.894090599282
738213.70293240214232355356,10.4258349355551,0.356964832504247,330.894090599282
738213.70293249259702861309,10.4135258033998,0.356964832504247,330.894090599282
738213.70293258305173367262,10.4135258033998,0.369273964659566,330.881781467126
738213.70293267350643873215,10.462762332021,0.418510493280842,330.881781467126
738213.70293276396114379168,10.4873805963317,0.455437889746798,330.931017995748
738213.70293285441584885120,10.4750714641764,0.467747021902117,330.980254524369
738213.70293294475413858891,10.499689728487,0.516983550523392,330.918708863592
738213.70293303520884364843,10.5119988606423,0.553910946989349,330.955636260058
738213.70293312566354870796,10.5489262571083,0.590838343455306,330.955636260058
738213.70293321611825376749,10.5612353892636,0.627765739921262,330.918708863592
738213.70293330657295882702,10.5612353892636,0.627765739921262,331.00487278868
738213.70293339702766388655,10.5489262571083,0.627765739921262,330.967945392214
738213.70293348736595362425,10.5612353892636,0.640074872076581,331.00487278868
738213.70293357782065868378,10.536617124953,0.590838343455306,330.906399731437
738213.70293366827536374331,10.5243079927976,0.553910946989349,330.906399731437
738213.70293375873006880283,10.4873805963317,0.480056154057436,330.857163202816
738213.70293384918477386236,10.4381440677104,0.43081962543616,330.894090599282
738213.70293393963947892189,10.4135258033998,0.356964832504247,330.906399731437
738213.70293402997776865959,10.3889075390891,0.344655700348928,330.894090599282
738213.70293412043247371912,10.4012166712444,0.295419171727653,330.881781467126
738213.70293421088717877865,10.3519801426232,0.258491775261696,330.869472334971
738213.70293430134188383818,10.3642892747785,0.233873510951058,330.918708863592
738213.70293439179658889771,10.3396710104678,0.246182643106377,330.992563656524
738213.70293448225129395723,10.3150527461572,0.233873510951058,330.955636260058
738213.70293457258958369493,10.3765984069338,0.22156437879574,330.943327127903
738213.70293466304428875446,10.3519801426232,0.147709585863826,330.943327127903
738213.70293475349899381399,10.3273618783125,0.160018718019145,330.967945392214
738213.70293484395369887352,10.3150527461572,0.184636982329783,330.918708863592
738213.70293493440840393305,10.3150527461572,0.184636982329783,330.967945392214
738213.70293502486310899258,10.3150527461572,0.22156437879574,330.82023580635
738213.70293511520139873028,10.3150527461572,0.196946114485102,330.82023580635
738213.70293520565610378981,10.3273618783125,0.196946114485102,330.980254524369
738213.70293529611080884933,10.2535070853806,0.160018718019145,330.992563656524
738213.70293538656551390886,10.3027436140019,0.135400453708508,330.918708863592
738213.70293547702021896839,10.2042705567593,0.0615456607765943,330.980254524369
738213.70293556747492402792,10.2535070853806,0.0984730572425509,330.955636260058
738213.70293565781321376562,10.3889075390891,0.283110039572334,330.918708863592
738213.70293574826791882515,10.3519801426232,0.258491775261696,330.881781467126
738213.70293583872262388468,10.3027436140019,0.22156437879574,330.931017995748
738213.70293592917732894421,10.2658162175359,0.172327850174464,330.955636260058
738213.70293601963203400373,10.2535070853806,0.135400453708508,330.931017995748
738213.70293611008673906326,10.3642892747785,0.233873510951058,330.931017995748
738213.70293620042502880096,10.3889075390891,0.283110039572334,330.881781467126
738213.70293629087973386049,10.3519801426232,0.233873510951058,330.881781467126
738213.70293638133443892002,10.3519801426232,0.246182643106377,330.857163202816
738213.70293647178914397955,10.3396710104678,0.258491775261696,330.857163202816
738213.70293656224384903908,10.3765984069338,0.344655700348928,330.857163202816
738213.70293665269855409861,10.3765984069338,0.258491775261696,330.844854070661
738213.70293674303684383631,10.4258349355551,0.258491775261696,330.906399731437
738213.70293683349154889584,10.4750714641764,0.283110039572334,330.955636260058
738213.70293692394625395536,10.4504531998657,0.258491775261696,330.955636260058
738213.70293701440095901489,10.4381440677104,0.246182643106377,330.931017995748
738213.70293710485566407442,10.3765984069338,0.196946114485102,330.967945392214
738213.70293719531036913395,10.3642892747785,0.196946114485102,330.967945392214
738213.70293728564865887165,10.3396710104678,0.184636982329783,330.992563656524
738213.70293737610336393118,10.3273618783125,0.147709585863826,330.992563656524
738213.70293746655806899071,10.3273618783125,0.160018718019145,330.943327127903
738213.70293755701277405024,10.3519801426232,0.209255246640421,330.894090599282
738213.70293764746747910976,10.3519801426232,0.196946114485102,330.918708863592
738213.70293773792218416929,10.3150527461572,0.123091321553189,330.918708863592
738213.70293782826047390699,10.2535070853806,0.0246182643106377,330.943327127903
738213.70293791871517896652,10.2042705567593,0.0123091321553189,330.894090599282
738213.70293800916988402605,10.2042705567593,0.0492365286212755,330.844854070661
738213.70293809962458908558,10.1181066316721,-0.0492365286212755,330.832544938505
738213.70293819007929414511,10.0565609708955,-0.147709585863826,330.795617542039
738213.70293828053399920464,9.99501531011892,-0.172327850174464,330.844854070661
738213.70293837087228894234,10.0196335744296,-0.184636982329783,330.857163202816
738213.70293846132699400187,10.0196335744296,-0.160018718019145,330.844854070661
738213.70293855178169906139,10.0196335744296,-0.11078218939787,330.783308409884
738213.70293864223640412092,10.0934883673615,-0.0492365286212755,330.857163202816
738213.70293873269110918045,10.1181066316721,-0.160018718019145,330.894090599282
738213.70293882314581423998,10.1057974995168,-0.160018718019145,330.931017995748
738213.70293891348410397768,10.2411979532253,0.160018718019145,331.017181920835
738213.70293900393880903721,10.462762332021,0.640074872076581,330.844854070661
738213.70293909439351409674,10.5489262571083,0.947803175959553,330.610980559709
738213.70293918484821915627,10.22888882107,0.516983550523392,330.746381013418
738213.70293927530292421579,10.1304157638274,0.184636982329783,330.734071881263
738213.70293936575762927532,9.90885138503169,-0.344655700348928,330.770999277729
738213.70293945609591901302,9.9827061779636,-0.22156437879574,330.770999277729
738213.70293954655062407255,10.2411979532253,0.0615456607765943,330.894090599282
738213.70293963700532913208,10.2658162175359,0.0984730572425509,330.992563656524
738213.70293972746003419161,10.2658162175359,0.0861639250872321,331.00487278868
738213.70293981791473925114,10.2535070853806,0.0984730572425509,331.054109317301
738213.70293990836944431067,10.2165796889147,0.0738547929319132,331.091036713767
738213.70293999870773404837,10.2535070853806,0.123091321553189,331.02949105299
738213.70294008916243910789,10.2658162175359,0.135400453708508,331.066418449456
738213.70294017961714416742,10.3642892747785,0.209255246640421,331.00487278868
738213.70294027007184922695,10.499689728487,0.344655700348928,331.054109317301
738213.70294036052655428648,10.462762332021,0.307728303882972,331.02949105299
738213.70294045098125934601,10.5119988606423,0.381583096814885,331.041800185146
738213.70294054131954908371,10.6473993143508,0.504674418368074,331.041800185146
738213.70294063177425414324,10.6227810500402,0.455437889746798,331.054109317301
738213.70294072222895920277,10.499689728487,0.344655700348928,331.00487278868
738213.70294081268366426229,10.5612353892636,0.418510493280842,331.041800185146
738213.70294090313836932182,10.5735445214189,0.467747021902117,330.980254524369
738213.70294099359307438135,10.5119988606423,0.406201361125523,330.967945392214
738213.70294108393136411905,10.4381440677104,0.369273964659566,330.967945392214
738213.70294117438606917858,10.536617124953,0.480056154057436,330.943327127903
738213.70294126484077423811,10.4873805963317,0.406201361125523,330.992563656524
738213.70294135529547929764,10.5489262571083,0.43081962543616,331.017181920835
738213.70294144575018435717,10.4873805963317,0.393892228970204,331.054109317301
738213.70294153620488941669,10.5243079927976,0.467747021902117,331.091036713767
738213.70294162654317915440,10.4873805963317,0.443128757591479,330.980254524369
738213.70294171699788421392,10.5489262571083,0.516983550523392,331.00487278868
738213.70294180745258927345,10.536617124953,0.492365286212755,331.02949105299
738213.70294189790729433298,10.5243079927976,0.504674418368074,330.955636260058
738213.70294198836199939251,10.5119988606423,0.492365286212755,330.943327127903
738213.70294207881670445204,10.5858536535742,0.566220079144668,330.869472334971
738213.70294216915499418974,10.6473993143508,0.615456607765943,330.906399731437
738213.70294225960969924927,10.5858536535742,0.529292682678711,330.967945392214
738213.70294235006440430880,10.5243079927976,0.467747021902117,330.918708863592
738213.70294244051910936832,10.5858536535742,0.480056154057436,330.894090599282
738213.70294253097381442785,10.5119988606423,0.369273964659566,330.894090599282
738213.70294262142851948738,10.4873805963317,0.320037436038291,330.894090599282
738213.70294271176680922508,10.5612353892636,0.381583096814885,330.894090599282
738213.70294280222151428461,10.5489262571083,0.356964832504247,330.931017995748
738213.70294289267621934414,10.4873805963317,0.307728303882972,330.906399731437
738213.70294298313092440367,10.4873805963317,0.295419171727653,330.795617542039
738213.70294307358562946320,10.4873805963317,0.270800907417015,330.894090599282
738213.70294316404033452272,10.499689728487,0.270800907417015,330.943327127903
738213.70294325437862426043,10.4750714641764,0.233873510951058,330.844854070661
738213.70294334483332931995,10.4381440677104,0.22156437879574,330.918708863592
738213.70294343528803437948,10.4381440677104,0.22156437879574,330.980254524369
738213.70294352574273943901,10.5489262571083,0.332346568193609,330.955636260058
738213.70294361619744449854,10.536617124953,0.320037436038291,330.943327127903
738213.70294370665214955807,10.5735445214189,0.369273964659566,331.017181920835
738213.70294379699043929577,10.536617124953,0.332346568193609,330.992563656524
738213.70294388744514435530,10.499689728487,0.295419171727653,330.906399731437
738213.70294397789984941483,10.5489262571083,0.332346568193609,331.017181920835
738213.70294406835455447435,10.5243079927976,0.283110039572334,330.955636260058
738213.70294415880925953388,10.4381440677104,0.233873510951058,330.857163202816
738213.70294424926396459341,10.499689728487,0.307728303882972,330.857163202816
738213.70294433960225433111,10.499689728487,0.307728303882972,330.832544938505
738213.70294443005695939064,10.3765984069338,0.196946114485102,330.795617542039
738213.70294452051166445017,10.4258349355551,0.233873510951058,330.783308409884
738213.70294461096636950970,10.5119988606423,0.332346568193609,330.844854070661
738213.70294470142107456923,10.462762332021,0.22156437879574,330.844854070661
738213.70294479187577962875,10.4012166712444,0.184636982329783,330.857163202816
738213.70294488221406936646,10.3765984069338,0.172327850174464,330.844854070661
738213.70294497266877442598,10.4135258033998,0.184636982329783,330.869472334971
738213.70294506312347948551,10.3889075390891,0.147709585863826,330.844854070661
738213.70294515357818454504,10.4012166712444,0.184636982329783,330.807926674195
738213.70294524403288960457,10.4258349355551,0.160018718019145,330.82023580635
738213.70294533448759466410,10.462762332021,0.22156437879574,330.832544938505
738213.70294542482588440180,10.4135258033998,0.147709585863826,330.857163202816
738213.70294551528058946133,10.3519801426232,0.0984730572425509,330.869472334971
738213.70294560573529452085,10.462762332021,0.196946114485102,330.684835352641
738213.70294569618999958038,10.4135258033998,0.11078218939787,330.721762749107
738213.70294578664470463991,10.4135258033998,0.172327850174464,330.82023580635
738213.70294587709940969944,10.499689728487,0.270800907417015,330.832544938505
738213.70294596755411475897,10.462762332021,0.246182643106377,330.881781467126
738213.70294605789240449667,10.3519801426232,0.160018718019145,330.832544938505
738213.70294614834710955620,10.4135258033998,0.246182643106377,330.869472334971
738213.70294623880181461573,10.4258349355551,0.233873510951058,330.881781467126
738213.70294632925651967525,10.3396710104678,0.11078218939787,330.844854070661
738213.70294641971122473478,10.3519801426232,0.135400453708508,330.844854070661
738213.70294651016592979431,10.3273618783125,0.11078218939787,330.906399731437
738213.70294660050421953201,10.2411979532253,0.0123091321553189,330.869472334971
738213.70294669095892459154,10.4012166712444,0.184636982329783,330.894090599282
738213.70294678141362965107,10.3027436140019,0.0369273964659566,330.894090599282
738213.70294687186833471060,10.3150527461572,0.0369273964659566,330.869472334971
738213.70294696232303977013,10.2535070853806,0.0246182643106377,330.844854070661
738213.70294705277774482965,10.2904344818466,0.0492365286212755,330.869472334971
738213.70294714311603456736,10.2781253496913,-0.0984730572425509,330.906399731437
738213.70294723357073962688,10.2904344818466,-0.0615456607765943,330.931017995748
738213.70294732402544468641,10.5735445214189,0.492365286212755,330.906399731437
738213.70294741448014974594,10.7951089002146,1.0462762332021,330.660217088331
738213.70294750493485480547,10.6720175786615,0.960112308114872,330.647907956175
738213.70294759538955986500,10.3889075390891,0.295419171727653,330.610980559709
738213.70294768572784960270,10.1673431602934,-0.209255246640421,330.697144484797
738213.70294777618255466223,10.0688701030508,-0.356964832504247,330.770999277729
738213.70294786663725972176,10.1673431602934,-0.135400453708508,330.783308409884
738213.70294795709196478128,10.4135258033998,0.11078218939787,330.783308409884
738213.70294804754666984081,10.462762332021,0.160018718019145,330.869472334971
738213.70294813800137490034,10.3396710104678,0.0369273964659566,330.906399731437
738213.70294822833966463804,10.2904344818466,0,330.770999277729
738213.70294831879436969757,10.4381440677104,0.160018718019145,330.857163202816
738213.70294840924907475710,10.3765984069338,0.0984730572425509,330.869472334971
738213.70294849970377981663,10.3765984069338,0.0861639250872321,330.82023580635
738213.70294859015848487616,10.3889075390891,0.0984730572425509,330.807926674195
738213.70294868061318993568,10.2535070853806,-0.0246182643106377,330.783308409884
738213.70294877095147967339,10.3396710104678,0.0615456607765943,330.832544938505
738213.70294886140618473291,10.5119988606423,0.22156437879574,330.82023580635
738213.70294895186088979244,10.3642892747785,0.123091321553189,330.758690145573
738213.70294904231559485197,10.3150527461572,0.0738547929319132,330.758690145573
738213.70294913277029991150,10.4012166712444,0.147709585863826,330.623289691865
738213.70294922322500497103,10.4504531998657,0.196946114485102,330.709453616952
738213.70294931356329470873,10.4258349355551,0.172327850174464,330.770999277729
738213.70294940401799976826,10.4750714641764,0.233873510951058,330.795617542039
738213.70294949447270482779,10.4873805963317,0.246182643106377,330.82023580635
738213.70294958492740988731,10.4504531998657,0.209255246640421,330.82023580635
738213.70294967538211494684,10.499689728487,0.270800907417015,330.844854070661
738213.70294976583682000637,10.499689728487,0.283110039572334,330.82023580635
738213.70294985617510974407,10.5119988606423,0.320037436038291,330.82023580635
738213.70294994662981480360,10.4504531998657,0.283110039572334,330.857163202816
738213.70295003708451986313,10.5858536535742,0.43081962543616,330.881781467126
738213.70295012753922492266,10.6350901821955,0.480056154057436,330.869472334971
738213.70295021799392998219,10.5612353892636,0.455437889746798,330.832544938505
738213.70295030844863504171,10.5612353892636,0.455437889746798,330.857163202816
738213.70295039878692477942,10.6473993143508,0.566220079144668,330.881781467126
738213.70295048924162983894,10.5735445214189,0.480056154057436,330.894090599282
738213.70295057969633489847,10.5735445214189,0.492365286212755,330.894090599282
738213.70295067015103995800,10.5858536535742,0.455437889746798,330.881781467126
738213.70295076060574501753,10.5489262571083,0.381583096814885,330.82023580635
738213.70295085106045007706,10.499689728487,0.270800907417015,330.857163202816
738213.70295094139873981476,10.4750714641764,0.209255246640421,330.832544938505
738213.70295103185344487429,10.5119988606423,0.209255246640421,330.82023580635
738213.70295112230814993382,10.4381440677104,0.11078218939787,330.881781467126
738213.70295121276285499334,10.4135258033998,0.0861639250872321,330.881781467126
738213.70295130321756005287,10.3273618783125,-0.0369273964659566,330.894090599282
738213.70295139367226511240,10.4012166712444,0.0492365286212755,330.894090599282
738213.70295148401055485010,10.3889075390891,0.0369273964659566,330.931017995748
738213.70295157446525990963,10.3519801426232,0.0123091321553189,330.869472334971
738213.70295166491996496916,10.3889075390891,0.0246182643106377,330.894090599282
738213.70295175537467002869,10.3642892747785,0.0123091321553189,330.906399731437
738213.70295184582937508821,10.3642892747785,0,330.844854070661
738213.70295193628408014774,10.3396710104678,-0.0246182643106377,330.894090599282
738213.70295202662236988544,10.3519801426232,0,330.906399731437
738213.70295211707707494497,10.3765984069338,0,330.844854070661
738213.70295220753178000450,10.3889075390891,0.0369273964659566,330.918708863592
738213.70295229798648506403,10.3642892747785,0.0246182643106377,330.943327127903
738213.70295238844119012356,10.3519801426232,0.0123091321553189,330.906399731437
738213.70295247889589518309,10.3519801426232,0.0123091321553189,330.894090599282
738213.70295256923418492079,10.3889075390891,0.0246182643106377,330.931017995748
738213.70295265968888998032,10.3889075390891,0.0369273964659566,330.795617542039
738213.70295275014359503984,10.3889075390891,0.0369273964659566,330.770999277729
738213.70295284059830009937,10.3765984069338,0.0246182643106377,330.906399731437
738213.70295293105300515890,10.3519801426232,0.0123091321553189,330.943327127903
738213.70295302150771021843,10.3519801426232,0,330.931017995748
738213.70295311184599995613,10.4012166712444,0.0615456607765943,330.894090599282
738213.70295320230070501566,10.4135258033998,0.0615456607765943,330.881781467126
738213.70295329275541007519,10.3765984069338,0.0246182643106377,330.869472334971
738213.70295338321011513472,10.3642892747785,0.0246182643106377,330.832544938505
738213.70295347366482019424,10.3150527461572,-0.0246182643106377,330.857163202816
738213.70295356411952525377,10.3519801426232,0,330.82023580635
738213.70295365445781499147,10.3765984069338,0.0246182643106377,330.844854070661
738213.70295374491252005100,10.3765984069338,0.0123091321553189,330.844854070661
738213.70295383536722511053,10.3765984069338,0.0246182643106377,330.832544938505
738213.70295392582193017006,10.3642892747785,-0.0123091321553189,330.869472334971
738213.70295401627663522959,10.3765984069338,0.0246182643106377,330.832544938505
738213.70295410673134028912,10.3889075390891,0.0369273964659566,330.82023580635
738213.70295419706963002682,10.4504531998657,0.0984730572425509,330.746381013418
738213.70295428752433508635,10.4135258033998,0.0738547929319132,330.82023580635
738213.70295437797904014587,10.4135258033998,0.0738547929319132,330.869472334971
738213.70295446843374520540,10.3889075390891,0.0861639250872321,330.844854070661
738213.70295455888845026493,10.3889075390891,0.0615456607765943,330.931017995748
738213.70295464934315532446,10.3642892747785,0.0369273964659566,330.931017995748
738213.70295473968144506216,10.3765984069338,0.0123091321553189,330.955636260058
738213.70295483013615012169,10.3519801426232,0,330.955636260058
738213.70295492059085518122,10.3519801426232,0,330.894090599282
738213.70295501104556024075,10.3396710104678,-0.0123091321553189,330.955636260058
738213.70295510150026530027,10.4135258033998,0.0861639250872321,330.783308409884
738213.70295519195497035980,10.3889075390891,0.0615456607765943,330.943327127903
738213.70295528229326009750,10.3642892747785,0.0369273964659566,330.869472334971
738213.70295537274796515703,10.3396710104678,0,330.857163202816
738213.70295546320267021656,10.2904344818466,-0.11078218939787,330.857163202816
738213.70295555365737527609,10.3765984069338,-0.0861639250872321,330.955636260058
738213.70295564411208033562,10.4381440677104,0.11078218939787,330.992563656524
738213.70295573456678539515,10.7089449751274,0.6523840042319,330.82023580635
738213.70295582490507513285,10.9305093539232,1.12013102613402,330.623289691865
738213.70295591535978019238,10.6227810500402,0.738547929319132,330.770999277729
738213.70295600581448525190,10.2411979532253,-0.0492365286212755,330.82023580635
738213.70295609626919031143,10.1427248959827,-0.295419171727653,330.832544938505
738213.70295618672389537096,10.2165796889147,-0.135400453708508,330.697144484797
738213.70295627717860043049,10.3642892747785,0.0246182643106377,330.795617542039
738213.70295636751689016819,10.4258349355551,0.11078218939787,330.844854070661
738213.70295645797159522772,10.4135258033998,0.0984730572425509,330.906399731437
738213.70295654842630028725,10.3519801426232,0.0492365286212755,330.894090599282
738213.70295663888100534678,10.4135258033998,0.11078218939787,330.931017995748
738213.70295672933571040630,10.4258349355551,0.11078218939787,330.881781467126
738213.70295681979041546583,10.4012166712444,0.0861639250872321,330.943327127903
738213.70295691012870520353,10.4012166712444,0.0984730572425509,330.931017995748
738213.70295700058341026306,10.3642892747785,0.0615456607765943,330.894090599282
738213.70295709103811532259,10.4258349355551,0.0984730572425509,330.931017995748
738213.70295718149282038212,10.3889075390891,0.0615456607765943,330.807926674195
738213.70295727194752544165,10.3642892747785,0.0369273964659566,330.857163202816
738213.70295736240223050117,10.3765984069338,0.0738547929319132,330.881781467126
738213.70295745274052023888,10.4258349355551,0.123091321553189,330.844854070661
738213.70295754319522529840,10.4381440677104,0.123091321553189,330.943327127903
738213.70295763364993035793,10.4381440677104,0.0984730572425509,330.918708863592
738213.70295772410463541746,10.5119988606423,0.147709585863826,330.906399731437
738213.70295781455934047699,10.5119988606423,0.184636982329783,330.918708863592
738213.70295790501404553652,10.4873805963317,0.172327850174464,330.918708863592
738213.70295799535233527422,10.5243079927976,0.22156437879574,330.931017995748
738213.70295808580704033375,10.536617124953,0.22156437879574,330.857163202816
738213.70295817626174539328,10.536617124953,0.246182643106377,330.918708863592
738213.70295826671645045280,10.5489262571083,0.270800907417015,330.931017995748
738213.70295835717115551233,10.6104719178849,0.381583096814885,330.906399731437
738213.70295844762586057186,10.6104719178849,0.369273964659566,330.967945392214
738213.70295853796415030956,10.5735445214189,0.369273964659566,330.943327127903
738213.70295862841885536909,10.6104719178849,0.406201361125523,330.992563656524
738213.70295871887356042862,10.6350901821955,0.43081962543616,330.906399731437
738213.70295880932826548815,10.6597084465061,0.467747021902117,330.992563656524
738213.70295889978297054768,10.5981627857295,0.43081962543616,330.894090599282
738213.70295899023767560720,10.6350901821955,0.443128757591479,330.906399731437
738213.70295908057596534491,10.5735445214189,0.381583096814885,330.894090599282
738213.70295917103067040443,10.5612353892636,0.320037436038291,330.869472334971
738213.70295926148537546396,10.5243079927976,0.246182643106377,330.857163202816
738213.70295935194008052349,10.4381440677104,0.160018718019145,330.869472334971
738213.70295944239478558302,10.4012166712444,0.0984730572425509,330.869472334971
738213.70295953284949064255,10.4258349355551,0.0984730572425509,330.906399731437
738213.70295962318778038025,10.3519801426232,0.0369273964659566,330.857163202816
738213.70295971364248543978,10.3519801426232,0.0246182643106377,330.684835352641
738213.70295980409719049931,10.3273618783125,-0.0123091321553189,330.783308409884
738213.70295989455189555883,10.2781253496913,-0.0492365286212755,330.832544938505
738213.70295998500660061836,10.3027436140019,0.0246182643106377,330.758690145573
738213.70296007546130567789,10.2535070853806,-0.0369273964659566,330.758690145573
738213.70296016579959541559,10.2042705567593,-0.0615456607765943,330.807926674195
738213.70296025625430047512,10.2042705567593,-0.0615456607765943,330.795617542039
738213.70296034670900553465,10.2535070853806,-0.0123091321553189,330.807926674195
738213.70296043716371059418,10.2781253496913,0,330.869472334971
738213.70296052761841565371,10.3519801426232,0.0246182643106377,330.869472334971
738213.70296061807312071323,10.3519801426232,0.0123091321553189,330.832544938505
738213.70296070841141045094,10.3765984069338,0,330.857163202816
738213.70296079886611551046,10.3642892747785,-0.0246182643106377,330.894090599282
738213.70296088932082056999,10.4012166712444,0.0615456607765943,330.869472334971
738213.70296097977552562952,10.4135258033998,0.0615456607765943,330.807926674195
738213.70296107023023068905,10.4135258033998,0.0861639250872321,330.844854070661
738213.70296116068493574858,10.3765984069338,0.0738547929319132,330.857163202816
738213.70296125102322548628,10.4504531998657,0.135400453708508,330.758690145573
738213.70296134147793054581,10.4504531998657,0.0984730572425509,330.881781467126
738213.70296143193263560534,10.4381440677104,0.0984730572425509,330.881781467126
738213.70296152238734066486,10.4012166712444,0.0492365286212755,330.807926674195
738213.70296161284204572439,10.4135258033998,0.0738547929319132,330.807926674195
738213.70296170329675078392,10.4135258033998,0.0492365286212755,330.770999277729
738213.70296179363504052162,10.4750714641764,0.135400453708508,330.783308409884
738213.70296188408974558115,10.4381440677104,0.160018718019145,330.758690145573
738213.70296197454445064068,10.4750714641764,0.196946114485102,330.770999277729
738213.70296206499915570021,10.499689728487,0.172327850174464,330.721762749107
738213.70296215545386075974,10.499689728487,0.0984730572425509,330.783308409884
738213.70296224590856581926,10.462762332021,0.0123091321553189,330.783308409884
738213.70296233624685555696,10.5119988606423,0.123091321553189,330.783308409884
738213.70296242670156061649,10.5119988606423,0.123091321553189,330.783308409884
738213.70296251715626567602,10.536617124953,0.196946114485102,330.795617542039
738213.70296260761097073555,10.5735445214189,0.184636982329783,330.82023580635
738213.70296269806567579508,10.5243079927976,0.147709585863826,330.746381013418
738213.70296278852038085461,10.6227810500402,0.283110039572334,330.709453616952
738213.70296287885867059231,10.6473993143508,0.307728303882972,330.807926674195
738213.70296296931337565184,10.6104719178849,0.307728303882972,330.82023580635
738213.70296305976808071136,10.5612353892636,0.258491775261696,330.795617542039
738213.70296315022278577089,10.5858536535742,0.258491775261696,330.832544938505
738213.70296324067749083042,10.5612353892636,0.233873510951058,330.660217088331
738213.70296333113219588995,10.5119988606423,0.196946114485102,330.770999277729
738213.70296342147048562765,10.4873805963317,0.209255246640421,330.832544938505
738213.70296351192519068718,10.4504531998657,0.209255246640421,330.844854070661
738213.70296360237989574671,10.4135258033998,0.172327850174464,330.832544938505
738213.70296369283460080624,10.4381440677104,0.160018718019145,330.857163202816
738213.70296378328930586576,10.4258349355551,0.147709585863826,330.857163202816
738213.70296387374401092529,10.4135258033998,0.135400453708508,330.881781467126
738213.70296396408230066299,10.5119988606423,0.246182643106377,330.857163202816
738213.70296405453700572252,10.4012166712444,0.0492365286212755,330.844854070661
738213.70296414499171078205,10.4381440677104,0,330.844854070661
738213.70296423544641584158,10.4873805963317,0.196946114485102,330.894090599282
738213.70296432590112090111,10.6843267108168,0.677002268542538,330.734071881263
738213.70296441635582596064,10.8935819574572,1.12013102613402,330.524816634622
738213.70296450669411569834,10.5981627857295,0.87394838302764,330.734071881263
738213.70296459714882075787,10.2042705567593,0.0738547929319132,330.684835352641
738213.70296468760352581739,10.1304157638274,-0.246182643106377,330.807926674195
738213.70296477805823087692,10.2658162175359,-0.0369273964659566,330.770999277729
738213.70296486851293593645,10.4504531998657,0.160018718019145,330.770999277729
738213.70296495896764099598,10.4381440677104,0.11078218939787,330.795617542039
738213.70296504930593073368,10.4012166712444,0.0492365286212755,330.795617542039
738213.70296513976063579321,10.4258349355551,0.0369273964659566,330.770999277729
738213.70296523021534085274,10.4012166712444,0.0246182643106377,330.734071881263
738213.70296532067004591227,10.5119988606423,0.0738547929319132,330.770999277729
738213.70296541112475097179,10.5119988606423,0.0369273964659566,330.770999277729
738213.70296550157945603132,10.5119988606423,-0.0123091321553189,330.746381013418
738213.70296559191774576902,10.5612353892636,0.0246182643106377,330.770999277729
738213.70296568237245082855,10.5243079927976,0.0123091321553189,330.783308409884
738213.70296577282715588808,10.5119988606423,0.0246182643106377,330.623289691865
738213.70296586328186094761,10.5119988606423,0.0369273964659566,330.746381013418
738213.70296595373656600714,10.5243079927976,0.0369273964659566,330.758690145573
738213.70296604419127106667,10.5489262571083,0.0861639250872321,330.758690145573
738213.70296613452956080437,10.5735445214189,0.0738547929319132,330.734071881263
738213.70296622498426586390,10.5612353892636,0.0246182643106377,330.734071881263
738213.70296631543897092342,10.6473993143508,0.135400453708508,330.734071881263
738213.70296640589367598295,10.7458723715934,0.307728303882972,330.82023580635
738213.70296649634838104248,10.7212541072827,0.295419171727653,330.807926674195
738213.70296658680308610201,10.7458723715934,0.344655700348928,330.82023580635
738213.70296667714137583971,10.7335632394381,0.418510493280842,330.807926674195
738213.70296676759608089924,10.770490635904,0.344655700348928,330.660217088331
738213.70296685805078595877,10.80741803237,0.393892228970204,330.783308409884
738213.70296694850549101830,10.7951089002146,0.418510493280842,330.832544938505
738213.70296703896019607782,10.8197271645253,0.43081962543616,330.770999277729
738213.70296712941490113735,10.80741803237,0.455437889746798,330.758690145573
738213.70296721975319087505,10.8197271645253,0.504674418368074,330.795617542039
738213.70296731020789593458,10.8197271645253,0.504674418368074,330.82023580635
738213.70296740066260099411,10.8320362966806,0.516983550523392,330.832544938505
738213.70296749111730605364,10.8197271645253,0.516983550523392,330.82023580635
738213.70296758157201111317,10.8443454288359,0.516983550523392,330.844854070661
738213.70296767202671617270,10.8197271645253,0.43081962543616,330.869472334971
738213.70296776236500591040,10.7951089002146,0.369273964659566,330.906399731437
738213.70296785281971096992,10.7458723715934,0.295419171727653,330.881781467126
738213.70296794327441602945,10.6720175786615,0.172327850174464,330.770999277729
738213.70296803372912108898,10.6843267108168,0.172327850174464,330.82023580635
738213.70296812418382614851,10.6350901821955,0.147709585863826,330.795617542039
738213.70296821463853120804,10.5858536535742,0.11078218939787,330.832544938505
738213.70296830497682094574,10.6597084465061,0.184636982329783,330.807926674195
738213.70296839543152600527,10.6350901821955,0.0615456607765943,330.894090599282
738213.70296848588623106480,10.5981627857295,0.0492365286212755,330.869472334971
738213.70296857634093612432,10.6227810500402,0.0984730572425509,330.734071881263
738213.70296866679564118385,10.5735445214189,0.0123091321553189,330.746381013418
738213.70296875725034624338,10.6350901821955,0.0861639250872321,330.82023580635
738213.70296884758863598108,10.6720175786615,0.147709585863826,330.832544938505
738213.70296893804334104061,10.7089449751274,0.135400453708508,330.746381013418
738213.70296902849804610014,10.6843267108168,0.123091321553189,330.82023580635
738213.70296911895275115967,10.6473993143508,0.11078218939787,330.857163202816
738213.70296920940745621920,10.6843267108168,0.135400453708508,330.82023580635
738213.70296929986216127872,10.6104719178849,0.0369273964659566,330.795617542039
738213.70296939020045101643,10.7212541072827,0.172327850174464,330.82023580635
738213.70296948065515607595,10.7335632394381,0.184636982329783,330.832544938505
738213.70296957110986113548,10.6966358429721,0.160018718019145,330.758690145573
738213.70296966156456619501,10.6966358429721,0.160018718019145,330.844854070661
738213.70296975201927125454,10.770490635904,0.283110039572334,330.758690145573
738213.70296984247397631407,10.7089449751274,0.22156437879574,330.721762749107
738213.70296993281226605177,10.7335632394381,0.172327850174464,330.857163202816
738213.70297002326697111130,10.770490635904,0.295419171727653,330.906399731437
738213.70297011372167617083,10.7335632394381,0.184636982329783,330.857163202816
738213.70297020417638123035,10.6966358429721,0.135400453708508,330.869472334971
738213.70297029463108628988,10.6720175786615,0.184636982329783,330.721762749107
738213.70297038508579134941,10.6720175786615,0.160018718019145,330.832544938505
738213.70297047542408108711,10.7212541072827,0.258491775261696,330.918708863592
738213.70297056587878614664,10.7089449751274,0.233873510951058,330.943327127903
738213.70297065633349120617,10.7212541072827,0.209255246640421,330.980254524369
738213.70297074678819626570,10.6966358429721,0.172327850174464,330.992563656524
738213.70297083724290132523,10.6597084465061,0.209255246640421,330.955636260058
738213.70297092769760638475,10.6966358429721,0.147709585863826,330.992563656524
738213.70297101803589612246,10.6350901821955,0.160018718019145,330.943327127903
738213.70297110849060118198,10.6227810500402,0.135400453708508,330.980254524369
738213.70297119894530624151,10.6350901821955,0.0984730572425509,330.931017995748
738213.70297128940001130104,10.6227810500402,0.123091321553189,330.931017995748
738213.70297137985471636057,10.5858536535742,0.135400453708508,330.869472334971
738213.70297147030942142010,10.536617124953,0,330.881781467126
738213.70297156064771115780,10.6350901821955,0.123091321553189,330.869472334971
738213.70297165110241621733,10.6104719178849,0.123091321553189,330.82023580635
738213.70297174155712127686,10.6350901821955,0.147709585863826,330.869472334971
738213.70297183201182633638,10.6473993143508,0.135400453708508,330.832544938505
738213.70297192246653139591,10.6350901821955,0.147709585863826,330.844854070661
738213.70297201292123645544,10.5735445214189,0.0984730572425509,330.832544938505
738213.70297210325952619314,10.5612353892636,0.0738547929319132,330.807926674195
738213.70297219371423125267,10.5735445214189,0.0984730572425509,330.881781467126
738213.70297228416893631220,10.5119988606423,0.0615456607765943,330.832544938505
738213.70297237462364137173,10.4258349355551,-0.0984730572425509,330.844854070661
738213.70297246507834643126,10.4258349355551,-0.11078218939787,330.844854070661
738213.70297255553305149078,10.5858536535742,0.135400453708508,330.844854070661
738213.70297264587134122849,10.5489262571083,0.0246182643106377,330.82023580635
738213.70297273632604628801,10.4750714641764,-0.0861639250872321,330.783308409884
738213.70297282678075134754,10.4750714641764,-0.0123091321553189,330.82023580635
738213.70297291723545640707,10.536617124953,0.0123091321553189,330.931017995748
738213.70297300769016146660,10.499689728487,-0.0246182643106377,330.906399731437
738213.70297309814486652613,10.499689728487,-0.0615456607765943,330.869472334971
738213.70297318859957158566,10.4873805963317,-0.172327850174464,330.955636260058
738213.70297327893786132336,10.5489262571083,-0.0492365286212755,331.041800185146
738213.70297336939256638288,10.7335632394381,0.43081962543616,330.943327127903
738213.70297345984727144241,10.9797458825444,0.997039704580828,330.684835352641
738213.70297355030197650194,10.7827997680593,0.787784457940408,330.807926674195
738213.70297364075668156147,10.5612353892636,0.22156437879574,330.783308409884
738213.70297373121138662100,10.3642892747785,-0.246182643106377,330.869472334971
738213.70297382154967635870,10.3273618783125,-0.307728303882972,330.721762749107
738213.70297391200438141823,10.4873805963317,-0.0369273964659566,330.857163202816
738213.70297400245908647776,10.5489262571083,0.0615456607765943,330.844854070661
738213.70297409291379153728,10.5489262571083,0.0861639250872321,330.881781467126
738213.70297418336849659681,10.5489262571083,0.0861639250872321,330.82023580635
738213.70297427382320165634,10.5243079927976,0.0492365286212755,330.857163202816
738213.70297436416149139404,10.5243079927976,0.0738547929319132,330.906399731437
738213.70297445461619645357,10.5735445214189,0.147709585863826,330.918708863592
738213.70297454507090151310,10.5489262571083,0.0615456607765943,330.881781467126
738213.70297463552560657263,10.5489262571083,0.0984730572425509,330.82023580635
738213.70297472598031163216,10.5612353892636,0.0984730572425509,330.734071881263
738213.70297481643501669168,10.5735445214189,0.135400453708508,330.783308409884
738213.70297490677330642939,10.5981627857295,0.123091321553189,330.758690145573
738213.70297499722801148891,10.5981627857295,0.160018718019145,330.795617542039
738213.70297508768271654844,10.5981627857295,0.135400453708508,330.758690145573
738213.70297517813742160797,10.6597084465061,0.11078218939787,330.807926674195
