time_dn,ecg_projection_ll_ra_mV,ecg_projection_la_ra_mV,ecg_projection_vx_rl_mV
738328.56956327625084668398,-2.12947986287016,-9.87192398856573,336.667073580126
738328.56956336670555174351,-2.11717073071485,-9.92116051718701,336.654764447971
738328.56956345704384148121,-2.01869767347229,-9.67497787408063,336.704000976592
738328.56956354749854654074,-1.64942370881273,-9.03490300200405,336.519363994263
738328.56956363795325160027,-1.48940499079358,-8.76410209458703,336.260872219001
738328.56956372840795665979,-1.84636982329783,-9.44110436312957,336.347036144088
738328.56956381886266171932,-2.25257118442335,-10.191961424604,336.519363994263
738328.56956390931736677885,-2.16640725933612,-9.95808791365296,336.568600522884
738328.56956399965565651655,-2.19102552364676,-9.95808791365296,336.580909655039
738328.56956409011036157608,-2.19102552364676,-10.0073244422742,336.60552791935
738328.56956418056506663561,-2.12947986287016,-9.87192398856573,336.63014618366
738328.56956427101977169514,-2.09255246640421,-9.83499659209978,336.63014618366
738328.56956436147447675467,-2.17871639149144,-9.93346964934233,336.642455315816
738328.56956445192918181419,-2.19102552364676,-9.93346964934233,336.63014618366
738328.56956454226747155190,-2.14178899502548,-9.89654225287637,336.568600522884
738328.56956463272217661142,-2.11717073071485,-9.84730572425509,336.617837051505
738328.56956472317688167095,-2.17871639149144,-9.90885138503169,336.63014618366
738328.56956481363158673048,-2.1540981271808,-9.93346964934233,336.568600522884
738328.56956490408629179001,-2.1540981271808,-9.87192398856573,336.654764447971
738328.56956499454099684954,-2.10486159855953,-9.83499659209978,336.654764447971
738328.56956508487928658724,-2.19102552364676,-9.92116051718701,336.642455315816
738328.56956517533399164677,-2.17871639149144,-9.90885138503169,336.642455315816
738328.56956526578869670630,-2.16640725933612,-9.89654225287637,336.654764447971
738328.56956535624340176582,-2.12947986287016,-9.83499659209978,336.679382712282
738328.56956544669810682535,-2.10486159855953,-9.85961485641041,336.580909655039
738328.56956553703639656305,-2.11717073071485,-9.82268745994446,336.667073580126
738328.56956562749110162258,-2.11717073071485,-9.84730572425509,336.667073580126
738328.56956571794580668211,-2.12947986287016,-9.84730572425509,336.580909655039
738328.56956580840051174164,-2.08024333424889,-9.79806919563382,336.63014618366
738328.56956589885521680117,-2.1540981271808,-9.90885138503169,336.654764447971
738328.56956598930992186069,-2.16640725933612,-9.83499659209978,336.667073580126
738328.56956607964821159840,-2.11717073071485,-9.77345093132318,336.667073580126
738328.56956617010291665792,-2.1540981271808,-9.83499659209978,336.667073580126
738328.56956626055762171745,-2.14178899502548,-9.87192398856573,336.704000976592
738328.56956635101232677698,-2.11717073071485,-9.77345093132318,336.716310108748
738328.56956644146703183651,-2.12947986287016,-9.7857600634785,336.580909655039
738328.56956653192173689604,-2.09255246640421,-9.76114179916786,336.543982258573
738328.56956662226002663374,-2.11717073071485,-9.83499659209978,336.654764447971
738328.56956671271473169327,-2.1540981271808,-9.84730572425509,336.679382712282
738328.56956680316943675280,-2.17871639149144,-9.79806919563382,336.568600522884
738328.56956689362414181232,-2.11717073071485,-9.85961485641041,336.580909655039
738328.56956698407884687185,-2.03100680562761,-9.76114179916786,336.543982258573
738328.56956707453355193138,-2.1540981271808,-9.89654225287637,336.543982258573
738328.56956716487184166908,-2.14178899502548,-9.87192398856573,336.556291390728
738328.56956725532654672861,-2.10486159855953,-9.88423312072105,336.568600522884
738328.56956734578125178814,-2.08024333424889,-9.84730572425509,336.617837051505
738328.56956743623595684767,-2.12947986287016,-9.94577878149764,336.543982258573
738328.56956752669066190720,-2.12947986287016,-9.90885138503169,336.63014618366
738328.56956761714536696672,-2.1540981271808,-9.95808791365296,336.654764447971
738328.56956770748365670443,-2.1540981271808,-9.95808791365296,336.568600522884
738328.56956779793836176395,-2.1540981271808,-9.92116051718701,336.593218787194
738328.56956788839306682348,-2.12947986287016,-9.92116051718701,336.654764447971
738328.56956797884777188301,-2.09255246640421,-9.84730572425509,336.654764447971
738328.56956806930247694254,-2.08024333424889,-9.90885138503169,336.60552791935
738328.56956815975718200207,-2.11717073071485,-9.89654225287637,336.654764447971
738328.56956825009547173977,-2.09255246640421,-9.88423312072105,336.679382712282
738328.56956834055017679930,-2.12947986287016,-9.94577878149764,336.543982258573
738328.56956843100488185883,-2.09255246640421,-9.82268745994446,336.63014618366
738328.56956852145958691835,-2.12947986287016,-9.94577878149764,336.679382712282
738328.56956861191429197788,-2.11717073071485,-9.88423312072105,336.60552791935
738328.56956870236899703741,-2.10486159855953,-9.88423312072105,336.63014618366
738328.56956879270728677511,-2.05562506993825,-9.82268745994446,336.704000976592
738328.56956888316199183464,-2.09255246640421,-9.83499659209978,336.679382712282
738328.56956897361669689417,-2.08024333424889,-9.89654225287637,336.568600522884
738328.56956906407140195370,-2.10486159855953,-9.88423312072105,336.63014618366
738328.56956915452610701323,-2.10486159855953,-9.84730572425509,336.593218787194
738328.56956924498081207275,-2.10486159855953,-9.84730572425509,336.60552791935
738328.56956933531910181046,-2.11717073071485,-9.88423312072105,336.556291390728
738328.56956942577380686998,-2.12947986287016,-9.92116051718701,336.593218787194
738328.56956951622851192951,-2.10486159855953,-9.87192398856573,336.679382712282
738328.56956960668321698904,-2.08024333424889,-9.7857600634785,336.580909655039
738328.56956969713792204857,-2.12947986287016,-9.89654225287637,336.593218787194
738328.56956978759262710810,-2.11717073071485,-9.94577878149764,336.593218787194
738328.56956987793091684580,-2.1540981271808,-9.89654225287637,336.568600522884
738328.56956996838562190533,-2.11717073071485,-9.84730572425509,336.531673126418
738328.56957005884032696486,-2.16640725933612,-10.0196335744296,336.445509201331
738328.56957014929503202438,-2.12947986287016,-9.88423312072105,336.580909655039
738328.56957023974973708391,-2.11717073071485,-9.88423312072105,336.617837051505
738328.56957033008802682161,-2.16640725933612,-9.89654225287637,336.593218787194
738328.56957042054273188114,-2.12947986287016,-9.95808791365296,336.593218787194
738328.56957051099743694067,-2.06793420209357,-9.81037832778914,336.617837051505
738328.56957060145214200020,-2.12947986287016,-9.92116051718701,336.543982258573
738328.56957069190684705973,-2.12947986287016,-9.88423312072105,336.667073580126
738328.56957078236155211926,-2.1540981271808,-9.92116051718701,336.580909655039
738328.56957087269984185696,-2.16640725933612,-9.93346964934233,336.593218787194
738328.56957096315454691648,-2.11717073071485,-9.90885138503169,336.642455315816
738328.56957105360925197601,-2.10486159855953,-9.85961485641041,336.580909655039
738328.56957114406395703554,-2.16640725933612,-9.90885138503169,336.617837051505
738328.56957123451866209507,-2.14178899502548,-9.95808791365296,336.63014618366
738328.56957132497336715460,-2.09255246640421,-9.85961485641041,336.642455315816
738328.56957141531165689230,-2.14178899502548,-9.93346964934233,336.667073580126
738328.56957150576636195183,-2.16640725933612,-9.92116051718701,336.654764447971
738328.56957159622106701136,-2.12947986287016,-9.89654225287637,336.642455315816
738328.56957168667577207088,-2.09255246640421,-9.89654225287637,336.60552791935
738328.56957177713047713041,-2.12947986287016,-9.93346964934233,336.519363994263
738328.56957186758518218994,-2.11717073071485,-9.88423312072105,336.519363994263
738328.56957195792347192764,-2.06793420209357,-9.90885138503169,336.494745729952
738328.56957204837817698717,-2.05562506993825,-9.90885138503169,336.433200069175
738328.56957213883288204670,-2.06793420209357,-9.84730572425509,336.507054862107
738328.56957222928758710623,-2.06793420209357,-9.82268745994446,336.593218787194
738328.56957231974229216576,-2.03100680562761,-9.85961485641041,336.580909655039
738328.56957241019699722528,-2.06793420209357,-9.85961485641041,336.617837051505
738328.56957250053528696299,-2.09255246640421,-9.88423312072105,336.654764447971
738328.56957259098999202251,-2.11717073071485,-9.88423312072105,336.654764447971
738328.56957268144469708204,-2.2156437879574,-9.99501531011892,336.568600522884
738328.56957277189940214157,-2.16640725933612,-9.94577878149764,336.654764447971
738328.56957286235410720110,-2.14178899502548,-9.87192398856573,336.679382712282
738328.56957295280881226063,-2.14178899502548,-10.0196335744296,336.63014618366
738328.56957304314710199833,-2.14178899502548,-9.87192398856573,336.63014618366
738328.56957313360180705786,-2.11717073071485,-9.87192398856573,336.654764447971
738328.56957322405651211739,-2.03100680562761,-9.88423312072105,336.704000976592
738328.56957331451121717691,-1.94484288054038,-9.57650481683808,336.654764447971
738328.56957340496592223644,-1.58787804803613,-8.99797560553809,336.667073580126
738328.56957349542062729597,-1.35400453708508,-8.61639250872321,336.310108747622
738328.56957358575891703367,-1.62480544450209,-8.89950254829554,336.162399161758
738328.56957367621362209320,-2.08024333424889,-9.81037832778914,336.396272672709
738328.56957376666832715273,-2.24026205226803,-10.0073244422742,336.519363994263
738328.56957385712303221226,-2.14178899502548,-9.89654225287637,336.543982258573
738328.56957394757773727179,-2.12947986287016,-9.94577878149764,336.531673126418
738328.56957403803244233131,-2.11717073071485,-9.88423312072105,336.568600522884
738328.56957412837073206902,-2.08024333424889,-9.84730572425509,336.593218787194
738328.56957421882543712854,-2.14178899502548,-9.88423312072105,336.642455315816
738328.56957430928014218807,-2.16640725933612,-9.94577878149764,336.556291390728
738328.56957439973484724760,-2.14178899502548,-9.92116051718701,336.667073580126
738328.56957449018955230713,-2.11717073071485,-9.88423312072105,336.691691844437
738328.56957458052784204483,-2.10486159855953,-9.87192398856573,336.63014618366
738328.56957467098254710436,-2.06793420209357,-9.85961485641041,336.60552791935
738328.56957476143725216389,-2.16640725933612,-9.88423312072105,336.704000976592
738328.56957485189195722342,-2.14178899502548,-9.93346964934233,336.704000976592
738328.56957494234666228294,-2.12947986287016,-9.95808791365296,336.580909655039
738328.56957503280136734247,-2.11717073071485,-9.83499659209978,336.654764447971
738328.56957512313965708017,-2.11717073071485,-9.87192398856573,336.667073580126
738328.56957521359436213970,-2.08024333424889,-9.83499659209978,336.580909655039
738328.56957530404906719923,-2.08024333424889,-9.83499659209978,336.617837051505
738328.56957539450377225876,-2.14178899502548,-9.88423312072105,336.63014618366
738328.56957548495847731829,-2.11717073071485,-9.89654225287637,336.568600522884
738328.56957557541318237782,-2.08024333424889,-9.83499659209978,336.531673126418
738328.56957566575147211552,-2.09255246640421,-9.81037832778914,336.568600522884
738328.56957575620617717505,-2.06793420209357,-9.81037832778914,336.568600522884
738328.56957584666088223457,-2.03100680562761,-9.84730572425509,336.580909655039
738328.56957593711558729410,-2.16640725933612,-9.87192398856573,336.60552791935
738328.56957602757029235363,-2.1540981271808,-9.87192398856573,336.679382712282
738328.56957611802499741316,-2.09255246640421,-9.79806919563382,336.716310108748
738328.56957620836328715086,-2.10486159855953,-9.83499659209978,336.60552791935
738328.56957629881799221039,-2.14178899502548,-9.82268745994446,336.704000976592
738328.56957638927269726992,-2.10486159855953,-9.81037832778914,336.740928373058
738328.56957647972740232944,-2.12947986287016,-9.83499659209978,336.704000976592
738328.56957657018210738897,-2.10486159855953,-9.81037832778914,336.667073580126
738328.56957666063681244850,-2.08024333424889,-9.76114179916786,336.704000976592
738328.56957675097510218620,-2.05562506993825,-9.79806919563382,336.716310108748
738328.56957684142980724573,-2.10486159855953,-9.88423312072105,336.617837051505
738328.56957693188451230526,-2.09255246640421,-9.81037832778914,336.704000976592
738328.56957702233921736479,-2.03100680562761,-9.77345093132318,336.445509201331
738328.56957711279392242432,-2.05562506993825,-9.82268745994446,336.507054862107
738328.56957720324862748384,-2.08024333424889,-9.83499659209978,336.593218787194
738328.56957729358691722155,-2.03100680562761,-9.87192398856573,336.654764447971
738328.56957738404162228107,-2.16640725933612,-9.9827061779636,336.593218787194
738328.56957747449632734060,-2.12947986287016,-9.88423312072105,336.593218787194
738328.56957756495103240013,-2.11717073071485,-9.92116051718701,336.60552791935
738328.56957765540573745966,-2.11717073071485,-9.90885138503169,336.593218787194
738328.56957774586044251919,-2.09255246640421,-9.89654225287637,336.568600522884
738328.56957783619873225689,-2.10486159855953,-9.90885138503169,336.593218787194
738328.56957792665343731642,-2.03100680562761,-9.85961485641041,336.568600522884
738328.56957801710814237595,-2.11717073071485,-9.97039704580828,336.568600522884
738328.56957810756284743547,-2.08024333424889,-9.88423312072105,336.63014618366
738328.56957819801755249500,-2.09255246640421,-9.92116051718701,336.568600522884
738328.56957828847225755453,-2.12947986287016,-9.92116051718701,336.580909655039
738328.56957837881054729223,-2.10486159855953,-9.93346964934233,336.580909655039
738328.56957846926525235176,-2.06793420209357,-9.83499659209978,336.642455315816
738328.56957855971995741129,-2.06793420209357,-9.90885138503169,336.667073580126
738328.56957865017466247082,-2.10486159855953,-9.93346964934233,336.543982258573
738328.56957874062936753035,-2.09255246640421,-9.85961485641041,336.60552791935
738328.56957883108407258987,-2.09255246640421,-9.87192398856573,336.63014618366
738328.56957892142236232758,-2.06793420209357,-9.87192398856573,336.531673126418
738328.56957901187706738710,-2.08024333424889,-9.87192398856573,336.593218787194
738328.56957910233177244663,-2.04331593778293,-9.85961485641041,336.63014618366
738328.56957919278647750616,-2.09255246640421,-9.88423312072105,336.642455315816
738328.56957928324118256569,-2.10486159855953,-9.93346964934233,336.667073580126
738328.56957937357947230339,-2.08024333424889,-9.87192398856573,336.531673126418
738328.56957946403417736292,-2.06793420209357,-9.88423312072105,336.60552791935
738328.56957955448888242245,-2.06793420209357,-9.85961485641041,336.60552791935
738328.56957964494358748198,-2.11717073071485,-9.93346964934233,336.617837051505
738328.56957973539829254150,-2.10486159855953,-9.93346964934233,336.617837051505
738328.56957982585299760103,-2.08024333424889,-9.84730572425509,336.654764447971
738328.56957991619128733873,-2.10486159855953,-9.88423312072105,336.642455315816
738328.56958000664599239826,-2.11717073071485,-9.92116051718701,336.568600522884
738328.56958009710069745779,-2.10486159855953,-9.93346964934233,336.617837051505
738328.56958018755540251732,-2.09255246640421,-9.88423312072105,336.654764447971
738328.56958027801010757685,-2.10486159855953,-9.89654225287637,336.679382712282
738328.56958036846481263638,-2.10486159855953,-9.92116051718701,336.642455315816
738328.56958045880310237408,-2.08024333424889,-9.90885138503169,336.642455315816
738328.56958054925780743361,-2.12947986287016,-9.90885138503169,336.457818333486
738328.56958063971251249313,-2.09255246640421,-9.90885138503169,336.531673126418
738328.56958073016721755266,-2.04331593778293,-9.83499659209978,336.507054862107
738328.56958082062192261219,-2.12947986287016,-9.87192398856573,336.543982258573
738328.56958091107662767172,-2.14178899502548,-9.97039704580828,336.556291390728
738328.56958100141491740942,-2.14178899502548,-9.93346964934233,336.543982258573
738328.56958109186962246895,-2.10486159855953,-9.85961485641041,336.494745729952
738328.56958118232432752848,-2.08024333424889,-9.93346964934233,336.580909655039
738328.56958127277903258801,-2.14178899502548,-9.94577878149764,336.642455315816
738328.56958136323373764753,-2.14178899502548,-9.90885138503169,336.654764447971
738328.56958145368844270706,-2.10486159855953,-9.93346964934233,336.60552791935
738328.56958154402673244476,-2.08024333424889,-9.88423312072105,336.679382712282
738328.56958163448143750429,-2.05562506993825,-9.88423312072105,336.667073580126
738328.56958172493614256382,-2.11717073071485,-9.90885138503169,336.580909655039
738328.56958181539084762335,-2.12947986287016,-9.93346964934233,336.654764447971
738328.56958190584555268288,-2.11717073071485,-9.92116051718701,336.654764447971
738328.56958199630025774240,-2.14178899502548,-9.93346964934233,336.556291390728
738328.56958208663854748011,-2.10486159855953,-9.89654225287637,336.617837051505
738328.56958217709325253963,-2.14178899502548,-9.99501531011892,336.568600522884
738328.56958226754795759916,-2.14178899502548,-9.87192398856573,336.556291390728
738328.56958235800266265869,-2.12947986287016,-9.93346964934233,336.556291390728
738328.56958244845736771822,-2.06793420209357,-9.85961485641041,336.617837051505
738328.56958253891207277775,-2.04331593778293,-9.81037832778914,336.593218787194
738328.56958262925036251545,-2.14178899502548,-9.97039704580828,336.617837051505
738328.56958271970506757498,-2.09255246640421,-9.88423312072105,336.556291390728
738328.56958281015977263451,-2.10486159855953,-9.88423312072105,336.519363994263
738328.56958290061447769403,-2.09255246640421,-9.92116051718701,336.531673126418
738328.56958299106918275356,-2.08024333424889,-9.93346964934233,336.519363994263
738328.56958308152388781309,-2.08024333424889,-9.89654225287637,336.519363994263
738328.56958317186217755079,-2.04331593778293,-9.89654225287637,336.543982258573
738328.56958326231688261032,-2.10486159855953,-9.93346964934233,336.543982258573
738328.56958335277158766985,-2.04331593778293,-9.84730572425509,336.556291390728
738328.56958344322629272938,-2.08024333424889,-9.90885138503169,336.531673126418
738328.56958353368099778891,-2.08024333424889,-9.87192398856573,336.60552791935
738328.56958362401928752661,-2.1540981271808,-9.94577878149764,336.617837051505
738328.56958371447399258614,-2.14178899502548,-9.94577878149764,336.568600522884
738328.56958380492869764566,-2.12947986287016,-9.93346964934233,336.617837051505
738328.56958389538340270519,-2.1540981271808,-9.93346964934233,336.60552791935
738328.56958398583810776472,-2.11717073071485,-9.97039704580828,336.679382712282
738328.56958407629281282425,-2.11717073071485,-9.88423312072105,336.445509201331
738328.56958416663110256195,-2.1540981271808,-9.97039704580828,336.543982258573
738328.56958425708580762148,-2.09255246640421,-9.92116051718701,336.679382712282
738328.56958434754051268101,-2.06793420209357,-9.83499659209978,336.667073580126
738328.56958443799521774054,-1.90791548407442,-9.61343221330404,336.654764447971
738328.56958452844992280006,-1.41555019786167,-8.72717469812108,336.383963540554
738328.56958461890462785959,-1.3047680084638,-8.46868292285938,336.322417879777
738328.56958470924291759729,-1.71096936958932,-9.04721213415937,336.359345276243
738328.56958479969762265682,-2.17871639149144,-9.97039704580828,336.556291390728
738328.56958489015232771635,-2.17871639149144,-9.94577878149764,336.617837051505
738328.56958498060703277588,-2.01869767347229,-9.85961485641041,336.617837051505
738328.56958507106173783541,-2.10486159855953,-9.94577878149764,336.556291390728
738328.56958516151644289494,-2.16640725933612,-9.95808791365296,336.691691844437
738328.56958525185473263264,-2.1540981271808,-9.92116051718701,336.679382712282
738328.56958534230943769217,-2.11717073071485,-9.89654225287637,336.593218787194
738328.56958543276414275169,-2.11717073071485,-9.93346964934233,336.691691844437
738328.56958552321884781122,-2.10486159855953,-9.90885138503169,336.691691844437
738328.56958561367355287075,-2.14178899502548,-9.92116051718701,336.60552791935
738328.56958570412825793028,-2.05562506993825,-9.83499659209978,336.654764447971
738328.56958579446654766798,-2.12947986287016,-9.90885138503169,336.654764447971
738328.56958588492125272751,-2.17871639149144,-9.95808791365296,336.667073580126
738328.56958597537595778704,-2.10486159855953,-9.92116051718701,336.593218787194
738328.56958606583066284657,-2.12947986287016,-9.93346964934233,336.704000976592
738328.56958615628536790609,-2.11717073071485,-9.85961485641041,336.654764447971
738328.56958624674007296562,-2.11717073071485,-9.89654225287637,336.580909655039
738328.56958633707836270332,-2.10486159855953,-9.92116051718701,336.667073580126
738328.56958642753306776285,-2.10486159855953,-9.85961485641041,336.691691844437
738328.56958651798777282238,-2.12947986287016,-9.88423312072105,336.691691844437
738328.56958660844247788191,-2.09255246640421,-9.85961485641041,336.691691844437
738328.56958669889718294144,-2.09255246640421,-9.88423312072105,336.691691844437
738328.56958678935188800097,-2.10486159855953,-9.89654225287637,336.642455315816
738328.56958687969017773867,-2.11717073071485,-9.79806919563382,336.667073580126
738328.56958697014488279819,-2.08024333424889,-9.97039704580828,336.617837051505
738328.56958706059958785772,-2.08024333424889,-9.79806919563382,336.580909655039
738328.56958715105429291725,-2.10486159855953,-9.85961485641041,336.63014618366
738328.56958724150899797678,-2.03100680562761,-9.77345093132318,336.642455315816
738328.56958733196370303631,-2.14178899502548,-9.84730572425509,336.617837051505
738328.56958742230199277401,-2.14178899502548,-9.88423312072105,336.60552791935
738328.56958751275669783354,-2.10486159855953,-9.82268745994446,336.617837051505
738328.56958760321140289307,-2.10486159855953,-9.79806919563382,336.494745729952
738328.56958769366610795259,-2.08024333424889,-9.81037832778914,336.519363994263
738328.56958778412081301212,-2.09255246640421,-9.83499659209978,336.667073580126
738328.56958787445910274982,-2.12947986287016,-9.85961485641041,336.642455315816
738328.56958796491380780935,-2.06793420209357,-9.79806919563382,336.642455315816
738328.56958805536851286888,-2.05562506993825,-9.83499659209978,336.60552791935
738328.56958814582321792841,-2.04331593778293,-9.82268745994446,336.691691844437
738328.56958823627792298794,-2.10486159855953,-9.87192398856573,336.617837051505
738328.56958832673262804747,-2.10486159855953,-9.95808791365296,336.580909655039
738328.56958841707091778517,-2.06793420209357,-9.84730572425509,336.667073580126
738328.56958850752562284470,-2.14178899502548,-9.95808791365296,336.691691844437
738328.56958859798032790422,-2.09255246640421,-9.88423312072105,336.667073580126
738328.56958868843503296375,-2.1540981271808,-9.97039704580828,336.580909655039
738328.56958877888973802328,-2.09255246640421,-9.88423312072105,336.667073580126
738328.56958886934444308281,-2.09255246640421,-9.94577878149764,336.679382712282
738328.56958895968273282051,-2.12947986287016,-9.97039704580828,336.556291390728
738328.56958905013743788004,-2.12947986287016,-9.93346964934233,336.580909655039
738328.56958914059214293957,-2.14178899502548,-9.85961485641041,336.580909655039
738328.56958923104684799910,-2.12947986287016,-10.1057974995168,336.543982258573
738328.56958932150155305862,-2.09255246640421,-9.87192398856573,336.556291390728
738328.56958941195625811815,-2.08024333424889,-9.89654225287637,336.63014618366
738328.56958950229454785585,-2.10486159855953,-9.92116051718701,336.654764447971
738328.56958959274925291538,-2.12947986287016,-9.93346964934233,336.580909655039
738328.56958968320395797491,-2.09255246640421,-9.92116051718701,336.667073580126
738328.56958977365866303444,-2.17871639149144,-10.0196335744296,336.691691844437
738328.56958986411336809397,-2.09255246640421,-9.93346964934233,336.531673126418
738328.56958995456807315350,-2.09255246640421,-9.88423312072105,336.642455315816
738328.56959004490636289120,-2.10486159855953,-9.93346964934233,336.654764447971
738328.56959013536106795073,-2.04331593778293,-9.84730572425509,336.654764447971
738328.56959022581577301025,-2.10486159855953,-9.84730572425509,336.617837051505
738328.56959031627047806978,-2.06793420209357,-9.93346964934233,336.679382712282
738328.56959040672518312931,-1.92022461622974,-9.72421440270191,336.679382712282
738328.56959049717988818884,-1.93253374838506,-9.73652353485722,336.593218787194
738328.56959058751817792654,-2.37566250597654,-10.1427248959827,336.642455315816
738328.56959067797288298607,-2.17871639149144,-9.99501531011892,336.60552791935
738328.56959076842758804560,-2.10486159855953,-9.95808791365296,336.593218787194
738328.56959085888229310513,-2.1540981271808,-9.93346964934233,336.531673126418
738328.56959094933699816465,-2.1540981271808,-9.95808791365296,336.568600522884
738328.56959103979170322418,-2.08024333424889,-9.88423312072105,336.593218787194
738328.56959113012999296188,-2.04331593778293,-9.87192398856573,336.457818333486
738328.56959122058469802141,-2.09255246640421,-9.88423312072105,336.433200069175
738328.56959131103940308094,-2.12947986287016,-9.94577878149764,336.580909655039
738328.56959140149410814047,-2.09255246640421,-9.90885138503169,336.60552791935
738328.56959149194881320000,-2.00638854131698,-9.74883266701254,336.580909655039
738328.56959158240351825953,-2.1540981271808,-10.0688701030508,336.642455315816
738328.56959167274180799723,-2.2156437879574,-9.95808791365296,336.642455315816
738328.56959176319651305676,-2.1540981271808,-9.95808791365296,336.580909655039
738328.56959185365121811628,-2.17871639149144,-9.95808791365296,336.568600522884
738328.56959194410592317581,-2.1540981271808,-9.9827061779636,336.617837051505
738328.56959203456062823534,-2.10486159855953,-9.89654225287637,336.60552791935
738328.56959212501533329487,-2.06793420209357,-9.82268745994446,336.679382712282
738328.56959221535362303257,-2.16640725933612,-9.94577878149764,336.667073580126
738328.56959230580832809210,-2.14178899502548,-9.97039704580828,336.593218787194
738328.56959239626303315163,-2.01869767347229,-9.83499659209978,336.60552791935
738328.56959248671773821115,-2.11717073071485,-9.92116051718701,336.679382712282
738328.56959257717244327068,-2.2156437879574,-9.9827061779636,336.654764447971
738328.56959266751073300838,-2.11717073071485,-9.99501531011892,336.642455315816
738328.56959275796543806791,-2.20333465580208,-9.97039704580828,336.654764447971
738328.56959284842014312744,-2.17871639149144,-9.9827061779636,336.667073580126
738328.56959293887484818697,-2.14178899502548,-9.90885138503169,336.593218787194
738328.56959302932955324650,-1.94484288054038,-9.74883266701254,336.679382712282
738328.56959311978425830603,-2.22795292011272,-10.0442518387402,336.667073580126
738328.56959321012254804373,-2.1540981271808,-9.97039704580828,336.593218787194
738328.56959330057725310326,-2.22795292011272,-9.99501531011892,336.667073580126
738328.56959339103195816278,-2.2156437879574,-10.0442518387402,336.667073580126
738328.56959348148666322231,-1.99407940916166,-9.77345093132318,336.593218787194
738328.56959357194136828184,-2.2156437879574,-9.99501531011892,336.667073580126
738328.56959366239607334137,-2.16640725933612,-9.99501531011892,336.654764447971
738328.56959375273436307907,-2.12947986287016,-9.88423312072105,336.63014618366
738328.56959384318906813860,-2.16640725933612,-9.99501531011892,336.704000976592
738328.56959393364377319813,-2.14178899502548,-9.93346964934233,336.691691844437
738328.56959402409847825766,-2.17871639149144,-9.9827061779636,336.691691844437
738328.56959411455318331718,-2.16640725933612,-9.93346964934233,336.667073580126
738328.56959420500788837671,-1.96946114485102,-9.77345093132318,336.531673126418
738328.56959429534617811441,-2.24026205226803,-10.0319427065849,336.556291390728
738328.56959438580088317394,-2.25257118442335,-10.0319427065849,336.556291390728
738328.56959447625558823347,-2.16640725933612,-9.97039704580828,336.519363994263
738328.56959456671029329300,-2.04331593778293,-9.79806919563382,336.556291390728
738328.56959465716499835253,-1.93253374838506,-9.74883266701254,336.507054862107
738328.56959474761970341206,-2.20333465580208,-10.0196335744296,336.482436597797
738328.56959483795799314976,-2.1540981271808,-9.95808791365296,336.543982258573
738328.56959492841269820929,-2.2156437879574,-10.0688701030508,336.60552791935
738328.56959501886740326881,-2.11717073071485,-9.93346964934233,336.63014618366
738328.56959510932210832834,-2.11717073071485,-9.88423312072105,336.556291390728
738328.56959519977681338787,-2.11717073071485,-9.87192398856573,336.63014618366
738328.56959529023151844740,-2.14178899502548,-9.89654225287637,336.642455315816
738328.56959538056980818510,-1.99407940916166,-9.83499659209978,336.568600522884
738328.56959547102451324463,-1.93253374838506,-9.67497787408063,336.556291390728
738328.56959556147921830416,-2.27718944873399,-10.0319427065849,336.593218787194
738328.56959565193392336369,-2.27718944873399,-10.0319427065849,336.617837051505
738328.56959574238862842321,-2.19102552364676,-9.92116051718701,336.642455315816
738328.56959583284333348274,-2.16640725933612,-9.92116051718701,336.617837051505
738328.56959592318162322044,-2.1540981271808,-9.95808791365296,336.617837051505
738328.56959601363632827997,-2.11717073071485,-9.83499659209978,336.617837051505
738328.56959610409103333950,-1.9571520126957,-9.79806919563382,336.704000976592
738328.56959619454573839903,-2.11717073071485,-9.85961485641041,336.728619240903
738328.56959628500044345856,-1.84636982329783,-9.29339477726574,336.507054862107
738328.56959637545514851809,-1.42785933001699,-8.62870164087853,336.285490483311
738328.56959646579343825579,-1.74789676605528,-9.18261258786788,336.310108747622
738328.56959655624814331532,-2.2156437879574,-10.0319427065849,336.494745729952
738328.56959664670284837484,-2.16640725933612,-9.9827061779636,336.60552791935
738328.56959673715755343437,-2.16640725933612,-9.92116051718701,336.531673126418
738328.56959682761225849390,-2.08024333424889,-9.82268745994446,336.556291390728
738328.56959691795054823160,-2.00638854131698,-9.76114179916786,336.667073580126
738328.56959700840525329113,-2.24026205226803,-10.0196335744296,336.704000976592
738328.56959709885995835066,-2.17871639149144,-9.89654225287637,336.691691844437
738328.56959718931466341019,-2.27718944873399,-10.0319427065849,336.60552791935
738328.56959727976936846972,-2.24026205226803,-9.99501531011892,336.716310108748
738328.56959737022407352924,-2.11717073071485,-9.83499659209978,336.691691844437
738328.56959746056236326694,-2.1540981271808,-9.90885138503169,336.679382712282
738328.56959755101706832647,-2.11717073071485,-9.87192398856573,336.63014618366
738328.56959764147177338600,-2.12947986287016,-9.89654225287637,336.667073580126
738328.56959773192647844553,-2.14178899502548,-9.85961485641041,336.679382712282
738328.56959782238118350506,-1.99407940916166,-9.69959613839127,336.667073580126
738328.56959791283588856459,-2.1540981271808,-9.89654225287637,336.580909655039
738328.56959800317417830229,-2.28949858088931,-10.0442518387402,336.654764447971
738328.56959809362888336182,-2.22795292011272,-9.94577878149764,336.704000976592
738328.56959818408358842134,-2.16640725933612,-9.88423312072105,336.617837051505
738328.56959827453829348087,-2.11717073071485,-9.87192398856573,336.507054862107
738328.56959836499299854040,-2.10486159855953,-9.85961485641041,336.667073580126
738328.56959845544770359993,-2.16640725933612,-9.84730572425509,336.753237505214
738328.56959854578599333763,-2.16640725933612,-9.94577878149764,336.642455315816
738328.56959863624069839716,-2.03100680562761,-9.73652353485722,336.704000976592
738328.56959872669540345669,-2.20333465580208,-9.89654225287637,336.740928373058
738328.56959881715010851622,-2.1540981271808,-9.85961485641041,336.63014618366
738328.56959890760481357574,-2.16640725933612,-9.85961485641041,336.679382712282
738328.56959899805951863527,-2.11717073071485,-9.7857600634785,336.728619240903
738328.56959908839780837297,-2.19102552364676,-9.88423312072105,336.679382712282
738328.56959917885251343250,-2.1540981271808,-9.81037832778914,336.654764447971
738328.56959926930721849203,-2.06793420209357,-9.74883266701254,336.617837051505
738328.56959935976192355156,-2.11717073071485,-9.7857600634785,336.63014618366
738328.56959945021662861109,-2.11717073071485,-9.7857600634785,336.617837051505
738328.56959954067133367062,-2.09255246640421,-9.76114179916786,336.679382712282
738328.56959963100962340832,-2.24026205226803,-9.93346964934233,336.617837051505
738328.56959972146432846785,-1.99407940916166,-9.67497787408063,336.63014618366
738328.56959981191903352737,-2.17871639149144,-9.88423312072105,336.580909655039
738328.56959990237373858690,-2.09255246640421,-9.81037832778914,336.507054862107
738328.56959999282844364643,-2.19102552364676,-9.92116051718701,336.568600522884
738328.56960008328314870596,-2.12947986287016,-9.85961485641041,336.568600522884
738328.56960017362143844366,-2.11717073071485,-9.87192398856573,336.556291390728
738328.56960026407614350319,-2.12947986287016,-9.89654225287637,336.556291390728
738328.56960035453084856272,-2.14178899502548,-9.95808791365296,336.617837051505
738328.56960044498555362225,-2.05562506993825,-9.7857600634785,336.63014618366
738328.56960053544025868177,-2.24026205226803,-10.0319427065849,336.654764447971
738328.56960062589496374130,-2.17871639149144,-9.97039704580828,336.654764447971
738328.56960071623325347900,-2.09255246640421,-9.88423312072105,336.642455315816
738328.56960080668795853853,-2.22795292011272,-9.99501531011892,336.556291390728
738328.56960089714266359806,-2.17871639149144,-9.93346964934233,336.667073580126
738328.56960098759736865759,-2.08024333424889,-9.90885138503169,336.60552791935
738328.56960107805207371712,-2.17871639149144,-9.95808791365296,336.568600522884
738328.56960116839036345482,-2.17871639149144,-9.97039704580828,336.667073580126
738328.56960125884506851435,-2.06793420209357,-9.84730572425509,336.679382712282
738328.56960134929977357388,-2.01869767347229,-9.73652353485722,336.679382712282
738328.56960143975447863340,-2.14178899502548,-9.90885138503169,336.654764447971
738328.56960153020918369293,-2.14178899502548,-9.99501531011892,336.580909655039
738328.56960162066388875246,-2.09255246640421,-9.88423312072105,336.63014618366
738328.56960171100217849016,-2.14178899502548,-9.89654225287637,336.617837051505
738328.56960180145688354969,-2.16640725933612,-9.92116051718701,336.482436597797
738328.56960189191158860922,-2.14178899502548,-9.94577878149764,336.617837051505
738328.56960198236629366875,-2.01869767347229,-9.77345093132318,336.679382712282
738328.56960207282099872828,-2.12947986287016,-9.90885138503169,336.654764447971
738328.56960216327570378780,-2.14178899502548,-9.87192398856573,336.593218787194
738328.56960225361399352551,-2.14178899502548,-9.94577878149764,336.691691844437
738328.56960234406869858503,-2.11717073071485,-9.89654225287637,336.679382712282
738328.56960243452340364456,-2.11717073071485,-9.87192398856573,336.617837051505
738328.56960252497810870409,-2.11717073071485,-9.88423312072105,336.679382712282
738328.56960261543281376362,-2.12947986287016,-9.90885138503169,336.704000976592
738328.56960270588751882315,-2.09255246640421,-9.92116051718701,336.617837051505
738328.56960279622580856085,-2.14178899502548,-9.87192398856573,336.642455315816
738328.56960288668051362038,-2.16640725933612,-9.97039704580828,336.679382712282
738328.56960297713521867990,-2.19102552364676,-9.92116051718701,336.716310108748
738328.56960306758992373943,-2.11717073071485,-9.90885138503169,336.617837051505
738328.56960315804462879896,-2.09255246640421,-9.88423312072105,336.667073580126
738328.56960324849933385849,-2.05562506993825,-9.82268745994446,336.679382712282
738328.56960333883762359619,-2.08024333424889,-9.85961485641041,336.654764447971
738328.56960342929232865572,-2.19102552364676,-9.93346964934233,336.642455315816
738328.56960351974703371525,-2.2156437879574,-10.0319427065849,336.642455315816
738328.56960361020173877478,-2.17871639149144,-9.95808791365296,336.654764447971
738328.56960370065644383430,-2.14178899502548,-9.88423312072105,336.617837051505
738328.56960379111114889383,-2.09255246640421,-9.89654225287637,336.60552791935
738328.56960388144943863153,-2.03100680562761,-9.81037832778914,336.568600522884
738328.56960397190414369106,-2.26488031657867,-9.9827061779636,336.580909655039
738328.56960406235884875059,-2.20333465580208,-10.0565609708955,336.593218787194
738328.56960415281355381012,-2.14178899502548,-9.93346964934233,336.60552791935
738328.56960424326825886965,-2.10486159855953,-9.84730572425509,336.593218787194
738328.56960433372296392918,-2.17871639149144,-9.95808791365296,336.60552791935
738328.56960442406125366688,-2.1540981271808,-9.95808791365296,336.63014618366
738328.56960451451595872641,-2.03100680562761,-9.77345093132318,336.63014618366
738328.56960460497066378593,-2.14178899502548,-9.97039704580828,336.63014618366
738328.56960469542536884546,-2.17871639149144,-9.95808791365296,336.617837051505
738328.56960478588007390499,-2.20333465580208,-9.94577878149764,336.593218787194
738328.56960487633477896452,-2.12947986287016,-9.90885138503169,336.63014618366
738328.56960496667306870222,-2.17871639149144,-9.93346964934233,336.593218787194
738328.56960505712777376175,-2.14178899502548,-9.92116051718701,336.593218787194
738328.56960514758247882128,-2.00638854131698,-9.73652353485722,336.642455315816
738328.56960523803718388081,-2.14178899502548,-9.99501531011892,336.519363994263
738328.56960532849188894033,-2.26488031657867,-10.0319427065849,336.408581804865
738328.56960541894659399986,-2.2156437879574,-10.0196335744296,336.593218787194
738328.56960550928488373756,-2.14178899502548,-9.88423312072105,336.580909655039
738328.56960559973958879709,-2.14178899502548,-9.89654225287637,336.580909655039
738328.56960569019429385662,-2.12947986287016,-9.90885138503169,336.543982258573
738328.56960578064899891615,-2.11717073071485,-9.90885138503169,336.654764447971
738328.56960587110370397568,-1.99407940916166,-9.74883266701254,336.667073580126
738328.56960596144199371338,-2.20333465580208,-9.9827061779636,336.667073580126
738328.56960605189669877291,-2.22795292011272,-10.0319427065849,336.63014618366
738328.56960614235140383244,-2.16640725933612,-9.9827061779636,336.691691844437
738328.56960623280610889196,-2.10486159855953,-9.88423312072105,336.642455315816
738328.56960632326081395149,-2.19102552364676,-10.0196335744296,336.568600522884
738328.56960641371551901102,-2.09255246640421,-9.92116051718701,336.617837051505
738328.56960650405380874872,-2.05562506993825,-9.83499659209978,336.593218787194
738328.56960659450851380825,-1.98177027700634,-9.77345093132318,336.543982258573
738328.56960668496321886778,-2.05562506993825,-9.85961485641041,336.617837051505
738328.56960677541792392731,-2.19102552364676,-9.95808791365296,336.654764447971
738328.56960686587262898684,-2.14178899502548,-9.94577878149764,336.617837051505
738328.56960695632733404636,-2.10486159855953,-9.89654225287637,336.568600522884
738328.56960704666562378407,-2.14178899502548,-9.84730572425509,336.667073580126
738328.56960713712032884359,-2.10486159855953,-10.0442518387402,336.679382712282
738328.56960722757503390312,-2.12947986287016,-9.81037832778914,336.60552791935
738328.56960731802973896265,-2.17871639149144,-9.93346964934233,336.642455315816
738328.56960740848444402218,-2.24026205226803,-9.99501531011892,336.704000976592
738328.56960749893914908171,-2.17871639149144,-9.93346964934233,336.679382712282
738328.56960758927743881941,-2.10486159855953,-9.88423312072105,336.667073580126
738328.56960767973214387894,-2.2156437879574,-10.0073244422742,336.617837051505
738328.56960777018684893847,-2.10486159855953,-9.93346964934233,336.740928373058
738328.56960786064155399799,-1.80944242683187,-9.34263130588702,336.704000976592
738328.56960795109625905752,-1.42785933001699,-8.71486556596576,336.310108747622
738328.56960804155096411705,-1.53864151941486,-8.77641122674235,336.310108747622
738328.56960813188925385475,-2.04331593778293,-9.65035960976999,336.470127465641
738328.56960822234395891428,-2.25257118442335,-9.95808791365296,336.617837051505
738328.56960831279866397381,-2.12947986287016,-9.89654225287637,336.593218787194
738328.56960840325336903334,-2.08024333424889,-9.85961485641041,336.580909655039
738328.56960849370807409286,-2.17871639149144,-9.93346964934233,336.617837051505
738328.56960858416277915239,-2.22795292011272,-9.9827061779636,336.691691844437
738328.56960867450106889009,-2.19102552364676,-9.95808791365296,336.679382712282
738328.56960876495577394962,-2.1540981271808,-9.93346964934233,336.691691844437
738328.56960885541047900915,-2.11717073071485,-9.92116051718701,336.494745729952
738328.56960894586518406868,-2.10486159855953,-9.87192398856573,336.642455315816
738328.56960903631988912821,-2.2156437879574,-9.93346964934233,336.60552791935
738328.56960912677459418774,-2.06793420209357,-9.87192398856573,336.60552791935
738328.56960921711288392544,-2.19102552364676,-9.95808791365296,336.568600522884
738328.56960930756758898497,-2.16640725933612,-9.87192398856573,336.580909655039
738328.56960939802229404449,-2.17871639149144,-9.92116051718701,336.568600522884
738328.56960948847699910402,-2.12947986287016,-9.90885138503169,336.556291390728
738328.56960957893170416355,-2.09255246640421,-9.84730572425509,336.556291390728
738328.56960966938640922308,-2.11717073071485,-9.87192398856573,336.60552791935
738328.56960975972469896078,-2.24026205226803,-9.93346964934233,336.642455315816
738328.56960985017940402031,-2.14178899502548,-9.89654225287637,336.679382712282
738328.56960994063410907984,-2.14178899502548,-9.89654225287637,336.60552791935
738328.56961003108881413937,-2.12947986287016,-9.89654225287637,336.728619240903
738328.56961012154351919889,-2.20333465580208,-9.89654225287637,336.716310108748
738328.56961021188180893660,-2.14178899502548,-9.89654225287637,336.667073580126
738328.56961030233651399612,-2.12947986287016,-9.85961485641041,336.704000976592
738328.56961039279121905565,-2.09255246640421,-9.79806919563382,336.740928373058
738328.56961048324592411518,-2.03100680562761,-9.77345093132318,336.691691844437
738328.56961057370062917471,-2.11717073071485,-9.82268745994446,336.654764447971
738328.56961066415533423424,-2.16640725933612,-9.84730572425509,336.716310108748
738328.56961075449362397194,-2.17871639149144,-9.85961485641041,336.728619240903
738328.56961084494832903147,-2.2156437879574,-9.93346964934233,336.728619240903
738328.56961093540303409100,-2.06793420209357,-9.72421440270191,336.728619240903
738328.56961102585773915052,-2.12947986287016,-9.77345093132318,336.740928373058
738328.56961111631244421005,-2.12947986287016,-9.77345093132318,336.740928373058
738328.56961120676714926958,-2.14178899502548,-9.83499659209978,336.728619240903
738328.56961129710543900728,-2.05562506993825,-9.76114179916786,336.716310108748
738328.56961138756014406681,-2.14178899502548,-9.83499659209978,336.728619240903
738328.56961147801484912634,-2.08024333424889,-9.77345093132318,336.654764447971
738328.56961156846955418587,-2.09255246640421,-9.85961485641041,336.716310108748
738328.56961165892425924540,-2.10486159855953,-9.82268745994446,336.740928373058
738328.56961174937896430492,-2.11717073071485,-9.89654225287637,336.617837051505
738328.56961183971725404263,-2.24026205226803,-9.94577878149764,336.556291390728
738328.56961193017195910215,-2.12947986287016,-9.89654225287637,336.63014618366
738328.56961202062666416168,-2.10486159855953,-9.87192398856573,336.691691844437
738328.56961211108136922121,-2.09255246640421,-9.87192398856573,336.728619240903
738328.56961220153607428074,-2.17871639149144,-9.93346964934233,336.593218787194
738328.56961229199077934027,-2.14178899502548,-9.89654225287637,336.482436597797
738328.56961238232906907797,-2.10486159855953,-9.89654225287637,336.543982258573
738328.56961247278377413750,-2.26488031657867,-10.0811792352062,336.568600522884
738328.56961256323847919703,-2.12947986287016,-9.93346964934233,336.617837051505
738328.56961265369318425655,-2.10486159855953,-9.83499659209978,336.679382712282
738328.56961274414788931608,-2.08024333424889,-9.92116051718701,336.740928373058
738328.56961283460259437561,-2.22795292011272,-10.0073244422742,336.60552791935
738328.56961292494088411331,-2.10486159855953,-9.87192398856573,336.679382712282
738328.56961301539558917284,-2.19102552364676,-10.0073244422742,336.704000976592
738328.56961310585029423237,-2.08024333424889,-9.85961485641041,336.654764447971
738328.56961319630499929190,-2.05562506993825,-9.83499659209978,336.642455315816
738328.56961328675970435143,-2.2156437879574,-9.97039704580828,336.691691844437
738328.56961337721440941095,-2.11717073071485,-9.92116051718701,336.543982258573
738328.56961346755269914865,-2.17871639149144,-9.97039704580828,336.593218787194
738328.56961355800740420818,-2.08024333424889,-9.82268745994446,336.580909655039
738328.56961364846210926771,-2.11717073071485,-9.87192398856573,336.543982258573
738328.56961373891681432724,-2.06793420209357,-9.85961485641041,336.556291390728
738328.56961382937151938677,-2.20333465580208,-9.95808791365296,336.580909655039
738328.56961391982622444630,-2.10486159855953,-9.84730572425509,336.63014618366
738328.56961401016451418400,-2.1540981271808,-9.97039704580828,336.654764447971
738328.56961410061921924353,-2.1540981271808,-9.89654225287637,336.691691844437
738328.56961419107392430305,-2.12947986287016,-9.92116051718701,336.60552791935
738328.56961428152862936258,-2.16640725933612,-9.90885138503169,336.679382712282
738328.56961437198333442211,-2.03100680562761,-9.81037832778914,336.728619240903
738328.56961446243803948164,-2.06793420209357,-9.82268745994446,336.704000976592
738328.56961455277632921934,-2.1540981271808,-9.93346964934233,336.593218787194
738328.56961464323103427887,-2.14178899502548,-9.92116051718701,336.667073580126
738328.56961473368573933840,-2.25257118442335,-10.0196335744296,336.716310108748
738328.56961482414044439793,-2.19102552364676,-9.97039704580828,336.642455315816
738328.56961491459514945745,-2.12947986287016,-9.88423312072105,336.654764447971
738328.56961500493343919516,-2.12947986287016,-9.90885138503169,336.740928373058
738328.56961509538814425468,-2.17871639149144,-9.88423312072105,336.691691844437
738328.56961518584284931421,-2.10486159855953,-9.93346964934233,336.667073580126
738328.56961527629755437374,-1.9571520126957,-9.71190527054659,336.679382712282
738328.56961536675225943327,-2.14178899502548,-9.88423312072105,336.716310108748
738328.56961545720696449280,-2.12947986287016,-9.90885138503169,336.617837051505
738328.56961554754525423050,-2.24026205226803,-10.0073244422742,336.704000976592
738328.56961563799995929003,-2.16640725933612,-9.89654225287637,336.691691844437
738328.56961572845466434956,-2.12947986287016,-9.94577878149764,336.63014618366
738328.56961581890936940908,-2.1540981271808,-9.93346964934233,336.482436597797
738328.56961590936407446861,-2.1540981271808,-9.89654225287637,336.531673126418
738328.56961599981877952814,-2.20333465580208,-9.97039704580828,336.654764447971
738328.56961609015706926584,-2.12947986287016,-9.92116051718701,336.642455315816
738328.56961618061177432537,-2.06793420209357,-9.81037832778914,336.654764447971
738328.56961627106647938490,-2.08024333424889,-9.85961485641041,336.63014618366
738328.56961636152118444443,-2.19102552364676,-9.93346964934233,336.617837051505
738328.56961645197588950396,-2.16640725933612,-9.97039704580828,336.593218787194
738328.56961654243059456348,-2.06793420209357,-9.83499659209978,336.617837051505
738328.56961663276888430119,-2.12947986287016,-9.92116051718701,336.593218787194
738328.56961672322358936071,-2.20333465580208,-9.9827061779636,336.556291390728
738328.56961681367829442024,-2.06793420209357,-9.84730572425509,336.654764447971
738328.56961690413299947977,-2.12947986287016,-9.87192398856573,336.691691844437
738328.56961699458770453930,-2.24026205226803,-9.9827061779636,336.716310108748
738328.56961708504240959883,-2.14178899502548,-9.99501531011892,336.642455315816
738328.56961717538069933653,-2.03100680562761,-9.74883266701254,336.691691844437
738328.56961726583540439606,-2.2156437879574,-9.95808791365296,336.716310108748
738328.56961735629010945559,-2.14178899502548,-9.90885138503169,336.593218787194
738328.56961744674481451511,-2.1540981271808,-9.9827061779636,336.654764447971
738328.56961753719951957464,-2.10486159855953,-9.84730572425509,336.667073580126
738328.56961762765422463417,-2.1540981271808,-9.92116051718701,336.60552791935
738328.56961771799251437187,-2.19102552364676,-9.95808791365296,336.654764447971
738328.56961780844721943140,-2.10486159855953,-9.89654225287637,336.543982258573
738328.56961789890192449093,-2.10486159855953,-9.85961485641041,336.593218787194
738328.56961798935662955046,-2.11717073071485,-9.93346964934233,336.60552791935
738328.56961807981133460999,-2.14178899502548,-9.87192398856573,336.617837051505
738328.56961817026603966951,-2.12947986287016,-9.88423312072105,336.679382712282
738328.56961826060432940722,-2.04331593778293,-9.83499659209978,336.667073580126
738328.56961835105903446674,-2.12947986287016,-9.92116051718701,336.691691844437
738328.56961844151373952627,-2.16640725933612,-9.92116051718701,336.593218787194
738328.56961853196844458580,-2.10486159855953,-9.93346964934233,336.63014618366
738328.56961862242314964533,-2.08024333424889,-9.85961485641041,336.642455315816
738328.56961871287785470486,-2.09255246640421,-9.90885138503169,336.580909655039
738328.56961880321614444256,-2.14178899502548,-9.9827061779636,336.617837051505
738328.56961889367084950209,-2.01869767347229,-9.79806919563382,336.63014618366
738328.56961898412555456161,-2.11717073071485,-9.85961485641041,336.617837051505
738328.56961907458025962114,-2.1540981271808,-9.93346964934233,336.617837051505
738328.56961916503496468067,-2.05562506993825,-9.77345093132318,336.654764447971
738328.56961925537325441837,-2.19102552364676,-9.9827061779636,336.679382712282
738328.56961934582795947790,-2.12947986287016,-9.90885138503169,336.445509201331
738328.56961943628266453743,-2.08024333424889,-9.85961485641041,336.568600522884
738328.56961952673736959696,-2.04331593778293,-9.82268745994446,336.654764447971
738328.56961961719207465649,-2.26488031657867,-10.0073244422742,336.617837051505
738328.56961970764677971601,-2.20333465580208,-9.99501531011892,336.667073580126
738328.56961979798506945372,-2.16640725933612,-9.97039704580828,336.654764447971
738328.56961988843977451324,-2.06793420209357,-9.84730572425509,336.679382712282
738328.56961997889447957277,-1.698660237434,-9.20723085217851,336.642455315816
738328.56962006934918463230,-1.52633238725954,-8.9364299447615,336.482436597797
738328.56962015980388969183,-1.42785933001699,-8.59177424441257,336.273181351156
738328.56962025025859475136,-1.80944242683187,-9.20723085217851,336.371654408399
738328.56962034059688448906,-2.16640725933612,-9.89654225287637,336.568600522884
738328.56962043105158954859,-2.25257118442335,-10.0565609708955,336.556291390728
738328.56962052150629460812,-2.11717073071485,-9.85961485641041,336.519363994263
738328.56962061196099966764,-2.09255246640421,-9.89654225287637,336.63014618366
738328.56962070241570472717,-2.20333465580208,-9.90885138503169,336.617837051505
738328.56962079287040978670,-2.09255246640421,-9.85961485641041,336.642455315816
738328.56962088320869952440,-2.11717073071485,-9.85961485641041,336.667073580126
738328.56962097366340458393,-2.11717073071485,-9.89654225287637,336.63014618366
738328.56962106411810964346,-2.1540981271808,-9.90885138503169,336.593218787194
738328.56962115457281470299,-2.1540981271808,-9.92116051718701,336.654764447971
738328.56962124502751976252,-2.22795292011272,-9.99501531011892,336.716310108748
738328.56962133548222482204,-2.1540981271808,-9.89654225287637,336.617837051505
738328.56962142582051455975,-2.06793420209357,-9.77345093132318,336.667073580126
738328.56962151627521961927,-2.08024333424889,-9.93346964934233,336.679382712282
738328.56962160672992467880,-2.05562506993825,-9.82268745994446,336.60552791935
738328.56962169718462973833,-2.27718944873399,-10.0073244422742,336.593218787194
738328.56962178763933479786,-2.19102552364676,-9.89654225287637,336.593218787194
738328.56962187809403985739,-2.1540981271808,-9.85961485641041,336.593218787194
738328.56962196843232959509,-2.12947986287016,-9.93346964934233,336.580909655039
738328.56962205888703465462,-2.11717073071485,-9.83499659209978,336.593218787194
738328.56962214934173971415,-2.11717073071485,-9.85961485641041,336.642455315816
738328.56962223979644477367,-2.05562506993825,-9.83499659209978,336.63014618366
738328.56962233025114983320,-2.11717073071485,-9.84730572425509,336.704000976592
738328.56962242070585489273,-2.09255246640421,-9.79806919563382,336.740928373058
738328.56962251104414463043,-2.12947986287016,-9.81037832778914,336.63014618366
738328.56962260149884968996,-2.14178899502548,-9.93346964934233,336.704000976592
738328.56962269195355474949,-2.19102552364676,-9.87192398856573,336.753237505214
738328.56962278240825980902,-2.12947986287016,-9.81037832778914,336.704000976592
738328.56962287286296486855,-2.10486159855953,-9.7857600634785,336.482436597797
738328.56962296331766992807,-2.16640725933612,-9.88423312072105,336.580909655039
738328.56962305365595966578,-2.09255246640421,-9.74883266701254,336.704000976592
738328.56962314411066472530,-2.16640725933612,-9.87192398856573,336.63014618366
738328.56962323456536978483,-2.09255246640421,-9.77345093132318,336.691691844437
738328.56962332502007484436,-2.04331593778293,-9.73652353485722,336.691691844437
738328.56962341547477990389,-2.20333465580208,-9.85961485641041,336.667073580126
738328.56962350581306964159,-2.11717073071485,-9.87192398856573,336.654764447971
738328.56962359626777470112,-2.10486159855953,-9.81037832778914,336.667073580126
738328.56962368672247976065,-2.08024333424889,-9.77345093132318,336.667073580126
738328.56962377717718482018,-2.14178899502548,-9.82268745994446,336.642455315816
738328.56962386763188987970,-2.10486159855953,-9.85961485641041,336.654764447971
738328.56962395808659493923,-2.11717073071485,-9.88423312072105,336.667073580126
738328.56962404842488467693,-2.05562506993825,-9.76114179916786,336.654764447971
738328.56962413887958973646,-2.12947986287016,-9.95808791365296,336.593218787194
738328.56962422933429479599,-2.2156437879574,-9.97039704580828,336.667073580126
738328.56962431978899985552,-2.10486159855953,-9.84730572425509,336.654764447971
738328.56962441024370491505,-2.1540981271808,-9.88423312072105,336.654764447971
738328.56962450069840997458,-2.16640725933612,-9.92116051718701,336.667073580126
738328.56962459103669971228,-2.11717073071485,-9.89654225287637,336.654764447971
738328.56962468149140477180,-2.16640725933612,-9.9827061779636,336.654764447971
738328.56962477194610983133,-2.08024333424889,-9.81037832778914,336.60552791935
738328.56962486240081489086,-2.1540981271808,-9.92116051718701,336.63014618366
738328.56962495285551995039,-2.08024333424889,-9.84730572425509,336.642455315816
738328.56962504331022500992,-2.17871639149144,-9.95808791365296,336.568600522884
738328.56962513364851474762,-2.16640725933612,-9.89654225287637,336.617837051505
738328.56962522410321980715,-2.09255246640421,-9.84730572425509,336.580909655039
738328.56962531455792486668,-2.19102552364676,-10.0073244422742,336.593218787194
738328.56962540501262992620,-2.16640725933612,-9.90885138503169,336.60552791935
738328.56962549546733498573,-1.99407940916166,-9.73652353485722,336.580909655039
738328.56962558592204004526,-2.03100680562761,-9.7857600634785,336.63014618366
738328.56962567626032978296,-2.08024333424889,-9.83499659209978,336.654764447971
738328.56962576671503484249,-2.17871639149144,-9.89654225287637,336.568600522884
738328.56962585716973990202,-2.1540981271808,-9.89654225287637,336.580909655039
738328.56962594762444496155,-2.12947986287016,-9.88423312072105,336.519363994263
738328.56962603807915002108,-2.06793420209357,-9.82268745994446,336.543982258573
738328.56962612853385508060,-2.19102552364676,-9.89654225287637,336.543982258573
738328.56962621887214481831,-2.14178899502548,-9.88423312072105,336.531673126418
738328.56962630932684987783,-2.08024333424889,-9.85961485641041,336.543982258573
738328.56962639978155493736,-2.06793420209357,-9.79806919563382,336.445509201331
738328.56962649023625999689,-2.20333465580208,-9.95808791365296,336.494745729952
738328.56962658069096505642,-2.08024333424889,-9.79806919563382,336.568600522884
738328.56962667114567011595,-2.09255246640421,-9.82268745994446,336.63014618366
738328.56962676148395985365,-2.24026205226803,-9.97039704580828,336.654764447971
738328.56962685193866491318,-2.12947986287016,-9.85961485641041,336.642455315816
738328.56962694239336997271,-2.06793420209357,-9.83499659209978,336.60552791935
738328.56962703284807503223,-2.17871639149144,-9.90885138503169,336.654764447971
738328.56962712330278009176,-2.12947986287016,-9.84730572425509,336.654764447971
738328.56962721375748515129,-2.11717073071485,-9.84730572425509,336.617837051505
738328.56962730409577488899,-2.20333465580208,-10.0196335744296,336.691691844437
738328.56962739455047994852,-2.19102552364676,-9.88423312072105,336.716310108748
738328.56962748500518500805,-2.19102552364676,-9.92116051718701,336.704000976592
738328.56962757545989006758,-2.06793420209357,-9.73652353485722,336.593218787194
738328.56962766591459512711,-2.06793420209357,-9.88423312072105,336.667073580126
738328.56962775636930018663,-2.10486159855953,-9.82268745994446,336.728619240903
738328.56962784670758992434,-2.22795292011272,-9.90885138503169,336.593218787194
738328.56962793716229498386,-2.25257118442335,-9.95808791365296,336.667073580126
738328.56962802761700004339,-2.1540981271808,-9.92116051718701,336.728619240903
738328.56962811807170510292,-2.1540981271808,-9.87192398856573,336.679382712282
738328.56962820852641016245,-2.17871639149144,-9.87192398856573,336.654764447971
738328.56962829886469990015,-2.14178899502548,-9.87192398856573,336.667073580126
738328.56962838931940495968,-2.20333465580208,-9.92116051718701,336.716310108748
738328.56962847977411001921,-2.16640725933612,-9.90885138503169,336.617837051505
738328.56962857022881507874,-1.99407940916166,-9.68728700623595,336.679382712282
738328.56962866068352013826,-2.12947986287016,-9.87192398856573,336.580909655039
738328.56962875113822519779,-2.22795292011272,-9.93346964934233,336.593218787194
738328.56962884147651493549,-2.2156437879574,-9.92116051718701,336.617837051505
738328.56962893193121999502,-2.10486159855953,-9.83499659209978,336.617837051505
738328.56962902238592505455,-2.16640725933612,-9.89654225287637,336.617837051505
738328.56962911284063011408,-2.12947986287016,-9.84730572425509,336.580909655039
738328.56962920329533517361,-2.25257118442335,-9.92116051718701,336.667073580126
738328.56962929375004023314,-2.17871639149144,-9.89654225287637,336.593218787194
738328.56962938408832997084,-2.1540981271808,-9.83499659209978,336.654764447971
738328.56962947454303503036,-2.1540981271808,-9.92116051718701,336.679382712282
738328.56962956499774008989,-2.12947986287016,-9.7857600634785,336.691691844437
738328.56962965545244514942,-2.12947986287016,-9.87192398856573,336.593218787194
738328.56962974590715020895,-2.1540981271808,-9.84730572425509,336.704000976592
738328.56962983636185526848,-1.9571520126957,-9.67497787408063,336.716310108748
738328.56962992670014500618,-2.27718944873399,-9.97039704580828,336.519363994263
738328.56963001715485006571,-2.19102552364676,-9.89654225287637,336.531673126418
738328.56963010760955512524,-2.16640725933612,-9.88423312072105,336.654764447971
738328.56963019806426018476,-2.16640725933612,-9.88423312072105,336.679382712282
738328.56963028851896524429,-2.14178899502548,-9.82268745994446,336.60552791935
738328.56963037897367030382,-2.14178899502548,-9.84730572425509,336.667073580126
738328.56963046931196004152,-2.11717073071485,-9.83499659209978,336.593218787194
738328.56963055976666510105,-2.12947986287016,-9.87192398856573,336.543982258573
738328.56963065022137016058,-2.16640725933612,-9.93346964934233,336.543982258573
738328.56963074067607522011,-2.05562506993825,-9.76114179916786,336.543982258573
738328.56963083113078027964,-2.09255246640421,-9.7857600634785,336.519363994263
738328.56963092158548533916,-2.12947986287016,-9.84730572425509,336.531673126418
738328.56963101192377507687,-2.11717073071485,-9.81037832778914,336.531673126418
738328.56963110237848013639,-2.04331593778293,-9.74883266701254,336.556291390728
738328.56963119283318519592,-2.16640725933612,-9.94577878149764,336.580909655039
738328.56963128328789025545,-2.20333465580208,-9.87192398856573,336.63014618366
738328.56963137374259531498,-2.12947986287016,-9.83499659209978,336.63014618366
738328.56963146419730037451,-2.25257118442335,-9.92116051718701,336.642455315816
738328.56963155453559011221,-2.19102552364676,-9.87192398856573,336.642455315816
738328.56963164499029517174,-2.1540981271808,-9.90885138503169,336.593218787194
738328.56963173544500023127,-2.08024333424889,-9.73652353485722,336.654764447971
738328.56963182589970529079,-2.19102552364676,-9.95808791365296,336.654764447971
738328.56963191635441035032,-1.93253374838506,-9.5888139489934,336.691691844437
738328.56963200680911540985,-1.77251503036592,-9.20723085217851,336.63014618366
738328.56963209714740514755,-1.45247759432763,-8.61639250872321,336.310108747622
738328.56963218760211020708,-1.72327850174464,-9.05952126631469,336.371654408399
738328.56963227805681526661,-2.26488031657867,-10.0442518387402,336.470127465641
738328.56963236851152032614,-2.24026205226803,-9.97039704580828,336.63014618366
738328.56963245896622538567,-2.16640725933612,-9.85961485641041,336.617837051505
738328.56963254930451512337,-2.04331593778293,-9.73652353485722,336.593218787194
738328.56963263975922018290,-2.19102552364676,-9.94577878149764,336.617837051505
738328.56963273021392524242,-2.14178899502548,-9.81037832778914,336.654764447971
738328.56963282066863030195,-2.2156437879574,-9.89654225287637,336.667073580126
738328.56963291112333536148,-2.1540981271808,-9.79806919563382,336.60552791935
738328.56963300157804042101,-2.17871639149144,-9.93346964934233,336.667073580126
738328.56963309191633015871,-2.16640725933612,-9.88423312072105,336.593218787194
738328.56963318237103521824,-2.12947986287016,-9.7857600634785,336.593218787194
738328.56963327282574027777,-2.06793420209357,-9.74883266701254,336.580909655039
738328.56963336328044533730,-2.2156437879574,-9.90885138503169,336.654764447971
738328.56963345373515039682,-2.17871639149144,-9.85961485641041,336.543982258573
738328.56963354418985545635,-2.10486159855953,-9.81037832778914,336.482436597797
738328.56963363452814519405,-2.1540981271808,-9.82268745994446,336.63014618366
738328.56963372498285025358,-2.17871639149144,-9.87192398856573,336.617837051505
738328.56963381543755531311,-2.12947986287016,-9.79806919563382,336.593218787194
738328.56963390589226037264,-2.10486159855953,-9.82268745994446,336.60552791935
738328.56963399634696543217,-2.19102552364676,-9.87192398856573,336.60552791935
738328.56963408680167049170,-2.12947986287016,-9.79806919563382,336.63014618366
738328.56963417713996022940,-2.1540981271808,-9.83499659209978,336.60552791935
738328.56963426759466528893,-2.05562506993825,-9.67497787408063,336.617837051505
738328.56963435804937034845,-2.1540981271808,-9.83499659209978,336.654764447971
738328.56963444850407540798,-2.22795292011272,-9.92116051718701,336.642455315816
738328.56963453895878046751,-2.10486159855953,-9.72421440270191,336.679382712282
738328.56963462941348552704,-2.11717073071485,-9.77345093132318,336.642455315816
738328.56963471975177526474,-2.19102552364676,-9.81037832778914,336.667073580126
738328.56963481020648032427,-2.10486159855953,-9.68728700623595,336.667073580126
738328.56963490066118538380,-2.10486159855953,-9.76114179916786,336.617837051505
738328.56963499111589044333,-2.09255246640421,-9.77345093132318,336.753237505214
738328.56963508157059550285,-2.08024333424889,-9.69959613839127,336.642455315816
738328.56963517202530056238,-2.19102552364676,-9.74883266701254,336.63014618366
738328.56963526236359030008,-2.09255246640421,-9.73652353485722,336.617837051505
738328.56963535281829535961,-2.1540981271808,-9.79806919563382,336.642455315816
738328.56963544327300041914,-2.08024333424889,-9.68728700623595,336.60552791935
738328.56963553372770547867,-2.17871639149144,-9.84730572425509,336.593218787194
738328.56963562418241053820,-2.11717073071485,-9.74883266701254,336.667073580126
738328.56963571463711559772,-2.11717073071485,-9.7857600634785,336.679382712282
738328.56963580497540533543,-2.12947986287016,-9.85961485641041,336.580909655039
738328.56963589543011039495,-2.03100680562761,-9.72421440270191,336.679382712282
738328.56963598588481545448,-2.14178899502548,-9.83499659209978,336.667073580126
738328.56963607633952051401,-2.11717073071485,-9.77345093132318,336.667073580126
738328.56963616679422557354,-2.1540981271808,-9.93346964934233,336.642455315816
738328.56963625724893063307,-2.17871639149144,-9.85961485641041,336.654764447971
738328.56963634758722037077,-2.17871639149144,-9.94577878149764,336.667073580126
738328.56963643804192543030,-2.16640725933612,-9.83499659209978,336.60552791935
738328.56963652849663048983,-2.06793420209357,-9.79806919563382,336.691691844437
738328.56963661895133554935,-2.05562506993825,-9.82268745994446,336.667073580126
738328.56963670940604060888,-2.17871639149144,-9.88423312072105,336.691691844437
738328.56963679986074566841,-2.20333465580208,-9.92116051718701,336.617837051505
738328.56963689019903540611,-2.1540981271808,-9.87192398856573,336.691691844437
738328.56963698065374046564,-2.11717073071485,-9.85961485641041,336.617837051505
738328.56963707110844552517,-2.10486159855953,-9.82268745994446,336.470127465641
738328.56963716156315058470,-2.06793420209357,-9.79806919563382,336.667073580126
738328.56963725201785564423,-2.12947986287016,-9.83499659209978,336.679382712282
738328.56963734235614538193,-1.96946114485102,-9.68728700623595,336.556291390728
738328.56963743281085044146,-2.22795292011272,-9.97039704580828,336.654764447971
738328.56963752326555550098,-2.19102552364676,-9.89654225287637,336.679382712282
738328.56963761372026056051,-2.08024333424889,-9.81037832778914,336.60552791935
738328.56963770417496562004,-2.06793420209357,-9.7857600634785,336.642455315816
738328.56963779462967067957,-2.08024333424889,-9.7857600634785,336.667073580126
738328.56963788496796041727,-2.04331593778293,-9.76114179916786,336.654764447971
738328.56963797542266547680,-2.17871639149144,-9.90885138503169,336.617837051505
738328.56963806587737053633,-2.14178899502548,-9.90885138503169,336.667073580126
738328.56963815633207559586,-2.12947986287016,-9.84730572425509,336.642455315816
738328.56963824678678065538,-2.14178899502548,-9.79806919563382,336.704000976592
738328.56963833724148571491,-2.08024333424889,-9.90885138503169,336.667073580126
738328.56963842757977545261,-2.08024333424889,-9.76114179916786,336.60552791935
738328.56963851803448051214,-2.1540981271808,-9.83499659209978,336.691691844437
738328.56963860848918557167,-2.12947986287016,-9.85961485641041,336.642455315816
738328.56963869894389063120,-2.10486159855953,-9.81037832778914,336.593218787194
738328.56963878939859569073,-2.06793420209357,-9.81037832778914,336.543982258573
738328.56963887985330075026,-2.1540981271808,-9.85961485641041,336.507054862107
738328.56963897019159048796,-2.1540981271808,-9.92116051718701,336.531673126418
738328.56963906064629554749,-2.09255246640421,-9.82268745994446,336.531673126418
738328.56963915110100060701,-2.1540981271808,-9.87192398856573,336.543982258573
738328.56963924155570566654,-2.1540981271808,-9.87192398856573,336.543982258573
738328.56963933201041072607,-2.10486159855953,-9.87192398856573,336.60552791935
738328.56963942246511578560,-1.99407940916166,-9.72421440270191,336.593218787194
738328.56963951280340552330,-2.16640725933612,-9.85961485641041,336.642455315816
738328.56963960325811058283,-2.20333465580208,-9.94577878149764,336.654764447971
738328.56963969371281564236,-2.09255246640421,-9.82268745994446,336.63014618366
738328.56963978416752070189,-2.14178899502548,-9.88423312072105,336.642455315816
738328.56963987462222576141,-2.11717073071485,-9.85961485641041,336.667073580126
738328.56963996507693082094,-2.08024333424889,-9.77345093132318,336.654764447971
738328.56964005541522055864,-2.1540981271808,-9.97039704580828,336.580909655039
738328.56964014586992561817,-2.08024333424889,-9.79806919563382,336.667073580126
738328.56964023632463067770,-2.12947986287016,-9.84730572425509,336.654764447971
738328.56964032677933573723,-2.19102552364676,-9.89654225287637,336.60552791935
738328.56964041723404079676,-2.11717073071485,-9.87192398856573,336.654764447971
738328.56964050768874585629,-2.04331593778293,-9.81037832778914,336.642455315816
738328.56964059802703559399,-2.14178899502548,-9.83499659209978,336.507054862107
738328.56964068848174065351,-2.1540981271808,-9.93346964934233,336.568600522884
738328.56964077893644571304,-2.16640725933612,-9.89654225287637,336.654764447971
738328.56964086939115077257,-2.08024333424889,-9.81037832778914,336.691691844437
738328.56964095984585583210,-2.11717073071485,-9.88423312072105,336.667073580126
738328.56964105030056089163,-2.14178899502548,-9.87192398856573,336.642455315816
738328.56964114063885062933,-2.1540981271808,-9.92116051718701,336.691691844437
738328.56964123109355568886,-2.06793420209357,-9.81037832778914,336.679382712282
738328.56964132154826074839,-2.05562506993825,-9.73652353485722,336.593218787194
738328.56964141200296580791,-2.11717073071485,-9.87192398856573,336.63014618366
738328.56964150245767086744,-2.20333465580208,-9.93346964934233,336.63014618366
738328.56964159279596060514,-2.06793420209357,-9.81037832778914,336.580909655039
738328.56964168325066566467,-2.2156437879574,-9.94577878149764,336.642455315816
738328.56964177370537072420,-2.1540981271808,-9.89654225287637,336.60552791935
738328.56964186416007578373,-2.09255246640421,-9.81037832778914,336.63014618366
738328.56964195461478084326,-2.06793420209357,-9.7857600634785,336.654764447971
738328.56964204506948590279,-2.04331593778293,-9.83499659209978,336.568600522884
738328.56964213540777564049,-2.12947986287016,-9.84730572425509,336.556291390728
738328.56964222586248070002,-1.93253374838506,-9.69959613839127,336.531673126418
738328.56964231631718575954,-2.19102552364676,-9.94577878149764,336.543982258573
738328.56964240677189081907,-2.10486159855953,-9.87192398856573,336.482436597797
738328.56964249722659587860,-2.03100680562761,-9.83499659209978,336.494745729952
738328.56964258768130093813,-2.05562506993825,-9.79806919563382,336.531673126418
738328.56964267801959067583,-2.04331593778293,-9.83499659209978,336.556291390728
738328.56964276847429573536,-2.01869767347229,-9.76114179916786,336.556291390728
738328.56964285892900079489,-2.06793420209357,-9.82268745994446,336.556291390728
738328.56964294938370585442,-2.10486159855953,-9.82268745994446,336.63014618366
738328.56964303983841091394,-2.19102552364676,-10.0073244422742,336.667073580126
738328.56964313029311597347,-2.10486159855953,-9.84730572425509,336.667073580126
738328.56964322063140571117,-2.08024333424889,-9.83499659209978,336.654764447971
738328.56964331108611077070,-2.04331593778293,-9.77345093132318,336.580909655039
738328.56964340154081583023,-2.22795292011272,-9.93346964934233,336.63014618366
738328.56964349199552088976,-2.05562506993825,-9.84730572425509,336.642455315816
738328.56964358245022594929,-2.11717073071485,-9.85961485641041,336.617837051505
738328.56964367290493100882,-2.12947986287016,-9.93346964934233,336.642455315816
738328.56964376324322074652,-1.98177027700634,-9.67497787408063,336.704000976592
738328.56964385369792580605,-1.67404197312337,-9.09644866278064,336.470127465641
738328.56964394415263086557,-1.28014974415316,-8.53022858363597,336.162399161758
738328.56964403460733592510,-1.67404197312337,-9.03490300200405,336.063926104516
738328.56964412506204098463,-2.1540981271808,-9.88423312072105,336.408581804865
738328.56964421551674604416,-2.17871639149144,-9.92116051718701,336.556291390728
738328.56964430585503578186,-2.20333465580208,-9.93346964934233,336.60552791935
738328.56964439630974084139,-1.93253374838506,-9.69959613839127,336.63014618366
738328.56964448676444590092,-2.06793420209357,-9.82268745994446,336.654764447971
738328.56964457721915096045,-2.1540981271808,-9.88423312072105,336.63014618366
738328.56964466767385601997,-2.24026205226803,-9.9827061779636,336.691691844437
738328.56964475812856107950,-2.1540981271808,-9.89654225287637,336.716310108748
738328.56964484846685081720,-2.1540981271808,-9.88423312072105,336.667073580126
738328.56964493892155587673,-2.12947986287016,-9.87192398856573,336.642455315816
738328.56964502937626093626,-2.03100680562761,-9.73652353485722,336.691691844437
738328.56964511983096599579,-2.06793420209357,-9.81037832778914,336.716310108748
738328.56964521028567105532,-2.03100680562761,-9.76114179916786,336.60552791935
738328.56964530074037611485,-2.05562506993825,-9.77345093132318,336.667073580126
738328.56964539107866585255,-2.06793420209357,-9.79806919563382,336.728619240903
738328.56964548153337091208,-2.17871639149144,-9.93346964934233,336.60552791935
738328.56964557198807597160,-2.10486159855953,-9.81037832778914,336.691691844437
738328.56964566244278103113,-2.11717073071485,-9.90885138503169,336.679382712282
738328.56964575289748609066,-2.08024333424889,-9.73652353485722,336.679382712282
738328.56964584323577582836,-2.08024333424889,-9.83499659209978,336.691691844437
738328.56964593369048088789,-2.11717073071485,-9.81037832778914,336.617837051505
738328.56964602414518594742,-2.09255246640421,-9.81037832778914,336.654764447971
738328.56964611459989100695,-2.06793420209357,-9.76114179916786,336.691691844437
738328.56964620505459606647,-1.84636982329783,-9.62574134545936,336.704000976592
738328.56964629550930112600,-2.10486159855953,-9.84730572425509,336.580909655039
738328.56964638584759086370,-2.14178899502548,-9.82268745994446,336.667073580126
738328.56964647630229592323,-2.09255246640421,-9.79806919563382,336.704000976592
738328.56964656675700098276,-2.10486159855953,-9.7857600634785,336.63014618366
738328.56964665721170604229,-2.01869767347229,-9.74883266701254,336.667073580126
738328.56964674766641110182,-2.11717073071485,-9.82268745994446,336.679382712282
738328.56964683812111616135,-2.01869767347229,-9.68728700623595,336.679382712282
738328.56964692845940589905,-2.03100680562761,-9.67497787408063,336.654764447971
738328.56964701891411095858,-2.06793420209357,-9.73652353485722,336.679382712282
738328.56964710936881601810,-2.12947986287016,-9.85961485641041,336.704000976592
738328.56964719982352107763,-2.04331593778293,-9.71190527054659,336.60552791935
738328.56964729027822613716,-2.03100680562761,-9.68728700623595,336.679382712282
738328.56964738073293119669,-2.12947986287016,-9.83499659209978,336.642455315816
738328.56964747107122093439,-1.9571520126957,-9.71190527054659,336.593218787194
738328.56964756152592599392,-2.03100680562761,-9.73652353485722,336.408581804865
738328.56964765198063105345,-2.05562506993825,-9.87192398856573,336.519363994263
738328.56964774243533611298,-2.09255246640421,-9.82268745994446,336.617837051505
738328.56964783289004117250,-2.09255246640421,-9.81037832778914,336.556291390728
738328.56964792334474623203,-2.04331593778293,-9.81037832778914,336.543982258573
738328.56964801368303596973,-2.06793420209357,-9.85961485641041,336.617837051505
738328.56964810413774102926,-2.06793420209357,-9.84730572425509,336.63014618366
738328.56964819459244608879,-2.09255246640421,-9.87192398856573,336.654764447971
738328.56964828504715114832,-1.9571520126957,-9.69959613839127,336.617837051505
738328.56964837550185620785,-2.1540981271808,-9.92116051718701,336.654764447971
738328.56964846595656126738,-2.10486159855953,-9.90885138503169,336.679382712282
738328.56964855629485100508,-2.01869767347229,-9.77345093132318,336.617837051505
738328.56964864674955606461,-2.06793420209357,-9.89654225287637,336.642455315816
738328.56964873720426112413,-2.08024333424889,-9.84730572425509,336.667073580126
738328.56964882765896618366,-2.08024333424889,-9.85961485641041,336.60552791935
738328.56964891811367124319,-2.03100680562761,-9.81037832778914,336.679382712282
738328.56964900856837630272,-1.99407940916166,-9.76114179916786,336.654764447971
738328.56964909890666604042,-1.93253374838506,-9.71190527054659,336.543982258573
738328.56964918936137109995,-2.11717073071485,-9.85961485641041,336.593218787194
738328.56964927981607615948,-2.04331593778293,-9.88423312072105,336.654764447971
738328.56964937027078121901,-2.05562506993825,-9.82268745994446,336.667073580126
738328.56964946072548627853,-2.06793420209357,-9.83499659209978,336.556291390728
738328.56964955118019133806,-1.98177027700634,-9.72421440270191,336.617837051505
738328.56964964151848107576,-2.06793420209357,-9.83499659209978,336.642455315816
738328.56964973197318613529,-2.01869767347229,-9.85961485641041,336.556291390728
738328.56964982242789119482,-2.05562506993825,-9.83499659209978,336.556291390728
738328.56964991288259625435,-2.09255246640421,-9.84730572425509,336.654764447971
738328.56965000333730131388,-2.05562506993825,-9.82268745994446,336.617837051505
738328.56965009379200637341,-1.99407940916166,-9.73652353485722,336.543982258573
738328.56965018413029611111,-2.04331593778293,-9.84730572425509,336.63014618366
738328.56965027458500117064,-2.04331593778293,-9.7857600634785,336.617837051505
738328.56965036503970623016,-2.03100680562761,-9.81037832778914,336.593218787194
738328.56965045549441128969,-2.04331593778293,-9.79806919563382,336.63014618366
738328.56965054594911634922,-2.14178899502548,-9.95808791365296,336.60552791935
738328.56965063628740608692,-2.06793420209357,-9.83499659209978,336.60552791935
738328.56965072674211114645,-2.03100680562761,-9.81037832778914,336.580909655039
738328.56965081719681620598,-2.06793420209357,-9.82268745994446,336.617837051505
738328.56965090765152126551,-2.01869767347229,-9.7857600634785,336.568600522884
738328.56965099810622632504,-1.94484288054038,-9.72421440270191,336.543982258573
738328.56965108856093138456,-2.00638854131698,-9.7857600634785,336.42089093702
738328.56965117889922112226,-2.08024333424889,-9.90885138503169,336.470127465641
738328.56965126935392618179,-2.16640725933612,-9.90885138503169,336.556291390728
738328.56965135980863124132,-2.08024333424889,-9.83499659209978,336.556291390728
738328.56965145026333630085,-2.03100680562761,-9.85961485641041,336.63014618366
738328.56965154071804136038,-2.08024333424889,-9.85961485641041,336.642455315816
738328.56965163117274641991,-2.03100680562761,-9.7857600634785,336.679382712282
738328.56965172151103615761,-2.05562506993825,-9.79806919563382,336.519363994263
738328.56965181196574121714,-2.05562506993825,-9.85961485641041,336.63014618366
738328.56965190242044627666,-2.06793420209357,-9.85961485641041,336.679382712282
738328.56965199287515133619,-2.04331593778293,-9.81037832778914,336.679382712282
738328.56965208332985639572,-2.09255246640421,-9.83499659209978,336.617837051505
738328.56965217378456145525,-2.08024333424889,-9.92116051718701,336.654764447971
738328.56965226412285119295,-2.03100680562761,-9.79806919563382,336.667073580126
738328.56965235457755625248,-2.06793420209357,-9.77345093132318,336.642455315816
738328.56965244503226131201,-2.00638854131698,-9.81037832778914,336.63014618366
738328.56965253548696637154,-2.03100680562761,-9.7857600634785,336.667073580126
738328.56965262594167143106,-2.10486159855953,-9.93346964934233,336.667073580126
738328.56965271639637649059,-2.06793420209357,-9.83499659209978,336.580909655039
738328.56965280673466622829,-2.06793420209357,-9.85961485641041,336.556291390728
738328.56965289718937128782,-2.08024333424889,-9.83499659209978,336.556291390728
738328.56965298764407634735,-2.03100680562761,-9.83499659209978,336.519363994263
738328.56965307809878140688,-2.08024333424889,-9.89654225287637,336.531673126418
738328.56965316855348646641,-2.05562506993825,-9.79806919563382,336.60552791935
738328.56965325900819152594,-1.93253374838506,-9.69959613839127,336.63014618366
738328.56965334934648126364,-2.05562506993825,-9.85961485641041,336.60552791935
738328.56965343980118632317,-2.10486159855953,-9.82268745994446,336.642455315816
738328.56965353025589138269,-2.06793420209357,-9.81037832778914,336.642455315816
738328.56965362071059644222,-2.10486159855953,-9.93346964934233,336.63014618366
738328.56965371116530150175,-2.09255246640421,-9.85961485641041,336.556291390728
738328.56965380162000656128,-2.01869767347229,-9.87192398856573,336.593218787194
738328.56965389195829629898,-1.94484288054038,-9.69959613839127,336.580909655039
738328.56965398241300135851,-2.01869767347229,-9.83499659209978,336.593218787194
738328.56965407286770641804,-1.98177027700634,-9.77345093132318,336.507054862107
738328.56965416332241147757,-2.01869767347229,-9.92116051718701,336.556291390728
738328.56965425377711653709,-1.9571520126957,-9.72421440270191,336.568600522884
738328.56965434423182159662,-2.01869767347229,-9.81037832778914,336.507054862107
738328.56965443457011133432,-1.98177027700634,-9.7857600634785,336.580909655039
738328.56965452502481639385,-1.94484288054038,-9.72421440270191,336.531673126418
738328.56965461547952145338,-2.04331593778293,-9.82268745994446,336.433200069175
738328.56965470593422651291,-2.09255246640421,-9.85961485641041,336.445509201331
738328.56965479638893157244,-2.14178899502548,-9.97039704580828,336.556291390728
738328.56965488672722131014,-2.04331593778293,-9.7857600634785,336.60552791935
738328.56965497718192636967,-2.05562506993825,-9.79806919563382,336.617837051505
738328.56965506763663142920,-2.08024333424889,-9.90885138503169,336.617837051505
738328.56965515809133648872,-1.96946114485102,-9.73652353485722,336.617837051505
738328.56965524854604154825,-2.06793420209357,-9.87192398856573,336.593218787194
738328.56965533900074660778,-1.94484288054038,-9.76114179916786,336.642455315816
738328.56965542933903634548,-1.82175155898719,-9.55188655252744,336.691691844437
738328.56965551979374140501,-1.67404197312337,-9.18261258786788,336.556291390728
738328.56965561024844646454,-1.29245887630848,-8.54253771579129,336.248563086845
738328.56965570070315152407,-1.62480544450209,-8.94873907691682,336.23625395469
738328.56965579115785658360,-2.03100680562761,-9.81037832778914,336.408581804865
738328.56965588161256164312,-2.06793420209357,-9.87192398856573,336.482436597797
738328.56965597195085138083,-2.06793420209357,-9.87192398856573,336.494745729952
738328.56965606240555644035,-2.01869767347229,-9.79806919563382,336.519363994263
738328.56965615286026149988,-2.08024333424889,-9.82268745994446,336.531673126418
738328.56965624331496655941,-2.05562506993825,-9.81037832778914,336.60552791935
738328.56965633376967161894,-2.05562506993825,-9.92116051718701,336.593218787194
738328.56965642422437667847,-1.94484288054038,-9.69959613839127,336.63014618366
738328.56965651456266641617,-2.00638854131698,-9.7857600634785,336.654764447971
738328.56965660501737147570,-2.05562506993825,-9.79806919563382,336.704000976592
738328.56965669547207653522,-2.08024333424889,-9.90885138503169,336.691691844437
738328.56965678592678159475,-2.00638854131698,-9.77345093132318,336.617837051505
738328.56965687638148665428,-2.05562506993825,-9.82268745994446,336.667073580126
738328.56965696683619171381,-2.00638854131698,-9.7857600634785,336.679382712282
738328.56965705717448145151,-2.00638854131698,-9.77345093132318,336.642455315816
738328.56965714762918651104,-1.98177027700634,-9.79806919563382,336.642455315816
738328.56965723808389157057,-2.06793420209357,-9.85961485641041,336.654764447971
738328.56965732853859663010,-2.00638854131698,-9.77345093132318,336.691691844437
738328.56965741899330168962,-2.05562506993825,-9.82268745994446,336.654764447971
738328.56965750944800674915,-2.05562506993825,-9.83499659209978,336.667073580126
738328.56965759978629648685,-2.04331593778293,-9.84730572425509,336.667073580126
738328.56965769024100154638,-1.93253374838506,-9.68728700623595,336.63014618366
738328.56965778069570660591,-1.98177027700634,-9.71190527054659,336.654764447971
738328.56965787115041166544,-1.98177027700634,-9.74883266701254,336.691691844437
738328.56965796160511672497,-1.99407940916166,-9.76114179916786,336.704000976592
738328.56965805205982178450,-2.09255246640421,-9.89654225287637,336.531673126418
738328.56965814239811152220,-2.04331593778293,-9.72421440270191,336.531673126418
738328.56965823285281658173,-1.99407940916166,-9.74883266701254,336.556291390728
738328.56965832330752164125,-1.98177027700634,-9.65035960976999,336.642455315816
738328.56965841376222670078,-2.04331593778293,-9.87192398856573,336.642455315816
738328.56965850421693176031,-2.00638854131698,-9.68728700623595,336.728619240903
738328.56965859467163681984,-1.89560635191911,-9.61343221330404,336.704000976592
738328.56965868500992655754,-2.05562506993825,-9.73652353485722,336.617837051505
738328.56965877546463161707,-2.03100680562761,-9.82268745994446,336.704000976592
738328.56965886591933667660,-2.05562506993825,-9.76114179916786,336.642455315816
738328.56965895637404173613,-1.98177027700634,-9.72421440270191,336.60552791935
738328.56965904682874679565,-1.94484288054038,-9.69959613839127,336.617837051505
738328.56965913716703653336,-2.05562506993825,-9.81037832778914,336.568600522884
738328.56965922762174159288,-2.04331593778293,-9.84730572425509,336.593218787194
738328.56965931807644665241,-1.88329721976379,-9.66266874192531,336.593218787194
738328.56965940853115171194,-2.10486159855953,-9.85961485641041,336.63014618366
738328.56965949898585677147,-2.01869767347229,-9.85961485641041,336.60552791935
738328.56965958944056183100,-1.98177027700634,-9.74883266701254,336.568600522884
738328.56965967977885156870,-2.01869767347229,-9.82268745994446,336.593218787194
738328.56965977023355662823,-2.01869767347229,-9.85961485641041,336.642455315816
738328.56965986068826168776,-2.01869767347229,-9.77345093132318,336.617837051505
738328.56965995114296674728,-2.00638854131698,-9.90885138503169,336.580909655039
738328.56966004159767180681,-2.01869767347229,-9.81037832778914,336.654764447971
738328.56966013205237686634,-2.06793420209357,-9.85961485641041,336.580909655039
738328.56966022239066660404,-1.9571520126957,-9.73652353485722,336.60552791935
738328.56966031284537166357,-2.05562506993825,-9.90885138503169,336.63014618366
738328.56966040330007672310,-2.00638854131698,-9.81037832778914,336.691691844437
738328.56966049375478178263,-1.92022461622974,-9.73652353485722,336.654764447971
738328.56966058420948684216,-2.04331593778293,-9.84730572425509,336.642455315816
738328.56966067466419190168,-1.98177027700634,-9.79806919563382,336.63014618366
738328.56966076500248163939,-1.98177027700634,-9.81037832778914,336.580909655039
738328.56966085545718669891,-2.05562506993825,-9.87192398856573,336.691691844437
738328.56966094591189175844,-1.98177027700634,-9.77345093132318,336.642455315816
738328.56966103636659681797,-1.9571520126957,-9.76114179916786,336.63014618366
738328.56966112682130187750,-1.88329721976379,-9.69959613839127,336.531673126418
738328.56966121727600693703,-1.9571520126957,-9.74883266701254,336.543982258573
738328.56966130761429667473,-2.09255246640421,-9.87192398856573,336.531673126418
738328.56966139806900173426,-1.99407940916166,-9.77345093132318,336.507054862107
738328.56966148852370679379,-2.09255246640421,-9.97039704580828,336.543982258573
738328.56966157897841185331,-1.99407940916166,-9.79806919563382,336.63014618366
738328.56966166943311691284,-1.94484288054038,-9.73652353485722,336.531673126418
738328.56966175988782197237,-1.93253374838506,-9.72421440270191,336.482436597797
738328.56966185022611171007,-2.09255246640421,-9.99501531011892,336.642455315816
738328.56966194068081676960,-1.98177027700634,-9.71190527054659,336.617837051505
738328.56966203113552182913,-2.01869767347229,-9.82268745994446,336.580909655039
738328.56966212159022688866,-2.00638854131698,-9.84730572425509,336.679382712282
738328.56966221204493194818,-2.06793420209357,-9.84730572425509,336.667073580126
738328.56966230249963700771,-1.90791548407442,-9.72421440270191,336.543982258573
738328.56966239283792674541,-1.92022461622974,-9.73652353485722,336.642455315816
738328.56966248329263180494,-2.10486159855953,-9.88423312072105,336.667073580126
738328.56966257374733686447,-2.05562506993825,-9.84730572425509,336.568600522884
738328.56966266420204192400,-1.96946114485102,-9.81037832778914,336.617837051505
738328.56966275465674698353,-2.00638854131698,-9.85961485641041,336.654764447971
738328.56966284511145204306,-2.04331593778293,-9.85961485641041,336.654764447971
738328.56966293544974178076,-1.96946114485102,-9.74883266701254,336.556291390728
738328.56966302590444684029,-1.94484288054038,-9.7857600634785,336.63014618366
738328.56966311635915189981,-2.05562506993825,-9.87192398856573,336.60552791935
738328.56966320681385695934,-2.08024333424889,-9.87192398856573,336.60552791935
738328.56966329726856201887,-2.00638854131698,-9.81037832778914,336.617837051505
738328.56966338772326707840,-1.94484288054038,-9.73652353485722,336.568600522884
738328.56966347806155681610,-2.08024333424889,-9.93346964934233,336.543982258573
738328.56966356851626187563,-1.99407940916166,-9.7857600634785,336.654764447971
738328.56966365897096693516,-1.87098808760847,-9.67497787408063,336.617837051505
738328.56966374942567199469,-2.03100680562761,-9.85961485641041,336.593218787194
738328.56966383988037705421,-2.09255246640421,-9.87192398856573,336.593218787194
738328.56966393021866679192,-2.03100680562761,-9.83499659209978,336.568600522884
738328.56966402067337185144,-2.03100680562761,-9.79806919563382,336.593218787194
738328.56966411112807691097,-1.9571520126957,-9.79806919563382,336.593218787194
738328.56966420158278197050,-1.93253374838506,-9.74883266701254,336.531673126418
738328.56966429203748703003,-2.12947986287016,-9.90885138503169,336.580909655039
738328.56966438249219208956,-2.03100680562761,-9.83499659209978,336.60552791935
738328.56966447283048182726,-2.04331593778293,-9.93346964934233,336.617837051505
738328.56966456328518688679,-1.96946114485102,-9.74883266701254,336.63014618366
738328.56966465373989194632,-2.04331593778293,-9.83499659209978,336.642455315816
738328.56966474419459700584,-2.00638854131698,-9.7857600634785,336.654764447971
738328.56966483464930206537,-1.94484288054038,-9.76114179916786,336.667073580126
738328.56966492510400712490,-1.98177027700634,-9.81037832778914,336.543982258573
738328.56966501544229686260,-2.04331593778293,-9.79806919563382,336.617837051505
738328.56966510589700192213,-2.01869767347229,-9.93346964934233,336.63014618366
738328.56966519635170698166,-2.04331593778293,-9.84730572425509,336.543982258573
738328.56966528680641204119,-1.96946114485102,-9.74883266701254,336.433200069175
738328.56966537726111710072,-2.00638854131698,-9.90885138503169,336.60552791935
738328.56966546771582216024,-1.82175155898719,-9.65035960976999,336.457818333486
738328.56966555805411189795,-2.03100680562761,-9.85961485641041,336.433200069175
738328.56966564850881695747,-1.9571520126957,-9.7857600634785,336.494745729952
738328.56966573896352201700,-1.94484288054038,-9.74883266701254,336.482436597797
738328.56966582941822707653,-1.96946114485102,-9.79806919563382,336.457818333486
738328.56966591987293213606,-1.93253374838506,-9.69959613839127,336.568600522884
738328.56966601032763719559,-1.98177027700634,-9.84730572425509,336.60552791935
738328.56966610066592693329,-2.12947986287016,-9.9827061779636,336.617837051505
738328.56966619112063199282,-2.03100680562761,-9.82268745994446,336.617837051505
738328.56966628157533705235,-2.00638854131698,-9.79806919563382,336.667073580126
738328.56966637203004211187,-2.04331593778293,-9.82268745994446,336.642455315816
738328.56966646248474717140,-2.00638854131698,-9.85961485641041,336.543982258573
738328.56966655293945223093,-1.96946114485102,-9.76114179916786,336.60552791935
738328.56966664327774196863,-1.96946114485102,-9.77345093132318,336.642455315816
738328.56966673373244702816,-1.93253374838506,-9.77345093132318,336.63014618366
738328.56966682418715208769,-1.98177027700634,-9.65035960976999,336.63014618366
738328.56966691464185714722,-1.42785933001699,-8.91181168045086,336.445509201331
738328.56966700509656220675,-1.3047680084638,-8.55484684794661,336.248563086845
738328.56966709555126726627,-1.71096936958932,-9.18261258786788,336.273181351156
738328.56966718588955700397,-2.12947986287016,-9.95808791365296,336.568600522884
738328.56966727634426206350,-1.98177027700634,-9.77345093132318,336.580909655039
738328.56966736679896712303,-2.03100680562761,-9.83499659209978,336.556291390728
738328.56966745725367218256,-2.10486159855953,-9.89654225287637,336.580909655039
738328.56966754770837724209,-2.05562506993825,-9.81037832778914,336.63014618366
738328.56966763816308230162,-1.93253374838506,-9.77345093132318,336.654764447971
738328.56966772850137203932,-1.9571520126957,-9.72421440270191,336.580909655039
738328.56966781895607709885,-2.06793420209357,-9.85961485641041,336.654764447971
738328.56966790941078215837,-1.98177027700634,-9.73652353485722,336.691691844437
738328.56966799986548721790,-2.01869767347229,-9.81037832778914,336.667073580126
738328.56966809032019227743,-1.96946114485102,-9.74883266701254,336.617837051505
738328.56966818065848201513,-2.06793420209357,-9.83499659209978,336.580909655039
738328.56966827111318707466,-2.09255246640421,-9.88423312072105,336.679382712282
738328.56966836156789213419,-1.98177027700634,-9.72421440270191,336.691691844437
738328.56966845202259719372,-1.90791548407442,-9.71190527054659,336.593218787194
738328.56966854247730225325,-1.98177027700634,-9.71190527054659,336.63014618366
738328.56966863293200731277,-2.05562506993825,-9.88423312072105,336.667073580126
738328.56966872327029705048,-2.06793420209357,-9.81037832778914,336.593218787194
738328.56966881372500211000,-1.98177027700634,-9.73652353485722,336.445509201331
738328.56966890417970716953,-2.00638854131698,-9.77345093132318,336.642455315816
738328.56966899463441222906,-1.99407940916166,-9.76114179916786,336.654764447971
738328.56966908508911728859,-1.93253374838506,-9.69959613839127,336.580909655039
738328.56966917554382234812,-1.98177027700634,-9.74883266701254,336.519363994263
738328.56966926588211208582,-2.00638854131698,-9.7857600634785,336.617837051505
738328.56966935633681714535,-2.01869767347229,-9.74883266701254,336.63014618366
738328.56966944679152220488,-2.08024333424889,-9.81037832778914,336.654764447971
738328.56966953724622726440,-2.00638854131698,-9.72421440270191,336.593218787194
738328.56966962770093232393,-1.89560635191911,-9.69959613839127,336.679382712282
738328.56966971815563738346,-2.04331593778293,-9.74883266701254,336.691691844437
738328.56966980849392712116,-2.01869767347229,-9.69959613839127,336.593218787194
738328.56966989894863218069,-2.06793420209357,-9.76114179916786,336.642455315816
738328.56966998940333724022,-1.90791548407442,-9.63805047761467,336.704000976592
738328.56967007985804229975,-1.96946114485102,-9.71190527054659,336.556291390728
738328.56967017031274735928,-1.96946114485102,-9.67497787408063,336.60552791935
738328.56967026076745241880,-2.04331593778293,-9.74883266701254,336.556291390728
738328.56967035110574215651,-2.10486159855953,-9.83499659209978,336.531673126418
738328.56967044156044721603,-2.09255246640421,-9.82268745994446,336.519363994263
738328.56967053201515227556,-1.99407940916166,-9.83499659209978,336.531673126418
738328.56967062246985733509,-2.03100680562761,-9.77345093132318,336.543982258573
738328.56967071292456239462,-1.9571520126957,-9.69959613839127,336.507054862107
738328.56967080337926745415,-1.92022461622974,-9.65035960976999,336.568600522884
738328.56967089371755719185,-1.94484288054038,-9.76114179916786,336.568600522884
738328.56967098417226225138,-2.10486159855953,-9.88423312072105,336.543982258573
738328.56967107462696731091,-2.01869767347229,-9.79806919563382,336.543982258573
738328.56967116508167237043,-1.9571520126957,-9.71190527054659,336.531673126418
738328.56967125553637742996,-2.01869767347229,-9.83499659209978,336.543982258573
738328.56967134599108248949,-2.06793420209357,-9.87192398856573,336.507054862107
738328.56967143632937222719,-1.98177027700634,-9.76114179916786,336.580909655039
738328.56967152678407728672,-2.08024333424889,-9.87192398856573,336.580909655039
738328.56967161723878234625,-2.03100680562761,-9.79806919563382,336.580909655039
738328.56967170769348740578,-2.00638854131698,-9.76114179916786,336.580909655039
738328.56967179814819246531,-1.96946114485102,-9.72421440270191,336.60552791935
738328.56967188860289752483,-2.06793420209357,-9.87192398856573,336.568600522884
738328.56967197894118726254,-1.98177027700634,-9.74883266701254,336.519363994263
738328.56967206939589232206,-1.93253374838506,-9.69959613839127,336.617837051505
738328.56967215985059738159,-1.99407940916166,-9.81037832778914,336.617837051505
738328.56967225030530244112,-2.03100680562761,-9.79806919563382,336.580909655039
738328.56967234076000750065,-2.03100680562761,-9.82268745994446,336.396272672709
738328.56967243121471256018,-1.98177027700634,-9.77345093132318,336.580909655039
738328.56967252155300229788,-2.04331593778293,-9.82268745994446,336.580909655039
738328.56967261200770735741,-1.98177027700634,-9.68728700623595,336.519363994263
738328.56967270246241241693,-2.08024333424889,-9.84730572425509,336.580909655039
738328.56967279291711747646,-1.93253374838506,-9.72421440270191,336.507054862107
738328.56967288337182253599,-2.01869767347229,-9.79806919563382,336.543982258573
738328.56967297371011227369,-2.11717073071485,-9.84730572425509,336.494745729952
738328.56967306416481733322,-2.04331593778293,-9.79806919563382,336.482436597797
738328.56967315461952239275,-1.96946114485102,-9.7857600634785,336.519363994263
738328.56967324507422745228,-2.04331593778293,-9.7857600634785,336.543982258573
738328.56967333552893251181,-2.09255246640421,-9.84730572425509,336.519363994263
738328.56967342598363757133,-2.03100680562761,-9.81037832778914,336.494745729952
738328.56967351632192730904,-1.93253374838506,-9.66266874192531,336.568600522884
738328.56967360677663236856,-1.93253374838506,-9.73652353485722,336.593218787194
738328.56967369723133742809,-2.19102552364676,-9.93346964934233,336.642455315816
738328.56967378768604248762,-2.04331593778293,-9.79806919563382,336.507054862107
738328.56967387814074754715,-2.08024333424889,-9.77345093132318,336.60552791935
738328.56967396859545260668,-2.08024333424889,-9.94577878149764,336.642455315816
738328.56967405893374234438,-2.03100680562761,-9.83499659209978,336.642455315816
738328.56967414938844740391,-2.06793420209357,-9.7857600634785,336.531673126418
738328.56967423984315246344,-2.10486159855953,-9.83499659209978,336.593218787194
738328.56967433029785752296,-2.01869767347229,-9.7857600634785,336.667073580126
738328.56967442075256258249,-2.01869767347229,-9.77345093132318,336.507054862107
738328.56967451120726764202,-2.03100680562761,-9.81037832778914,336.617837051505
738328.56967460154555737972,-2.05562506993825,-9.7857600634785,336.642455315816
738328.56967469200026243925,-2.06793420209357,-9.79806919563382,336.543982258573
738328.56967478245496749878,-2.06793420209357,-9.84730572425509,336.60552791935
738328.56967487290967255831,-2.01869767347229,-9.74883266701254,336.654764447971
738328.56967496336437761784,-2.10486159855953,-9.87192398856573,336.531673126418
738328.56967505381908267736,-2.10486159855953,-9.81037832778914,336.470127465641
738328.56967514415737241507,-2.11717073071485,-9.85961485641041,336.482436597797
738328.56967523461207747459,-2.10486159855953,-9.88423312072105,336.494745729952
738328.56967532506678253412,-2.03100680562761,-9.76114179916786,336.482436597797
738328.56967541552148759365,-2.04331593778293,-9.76114179916786,336.507054862107
738328.56967550597619265318,-2.04331593778293,-9.83499659209978,336.568600522884
738328.56967559643089771271,-1.98177027700634,-9.72421440270191,336.580909655039
738328.56967568676918745041,-2.09255246640421,-9.81037832778914,336.482436597797
738328.56967577722389250994,-2.08024333424889,-9.88423312072105,336.322417879777
738328.56967586767859756947,-2.05562506993825,-9.79806919563382,336.322417879777
738328.56967595813330262899,-2.08024333424889,-9.82268745994446,336.507054862107
738328.56967604858800768852,-1.96946114485102,-9.77345093132318,336.457818333486
738328.56967613904271274805,-2.03100680562761,-9.83499659209978,336.433200069175
738328.56967622938100248575,-1.96946114485102,-9.71190527054659,336.457818333486
738328.56967631983570754528,-1.96946114485102,-9.74883266701254,336.457818333486
738328.56967641029041260481,-2.00638854131698,-9.77345093132318,336.457818333486
738328.56967650074511766434,-2.10486159855953,-9.85961485641041,336.494745729952
738328.56967659119982272387,-2.08024333424889,-9.84730572425509,336.494745729952
738328.56967668165452778339,-2.03100680562761,-9.76114179916786,336.507054862107
738328.56967677199281752110,-2.04331593778293,-9.79806919563382,336.507054862107
738328.56967686244752258062,-2.04331593778293,-9.83499659209978,336.494745729952
738328.56967695290222764015,-2.09255246640421,-9.7857600634785,336.519363994263
738328.56967704335693269968,-2.04331593778293,-9.76114179916786,336.556291390728
738328.56967713381163775921,-2.12947986287016,-9.88423312072105,336.482436597797
738328.56967722414992749691,-2.09255246640421,-9.84730572425509,336.507054862107
738328.56967731460463255644,-2.00638854131698,-9.76114179916786,336.556291390728
738328.56967740505933761597,-1.89560635191911,-9.55188655252744,336.580909655039
738328.56967749551404267550,-1.67404197312337,-9.02259386984873,336.470127465641
738328.56967758596874773502,-1.37862280139571,-8.61639250872321,336.21163569038
738328.56967767642345279455,-1.77251503036592,-9.25646738079979,336.310108747622
738328.56967776676174253225,-2.01869767347229,-9.74883266701254,336.371654408399
738328.56967785721644759178,-2.19102552364676,-9.95808791365296,336.470127465641
738328.56967794767115265131,-1.98177027700634,-9.77345093132318,336.519363994263
738328.56967803812585771084,-2.04331593778293,-9.7857600634785,336.556291390728
738328.56967812858056277037,-2.10486159855953,-9.82268745994446,336.531673126418
738328.56967821903526782990,-2.12947986287016,-9.88423312072105,336.494745729952
738328.56967830937355756760,-2.10486159855953,-9.7857600634785,336.568600522884
738328.56967839982826262712,-2.06793420209357,-9.83499659209978,336.593218787194
738328.56967849028296768665,-2.05562506993825,-9.77345093132318,336.556291390728
738328.56967858073767274618,-2.00638854131698,-9.71190527054659,336.568600522884
738328.56967867119237780571,-2.00638854131698,-9.69959613839127,336.580909655039
738328.56967876164708286524,-2.17871639149144,-9.95808791365296,336.60552791935
738328.56967885198537260294,-2.11717073071485,-9.81037832778914,336.507054862107
738328.56967894244007766247,-2.05562506993825,-9.76114179916786,336.568600522884
738328.56967903289478272200,-2.04331593778293,-9.76114179916786,336.568600522884
738328.56967912334948778152,-2.10486159855953,-9.79806919563382,336.531673126418
738328.56967921380419284105,-1.93253374838506,-9.71190527054659,336.556291390728
738328.56967930425889790058,-2.06793420209357,-9.74883266701254,336.408581804865
738328.56967939459718763828,-2.19102552364676,-9.88423312072105,336.494745729952
738328.56967948505189269781,-2.06793420209357,-9.7857600634785,336.543982258573
738328.56967957550659775734,-2.00638854131698,-9.68728700623595,336.593218787194
738328.56967966596130281687,-2.01869767347229,-9.73652353485722,336.60552791935
738328.56967975641600787640,-2.06793420209357,-9.74883266701254,336.556291390728
738328.56967984687071293592,-2.04331593778293,-9.77345093132318,336.580909655039
738328.56967993720900267363,-1.98177027700634,-9.65035960976999,336.580909655039
738328.56968002766370773315,-2.11717073071485,-9.7857600634785,336.543982258573
738328.56968011811841279268,-2.04331593778293,-9.74883266701254,336.531673126418
738328.56968020857311785221,-1.94484288054038,-9.62574134545936,336.531673126418
738328.56968029902782291174,-2.12947986287016,-9.7857600634785,336.568600522884
738328.56968038948252797127,-2.06793420209357,-9.74883266701254,336.617837051505
738328.56968047982081770897,-2.01869767347229,-9.63805047761467,336.63014618366
738328.56968057027552276850,-1.96946114485102,-9.63805047761467,336.543982258573
738328.56968066073022782803,-2.08024333424889,-9.74883266701254,336.63014618366
738328.56968075118493288755,-2.01869767347229,-9.67497787408063,336.617837051505
738328.56968084163963794708,-2.14178899502548,-9.74883266701254,336.531673126418
738328.56968093209434300661,-2.08024333424889,-9.85961485641041,336.580909655039
738328.56968102243263274431,-2.01869767347229,-9.67497787408063,336.580909655039
738328.56968111288733780384,-2.05562506993825,-9.7857600634785,336.60552791935
738328.56968120334204286337,-1.9571520126957,-9.61343221330404,336.543982258573
738328.56968129379674792290,-1.93253374838506,-9.71190527054659,336.568600522884
738328.56968138425145298243,-2.11717073071485,-9.82268745994446,336.519363994263
738328.56968147458974272013,-2.10486159855953,-9.83499659209978,336.470127465641
738328.56968156504444777966,-2.10486159855953,-9.84730572425509,336.482436597797
738328.56968165549915283918,-2.10486159855953,-9.85961485641041,336.470127465641
738328.56968174595385789871,-1.94484288054038,-9.69959613839127,336.543982258573
738328.56968183640856295824,-2.06793420209357,-9.87192398856573,336.556291390728
738328.56968192686326801777,-2.12947986287016,-9.82268745994446,336.519363994263
738328.56968201720155775547,-2.03100680562761,-9.77345093132318,336.568600522884
738328.56968210765626281500,-1.99407940916166,-9.74883266701254,336.568600522884
738328.56968219811096787453,-2.08024333424889,-9.84730572425509,336.457818333486
738328.56968228856567293406,-2.00638854131698,-9.73652353485722,336.568600522884
738328.56968237902037799358,-2.03100680562761,-9.77345093132318,336.580909655039
738328.56968246947508305311,-2.12947986287016,-9.83499659209978,336.543982258573
738328.56968255981337279081,-2.03100680562761,-9.87192398856573,336.519363994263
738328.56968265026807785034,-1.98177027700634,-9.68728700623595,336.580909655039
738328.56968274072278290987,-2.06793420209357,-9.79806919563382,336.556291390728
738328.56968283117748796940,-1.98177027700634,-9.73652353485722,336.371654408399
738328.56968292163219302893,-2.05562506993825,-9.81037832778914,336.42089093702
738328.56968301208689808846,-2.05562506993825,-9.79806919563382,336.470127465641
738328.56968310242518782616,-2.03100680562761,-9.72421440270191,336.556291390728
738328.56968319287989288568,-1.99407940916166,-9.79806919563382,336.593218787194
738328.56968328333459794521,-2.11717073071485,-9.83499659209978,336.531673126418
738328.56968337378930300474,-2.04331593778293,-9.79806919563382,336.433200069175
738328.56968346424400806427,-2.03100680562761,-9.7857600634785,336.470127465641
738328.56968355469871312380,-2.10486159855953,-9.83499659209978,336.482436597797
738328.56968364503700286150,-2.04331593778293,-9.81037832778914,336.433200069175
738328.56968373549170792103,-2.01869767347229,-9.79806919563382,336.494745729952
738328.56968382594641298056,-2.00638854131698,-9.73652353485722,336.556291390728
738328.56968391640111804008,-2.09255246640421,-9.87192398856573,336.556291390728
738328.56968400685582309961,-2.05562506993825,-9.7857600634785,336.531673126418
738328.56968409731052815914,-2.09255246640421,-9.81037832778914,336.543982258573
738328.56968418764881789684,-2.06793420209357,-9.88423312072105,336.580909655039
738328.56968427810352295637,-2.09255246640421,-9.79806919563382,336.482436597797
738328.56968436855822801590,-2.01869767347229,-9.77345093132318,336.543982258573
738328.56968445901293307543,-1.96946114485102,-9.71190527054659,336.445509201331
738328.56968454946763813496,-2.10486159855953,-9.82268745994446,336.568600522884
738328.56968463992234319448,-2.00638854131698,-9.87192398856573,336.494745729952
738328.56968473026063293219,-2.05562506993825,-9.74883266701254,336.494745729952
738328.56968482071533799171,-2.12947986287016,-9.84730572425509,336.543982258573
738328.56968491117004305124,-2.08024333424889,-9.83499659209978,336.494745729952
738328.56968500162474811077,-2.05562506993825,-9.82268745994446,336.531673126418
738328.56968509207945317030,-2.06793420209357,-9.7857600634785,336.519363994263
738328.56968518253415822983,-2.08024333424889,-9.81037832778914,336.470127465641
738328.56968527287244796753,-2.01869767347229,-9.79806919563382,336.507054862107
738328.56968536332715302706,-2.06793420209357,-9.84730572425509,336.482436597797
738328.56968545378185808659,-2.05562506993825,-9.7857600634785,336.556291390728
738328.56968554423656314611,-2.11717073071485,-9.85961485641041,336.556291390728
738328.56968563469126820564,-2.04331593778293,-9.83499659209978,336.556291390728
738328.56968572514597326517,-2.03100680562761,-9.76114179916786,336.519363994263
738328.56968581548426300287,-2.05562506993825,-9.7857600634785,336.470127465641
738328.56968590593896806240,-2.01869767347229,-9.7857600634785,336.470127465641
738328.56968599639367312193,-2.09255246640421,-9.87192398856573,336.482436597797
738328.56968608684837818146,-2.01869767347229,-9.84730572425509,336.42089093702
738328.56968617730308324099,-2.00638854131698,-9.77345093132318,336.470127465641
738328.56968626764137297869,-2.00638854131698,-9.76114179916786,336.519363994263
738328.56968635809607803822,-1.99407940916166,-9.73652353485722,336.371654408399
738328.56968644855078309774,-1.94484288054038,-9.76114179916786,336.396272672709
738328.56968653900548815727,-2.03100680562761,-9.76114179916786,336.519363994263
738328.56968662946019321680,-2.10486159855953,-9.85961485641041,336.556291390728
738328.56968671991489827633,-2.03100680562761,-9.73652353485722,336.494745729952
738328.56968681025318801403,-2.10486159855953,-9.89654225287637,336.543982258573
738328.56968690070789307356,-2.00638854131698,-9.74883266701254,336.617837051505
738328.56968699116259813309,-2.14178899502548,-9.89654225287637,336.568600522884
738328.56968708161730319262,-2.11717073071485,-9.85961485641041,336.494745729952
738328.56968717207200825214,-1.99407940916166,-9.7857600634785,336.568600522884
738328.56968726252671331167,-2.14178899502548,-9.87192398856573,336.568600522884
738328.56968735286500304937,-2.10486159855953,-9.85961485641041,336.531673126418
738328.56968744331970810890,-2.00638854131698,-9.77345093132318,336.60552791935
738328.56968753377441316843,-1.77251503036592,-9.19492172002319,336.642455315816
738328.56968762422911822796,-1.32938627277444,-8.69024730165512,336.273181351156
738328.56968771468382328749,-1.61249631234677,-8.82564775536363,336.223944822535
738328.56968780513852834702,-1.96946114485102,-9.71190527054659,336.383963540554
738328.56968789547681808472,-2.1540981271808,-9.88423312072105,336.531673126418
738328.56968798593152314425,-2.04331593778293,-9.79806919563382,336.445509201331
738328.56968807638622820377,-2.06793420209357,-9.82268745994446,336.507054862107
738328.56968816684093326330,-2.11717073071485,-9.88423312072105,336.482436597797
738328.56968825729563832283,-2.06793420209357,-9.79806919563382,336.482436597797
738328.56968834775034338236,-2.03100680562761,-9.76114179916786,336.507054862107
738328.56968843808863312006,-2.09255246640421,-9.79806919563382,336.445509201331
738328.56968852854333817959,-2.11717073071485,-9.93346964934233,336.507054862107
738328.56968861899804323912,-2.03100680562761,-9.7857600634785,336.494745729952
738328.56968870945274829865,-2.06793420209357,-9.77345093132318,336.494745729952
738328.56968879990745335817,-2.06793420209357,-9.77345093132318,336.470127465641
738328.56968889036215841770,-2.09255246640421,-9.79806919563382,336.470127465641
738328.56968898070044815540,-2.05562506993825,-9.76114179916786,336.519363994263
738328.56968907115515321493,-1.99407940916166,-9.73652353485722,336.507054862107
738328.56968916160985827446,-2.06793420209357,-9.82268745994446,336.531673126418
738328.56968925206456333399,-2.05562506993825,-9.69959613839127,336.580909655039
738328.56968934251926839352,-2.05562506993825,-9.82268745994446,336.60552791935
738328.56968943297397345304,-2.10486159855953,-9.85961485641041,336.494745729952
738328.56968952331226319075,-2.12947986287016,-9.81037832778914,336.556291390728
738328.56968961376696825027,-1.98177027700634,-9.67497787408063,336.531673126418
738328.56968970422167330980,-2.03100680562761,-9.73652353485722,336.543982258573
738328.56968979467637836933,-2.03100680562761,-9.73652353485722,336.60552791935
738328.56968988513108342886,-2.05562506993825,-9.77345093132318,336.383963540554
738328.56968997558578848839,-2.05562506993825,-9.71190527054659,336.396272672709
738328.56969006592407822609,-2.10486159855953,-9.87192398856573,336.580909655039
738328.56969015637878328562,-1.98177027700634,-9.68728700623595,336.60552791935
738328.56969024683348834515,-2.09255246640421,-9.7857600634785,336.617837051505
738328.56969033728819340467,-2.06793420209357,-9.69959613839127,336.642455315816
738328.56969042774289846420,-2.01869767347229,-9.66266874192531,336.519363994263
738328.56969051808118820190,-2.03100680562761,-9.71190527054659,336.617837051505
738328.56969060853589326143,-2.09255246640421,-9.76114179916786,336.667073580126
738328.56969069899059832096,-2.10486159855953,-9.7857600634785,336.556291390728
738328.56969078944530338049,-2.04331593778293,-9.72421440270191,336.580909655039
738328.56969087990000844002,-1.98177027700634,-9.63805047761467,336.617837051505
738328.56969097035471349955,-2.05562506993825,-9.68728700623595,336.63014618366
738328.56969106069300323725,-2.06793420209357,-9.89654225287637,336.531673126418
738328.56969115114770829678,-1.96946114485102,-9.62574134545936,336.580909655039
738328.56969124160241335630,-2.1540981271808,-9.82268745994446,336.580909655039
738328.56969133205711841583,-1.90791548407442,-9.63805047761467,336.494745729952
738328.56969142251182347536,-2.10486159855953,-9.88423312072105,336.556291390728
738328.56969151296652853489,-2.10486159855953,-9.83499659209978,336.568600522884
738328.56969160330481827259,-2.09255246640421,-9.83499659209978,336.556291390728
738328.56969169375952333212,-1.99407940916166,-9.74883266701254,336.482436597797
738328.56969178421422839165,-2.00638854131698,-9.79806919563382,336.568600522884
738328.56969187466893345118,-2.10486159855953,-9.81037832778914,336.617837051505
738328.56969196512363851070,-1.99407940916166,-9.7857600634785,336.470127465641
738328.56969205557834357023,-2.06793420209357,-9.87192398856573,336.568600522884
738328.56969214591663330793,-2.08024333424889,-9.7857600634785,336.568600522884
738328.56969223637133836746,-1.99407940916166,-9.71190527054659,336.556291390728
738328.56969232682604342699,-2.03100680562761,-9.82268745994446,336.482436597797
738328.56969241728074848652,-2.01869767347229,-9.74883266701254,336.556291390728
738328.56969250773545354605,-2.08024333424889,-9.82268745994446,336.556291390728
738328.56969259819015860558,-2.01869767347229,-9.7857600634785,336.519363994263
738328.56969268852844834328,-1.92022461622974,-9.63805047761467,336.494745729952
738328.56969277898315340281,-2.12947986287016,-9.87192398856573,336.568600522884
738328.56969286943785846233,-2.05562506993825,-9.83499659209978,336.580909655039
738328.56969295989256352186,-1.9571520126957,-9.73652353485722,336.482436597797
738328.56969305034726858139,-1.96946114485102,-9.67497787408063,336.531673126418
738328.56969314080197364092,-2.03100680562761,-9.77345093132318,336.519363994263
738328.56969323114026337862,-2.08024333424889,-9.81037832778914,336.408581804865
738328.56969332159496843815,-2.03100680562761,-9.82268745994446,336.445509201331
738328.56969341204967349768,-2.05562506993825,-9.82268745994446,336.359345276243
738328.56969350250437855721,-2.09255246640421,-9.7857600634785,336.273181351156
738328.56969359295908361673,-1.9571520126957,-9.76114179916786,336.408581804865
738328.56969368341378867626,-2.00638854131698,-9.74883266701254,336.42089093702
738328.56969377375207841396,-2.14178899502548,-9.87192398856573,336.494745729952
738328.56969386420678347349,-2.04331593778293,-9.7857600634785,336.531673126418
738328.56969395466148853302,-2.05562506993825,-9.79806919563382,336.519363994263
738328.56969404511619359255,-2.03100680562761,-9.81037832778914,336.531673126418
738328.56969413557089865208,-2.09255246640421,-9.84730572425509,336.494745729952
738328.56969422602560371161,-1.87098808760847,-9.61343221330404,336.433200069175
738328.56969431636389344931,-2.11717073071485,-9.89654225287637,336.445509201331
738328.56969440681859850883,-2.1540981271808,-9.85961485641041,336.445509201331
738328.56969449727330356836,-2.06793420209357,-9.87192398856573,336.457818333486
738328.56969458772800862789,-2.04331593778293,-9.84730572425509,336.507054862107
738328.56969467818271368742,-2.00638854131698,-9.74883266701254,336.531673126418
738328.56969476863741874695,-2.08024333424889,-9.82268745994446,336.543982258573
738328.56969485897570848465,-2.03100680562761,-9.79806919563382,336.556291390728
738328.56969494943041354418,-2.08024333424889,-9.81037832778914,336.482436597797
738328.56969503988511860371,-2.1540981271808,-9.94577878149764,336.543982258573
738328.56969513033982366323,-2.01869767347229,-9.77345093132318,336.580909655039
738328.56969522079452872276,-2.06793420209357,-9.83499659209978,336.494745729952
738328.56969531113281846046,-1.93253374838506,-9.65035960976999,336.531673126418
738328.56969540158752351999,-2.04331593778293,-9.81037832778914,336.568600522884
738328.56969549204222857952,-2.08024333424889,-9.84730572425509,336.531673126418
738328.56969558249693363905,-2.04331593778293,-9.83499659209978,336.470127465641
738328.56969567295163869858,-2.11717073071485,-9.90885138503169,336.519363994263
738328.56969576340634375811,-2.03100680562761,-9.81037832778914,336.494745729952
738328.56969585374463349581,-1.89560635191911,-9.65035960976999,336.396272672709
738328.56969594419933855534,-1.96946114485102,-9.77345093132318,336.482436597797
738328.56969603465404361486,-1.98177027700634,-9.76114179916786,336.543982258573
738328.56969612510874867439,-2.09255246640421,-9.83499659209978,336.494745729952
738328.56969621556345373392,-2.04331593778293,-9.76114179916786,336.531673126418
738328.56969630601815879345,-2.06793420209357,-9.88423312072105,336.543982258573
738328.56969639635644853115,-2.06793420209357,-9.82268745994446,336.556291390728
738328.56969648681115359068,-2.06793420209357,-9.87192398856573,336.507054862107
738328.56969657726585865021,-1.98177027700634,-9.72421440270191,336.507054862107
738328.56969666772056370974,-2.08024333424889,-9.81037832778914,336.433200069175
738328.56969675817526876926,-2.03100680562761,-9.76114179916786,336.470127465641
738328.56969684862997382879,-2.08024333424889,-9.85961485641041,336.433200069175
738328.56969693896826356649,-2.16640725933612,-9.88423312072105,336.371654408399
738328.56969702942296862602,-2.05562506993825,-9.76114179916786,336.322417879777
738328.56969711987767368555,-2.05562506993825,-9.89654225287637,336.482436597797
738328.56969721033237874508,-1.83406069114251,-9.35494043804234,336.531673126418
738328.56969730078708380461,-1.20629495122125,-8.4809920550147,336.260872219001
738328.56969739124178886414,-1.51402325510422,-8.6779381694998,336.187017426069
738328.56969748158007860184,-1.94484288054038,-9.67497787408063,336.334727011933
