time_dn,ecg_projection_ll_ra_mV,ecg_projection_la_ra_mV,ecg_projection_vx_rl_mV
738328.54379180865362286568,-4.1727958006531,-9.82268745994446,338.193405967386
738328.54379189910832792521,-4.1727958006531,-9.85961485641041,338.242642496007
738328.54379198944661766291,-4.29588712220628,-9.94577878149764,338.242642496007
738328.54379207990132272243,-4.24665059358501,-9.90885138503169,338.131860306609
738328.54379217035602778196,-4.27126885789565,-9.94577878149764,338.193405967386
738328.54379226069431751966,-4.27126885789565,-9.90885138503169,338.021078117211
738328.54379235114902257919,-4.19741406496373,-9.84730572425509,338.045696381522
738328.54379244160372763872,-4.14817753634246,-9.87192398856573,338.094932910143
738328.54379253205843269825,-4.14817753634246,-9.7857600634785,338.131860306609
738328.54379262239672243595,-4.28357799005097,-9.93346964934233,338.131860306609
738328.54379271285142749548,-4.18510493280842,-9.87192398856573,338.119551174454
738328.54379280330613255501,-4.20972319711905,-9.84730572425509,338.193405967386
738328.54379289364442229271,-4.18510493280842,-9.88423312072105,338.242642496007
738328.54379298409912735224,-4.27126885789565,-9.97039704580828,338.205715099541
738328.54379307455383241177,-4.23434146142969,-9.90885138503169,338.205715099541
738328.54379316500853747129,-4.19741406496373,-9.85961485641041,338.242642496007
738328.54379325534682720900,-4.1727958006531,-9.87192398856573,338.230333363852
738328.54379334580153226852,-4.18510493280842,-9.87192398856573,338.107242042299
738328.54379343625623732805,-4.27126885789565,-9.94577878149764,338.218024231697
738328.54379352659452706575,-4.09894100772118,-9.74883266701254,338.242642496007
738328.54379361704923212528,-4.13586840418714,-9.82268745994446,338.168787703075
738328.54379370750393718481,-4.1727958006531,-9.84730572425509,338.218024231697
738328.54379379784222692251,-4.3081962543616,-9.9827061779636,338.205715099541
738328.54379388829693198204,-4.27126885789565,-9.92116051718701,338.205715099541
738328.54379397875163704157,-4.19741406496373,-9.83499659209978,338.193405967386
738328.54379406920634210110,-4.24665059358501,-9.93346964934233,338.205715099541
738328.54379415954463183880,-4.13586840418714,-9.77345093132318,338.242642496007
738328.54379424999933689833,-4.24665059358501,-9.90885138503169,338.144169438765
738328.54379434045404195786,-4.27126885789565,-9.94577878149764,338.230333363852
738328.54379443079233169556,-4.1727958006531,-9.83499659209978,338.254951628162
738328.54379452124703675508,-4.23434146142969,-9.89654225287637,338.15647857092
738328.54379461170174181461,-4.32050538651692,-9.9827061779636,338.15647857092
738328.54379470215644687414,-4.28357799005097,-9.93346964934233,338.218024231697
738328.54379479249473661184,-4.03739534694459,-9.73652353485722,338.254951628162
738328.54379488294944167137,-4.20972319711905,-9.85961485641041,338.144169438765
738328.54379497340414673090,-4.3697419151382,-10.0073244422742,338.193405967386
738328.54379506374243646860,-4.32050538651692,-10.0073244422742,338.230333363852
738328.54379515419714152813,-4.27126885789565,-9.93346964934233,338.254951628162
738328.54379524465184658766,-4.18510493280842,-9.82268745994446,338.15647857092
738328.54379533499013632536,-4.08663187556586,-9.73652353485722,338.15647857092
738328.54379542544484138489,-4.28357799005097,-9.95808791365296,338.205715099541
738328.54379551589954644442,-4.33281451867224,-10.0073244422742,338.144169438765
738328.54379560635425150394,-4.29588712220628,-9.94577878149764,338.168787703075
738328.54379569669254124165,-4.20972319711905,-9.88423312072105,338.119551174454
738328.54379578714724630117,-4.14817753634246,-9.81037832778914,338.021078117211
738328.54379587760195136070,-4.1112501398765,-9.82268745994446,337.996459852901
738328.54379596794024109840,-4.27126885789565,-10.0073244422742,338.082623777988
738328.54379605839494615793,-4.20972319711905,-9.88423312072105,338.058005513677
738328.54379614884965121746,-4.18510493280842,-9.88423312072105,338.094932910143
738328.54379623918794095516,-4.1112501398765,-9.84730572425509,338.082623777988
738328.54379632964264601469,-4.18510493280842,-9.85961485641041,338.131860306609
738328.54379642009735107422,-4.19741406496373,-9.84730572425509,338.144169438765
738328.54379651055205613375,-4.29588712220628,-9.95808791365296,338.144169438765
738328.54379660089034587145,-4.25895972574033,-9.94577878149764,338.15647857092
738328.54379669134505093098,-4.24665059358501,-9.90885138503169,338.230333363852
738328.54379678179975599051,-4.24665059358501,-9.87192398856573,338.230333363852
738328.54379687213804572821,-4.19741406496373,-9.81037832778914,338.267260760318
738328.54379696259275078773,-4.12355927203182,-9.76114179916786,338.242642496007
738328.54379705304745584726,-4.19741406496373,-9.87192398856573,338.144169438765
738328.54379714350216090679,-4.32050538651692,-9.94577878149764,338.144169438765
738328.54379723384045064449,-4.23434146142969,-9.94577878149764,338.15647857092
738328.54379732429515570402,-4.19741406496373,-9.84730572425509,338.181096835231
738328.54379741474986076355,-3.77890357168289,-9.15799432355724,338.082623777988
738328.54379750508815050125,-3.49579353211056,-8.7394838302764,337.848750267037
738328.54379759554285556078,-3.87737662892544,-9.26877651295511,337.934914192124
738328.54379768599756062031,-4.3697419151382,-10.0811792352062,338.021078117211
738328.54379777633585035801,-4.32050538651692,-9.9827061779636,338.181096835231
738328.54379786679055541754,-4.22203232927437,-9.90885138503169,338.218024231697
738328.54379795724526047707,-4.18510493280842,-9.79806919563382,338.193405967386
738328.54379804769996553659,-4.1727958006531,-9.85961485641041,338.205715099541
738328.54379813803825527430,-4.27126885789565,-9.88423312072105,338.254951628162
738328.54379822849296033382,-4.24665059358501,-9.90885138503169,338.242642496007
738328.54379831894766539335,-4.18510493280842,-9.82268745994446,338.15647857092
738328.54379840928595513105,-4.22203232927437,-9.87192398856573,338.230333363852
738328.54379849974066019058,-4.3081962543616,-9.92116051718701,338.254951628162
738328.54379859019536525011,-4.18510493280842,-9.83499659209978,338.181096835231
738328.54379868053365498781,-4.18510493280842,-9.79806919563382,338.267260760318
738328.54379877098836004734,-4.22203232927437,-9.81037832778914,338.230333363852
738328.54379886144306510687,-4.32050538651692,-10.0319427065849,338.242642496007
738328.54379895189777016640,-4.27126885789565,-9.90885138503169,338.15647857092
738328.54379904223605990410,-4.25895972574033,-9.85961485641041,338.230333363852
738328.54379913269076496363,-4.23434146142969,-9.83499659209978,338.304188156784
738328.54379922314547002316,-4.23434146142969,-9.88423312072105,338.168787703075
738328.54379931348375976086,-4.20972319711905,-9.82268745994446,338.119551174454
738328.54379940393846482038,-4.22203232927437,-9.82268745994446,338.033387249367
738328.54379949439316987991,-4.20972319711905,-9.83499659209978,338.181096835231
738328.54379958484787493944,-4.20972319711905,-9.81037832778914,338.131860306609
738328.54379967518616467714,-4.20972319711905,-9.7857600634785,338.193405967386
738328.54379976564086973667,-4.12355927203182,-9.77345093132318,338.218024231697
738328.54379985609557479620,-3.95123142185736,-9.55188655252744,338.242642496007
738328.54379994643386453390,-4.3697419151382,-9.93346964934233,338.230333363852
738328.54380003688856959343,-4.3081962543616,-9.87192398856573,338.230333363852
738328.54380012734327465296,-4.24665059358501,-9.7857600634785,338.205715099541
738328.54380021768156439066,-4.22203232927437,-9.82268745994446,338.218024231697
738328.54380030813626945019,-4.19741406496373,-9.74883266701254,338.205715099541
738328.54380039859097450972,-4.16048666849778,-9.68728700623595,338.230333363852
738328.54380048904567956924,-4.22203232927437,-9.81037832778914,338.218024231697
738328.54380057938396930695,-4.22203232927437,-9.7857600634785,338.218024231697
738328.54380066983867436647,-4.18510493280842,-9.74883266701254,338.218024231697
738328.54380076029337942600,-3.96354055401268,-9.53957742037212,338.205715099541
738328.54380085063166916370,-4.28357799005097,-9.85961485641041,338.254951628162
738328.54380094108637422323,-4.3081962543616,-9.92116051718701,338.267260760318
738328.54380103154107928276,-4.25895972574033,-9.88423312072105,338.267260760318
738328.54380112199578434229,-4.27126885789565,-9.93346964934233,338.205715099541
738328.54380121233407407999,-4.1727958006531,-9.79806919563382,338.205715099541
738328.54380130278877913952,-4.24665059358501,-9.92116051718701,338.218024231697
738328.54380139324348419905,-4.18510493280842,-9.82268745994446,338.193405967386
738328.54380148358177393675,-4.22203232927437,-9.84730572425509,338.205715099541
738328.54380157403647899628,-4.33281451867224,-10.0319427065849,338.267260760318
738328.54380166449118405581,-4.28357799005097,-9.93346964934233,338.242642496007
738328.54380175482947379351,-4.23434146142969,-9.90885138503169,338.205715099541
738328.54380184528417885303,-4.22203232927437,-9.87192398856573,338.254951628162
738328.54380193573888391256,-4.25895972574033,-9.95808791365296,338.242642496007
738328.54380202619358897209,-4.28357799005097,-9.92116051718701,338.205715099541
738328.54380211653187870979,-4.14817753634246,-9.81037832778914,338.254951628162
738328.54380220698658376932,-4.14817753634246,-9.82268745994446,338.254951628162
738328.54380229744128882885,-4.25895972574033,-9.92116051718701,338.181096835231
738328.54380238777957856655,-4.34512365082756,-9.99501531011892,338.218024231697
738328.54380247823428362608,-4.25895972574033,-9.97039704580828,338.218024231697
738328.54380256868898868561,-4.24665059358501,-9.94577878149764,338.205715099541
738328.54380265902727842331,-4.22203232927437,-9.87192398856573,338.131860306609
738328.54380274948198348284,-4.19741406496373,-9.85961485641041,338.131860306609
738328.54380283993668854237,-4.19741406496373,-9.89654225287637,338.070314645833
738328.54380293039139360189,-4.25895972574033,-9.92116051718701,337.984150720745
738328.54380302072968333960,-4.22203232927437,-9.88423312072105,338.181096835231
738328.54380311118438839912,-4.23434146142969,-9.92116051718701,338.242642496007
738328.54380320163909345865,-4.22203232927437,-9.88423312072105,338.267260760318
738328.54380329197738319635,-4.23434146142969,-9.87192398856573,338.168787703075
738328.54380338243208825588,-4.23434146142969,-9.90885138503169,338.230333363852
738328.54380347288679331541,-4.24665059358501,-9.88423312072105,338.267260760318
738328.54380356334149837494,-4.22203232927437,-9.94577878149764,338.15647857092
738328.54380365367978811264,-4.1727958006531,-9.7857600634785,338.131860306609
738328.54380374413449317217,-4.24665059358501,-9.93346964934233,338.168787703075
738328.54380383458919823170,-4.27126885789565,-9.92116051718701,338.144169438765
738328.54380392492748796940,-4.20972319711905,-9.87192398856573,338.131860306609
738328.54380401538219302893,-4.18510493280842,-9.85961485641041,338.168787703075
738328.54380410583689808846,-4.32050538651692,-9.9827061779636,338.193405967386
738328.54380419617518782616,-4.27126885789565,-9.88423312072105,338.119551174454
738328.54380428662989288568,-4.22203232927437,-9.95808791365296,338.181096835231
738328.54380437708459794521,-4.23434146142969,-9.99501531011892,338.205715099541
738328.54380446753930300474,-4.27126885789565,-9.90885138503169,338.131860306609
738328.54380455787759274244,-4.29588712220628,-9.95808791365296,338.205715099541
738328.54380464833229780197,-4.14817753634246,-9.77345093132318,338.230333363852
738328.54380473878700286150,-4.27126885789565,-9.99501531011892,338.254951628162
738328.54380482912529259920,-4.24665059358501,-9.88423312072105,338.15647857092
738328.54380491957999765873,-4.16048666849778,-9.84730572425509,338.168787703075
738328.54380501003470271826,-4.34512365082756,-10.0319427065849,338.181096835231
738328.54380510037299245596,-4.20972319711905,-9.89654225287637,338.181096835231
738328.54380519082769751549,-4.22203232927437,-9.89654225287637,338.181096835231
738328.54380528128240257502,-4.1112501398765,-9.85961485641041,338.021078117211
738328.54380537173710763454,-4.07432274341055,-9.7857600634785,338.168787703075
738328.54380546207539737225,-4.28357799005097,-9.94577878149764,338.181096835231
738328.54380555253010243177,-4.34512365082756,-10.0319427065849,338.218024231697
738328.54380564298480749130,-4.24665059358501,-9.92116051718701,338.144169438765
738328.54380573332309722900,-4.27126885789565,-9.97039704580828,338.242642496007
738328.54380582377780228853,-4.25895972574033,-9.89654225287637,338.254951628162
738328.54380591423250734806,-4.32050538651692,-9.94577878149764,338.218024231697
738328.54380600468721240759,-4.27126885789565,-9.9827061779636,338.254951628162
738328.54380609502550214529,-4.14817753634246,-9.76114179916786,338.254951628162
738328.54380618548020720482,-4.29588712220628,-9.97039704580828,338.279569892473
738328.54380627593491226435,-4.33281451867224,-9.9827061779636,338.242642496007
738328.54380636627320200205,-4.33281451867224,-9.94577878149764,338.193405967386
738328.54380645672790706158,-4.29588712220628,-9.99501531011892,338.107242042299
738328.54380654718261212111,-4.22203232927437,-9.85961485641041,338.328806421094
738328.54380663752090185881,-3.87737662892544,-9.23184911648915,338.168787703075
738328.54380672797560691833,-3.4588661356446,-8.6779381694998,337.799513738416
738328.54380681843031197786,-3.93892228970204,-9.37955870235298,337.910295927814
738328.54380690888501703739,-4.44359670807011,-10.1550340281381,338.033387249367
738328.54380699922330677509,-4.32050538651692,-10.0073244422742,338.119551174454
738328.54380708967801183462,-4.25895972574033,-9.93346964934233,338.119551174454
738328.54380718013271689415,-4.23434146142969,-9.88423312072105,338.107242042299
738328.54380727047100663185,-4.28357799005097,-9.93346964934233,338.242642496007
738328.54380736092571169138,-4.35743278298288,-10.0073244422742,338.316497288939
738328.54380745138041675091,-4.19741406496373,-9.84730572425509,338.279569892473
738328.54380754183512181044,-4.33281451867224,-9.94577878149764,338.230333363852
738328.54380763217341154814,-4.28357799005097,-9.84730572425509,338.279569892473
738328.54380772262811660767,-4.19741406496373,-9.92116051718701,338.193405967386
738328.54380781308282166719,-4.35743278298288,-9.97039704580828,338.168787703075
738328.54380790342111140490,-4.3081962543616,-9.89654225287637,338.218024231697
738328.54380799387581646442,-4.3697419151382,-10.0196335744296,338.218024231697
738328.54380808433052152395,-4.32050538651692,-9.92116051718701,338.168787703075
738328.54380817466881126165,-4.25895972574033,-9.89654225287637,338.254951628162
738328.54380826512351632118,-4.18510493280842,-9.77345093132318,338.205715099541
738328.54380835557822138071,-4.38205104729352,-9.94577878149764,338.218024231697
738328.54380844603292644024,-4.34512365082756,-9.9827061779636,338.218024231697
738328.54380853637121617794,-4.29588712220628,-9.92116051718701,338.205715099541
738328.54380862682592123747,-4.20972319711905,-9.79806919563382,338.254951628162
738328.54380871728062629700,-4.32050538651692,-9.90885138503169,338.230333363852
738328.54380880761891603470,-4.16048666849778,-9.76114179916786,338.218024231697
738328.54380889807362109423,-4.20972319711905,-9.7857600634785,338.205715099541
738328.54380898852832615376,-4.34512365082756,-9.95808791365296,338.205715099541
738328.54380907886661589146,-4.24665059358501,-9.79806919563382,338.242642496007
738328.54380916932132095098,-4.20972319711905,-9.7857600634785,338.254951628162
738328.54380925977602601051,-4.38205104729352,-9.92116051718701,338.316497288939
738328.54380935023073107004,-4.24665059358501,-9.77345093132318,338.316497288939
738328.54380944056902080774,-4.01277708263395,-9.61343221330404,338.291879024628
738328.54380953102372586727,-4.43128757591479,-9.93346964934233,338.291879024628
738328.54380962147843092680,-4.32050538651692,-9.83499659209978,338.291879024628
738328.54380971181672066450,-4.38205104729352,-9.92116051718701,338.267260760318
738328.54380980227142572403,-4.28357799005097,-9.82268745994446,338.205715099541
738328.54380989272613078356,-4.19741406496373,-9.81037832778914,338.070314645833
738328.54380998318083584309,-4.27126885789565,-9.87192398856573,338.094932910143
738328.54381007351912558079,-4.32050538651692,-9.89654225287637,338.267260760318
738328.54381016397383064032,-4.23434146142969,-9.88423312072105,338.205715099541
738328.54381025442853569984,-3.97584968616799,-9.5888139489934,338.267260760318
738328.54381034476682543755,-4.38205104729352,-10.0319427065849,338.218024231697
738328.54381043522153049707,-4.38205104729352,-10.0442518387402,338.15647857092
738328.54381052567623555660,-4.34512365082756,-9.97039704580828,338.267260760318
738328.54381061601452529430,-4.32050538651692,-9.97039704580828,338.267260760318
738328.54381070646923035383,-4.24665059358501,-9.89654225287637,338.181096835231
738328.54381079692393541336,-4.20972319711905,-9.87192398856573,338.267260760318
738328.54381088737864047289,-4.27126885789565,-9.95808791365296,338.242642496007
738328.54381097771693021059,-4.23434146142969,-9.87192398856573,338.242642496007
738328.54381106817163527012,-4.28357799005097,-9.93346964934233,338.193405967386
738328.54381115862634032965,-4.39436017944884,-10.0442518387402,338.218024231697
738328.54381124896463006735,-4.33281451867224,-9.95808791365296,338.242642496007
738328.54381133941933512688,-4.32050538651692,-9.9827061779636,338.15647857092
738328.54381142987404018641,-4.23434146142969,-9.85961485641041,338.254951628162
738328.54381152021232992411,-4.3697419151382,-10.0688701030508,338.181096835231
738328.54381161066703498363,-4.28357799005097,-9.95808791365296,338.094932910143
738328.54381170112174004316,-4.25895972574033,-9.88423312072105,338.144169438765
738328.54381179157644510269,-4.23434146142969,-9.89654225287637,338.144169438765
738328.54381188191473484039,-4.23434146142969,-9.89654225287637,338.144169438765
738328.54381197236943989992,-4.24665059358501,-9.89654225287637,338.082623777988
738328.54381206282414495945,-4.33281451867224,-9.97039704580828,338.205715099541
738328.54381215316243469715,-4.33281451867224,-10.0196335744296,338.218024231697
738328.54381224361713975668,-4.20972319711905,-9.84730572425509,338.218024231697
738328.54381233407184481621,-4.19741406496373,-9.85961485641041,338.193405967386
738328.54381242452654987574,-4.34512365082756,-10.0196335744296,338.254951628162
738328.54381251486483961344,-4.27126885789565,-9.93346964934233,338.168787703075
738328.54381260531954467297,-4.33281451867224,-9.94577878149764,338.242642496007
738328.54381269577424973249,-4.28357799005097,-9.97039704580828,338.205715099541
738328.54381278611253947020,-4.27126885789565,-9.89654225287637,338.181096835231
738328.54381287656724452972,-4.24665059358501,-9.93346964934233,338.15647857092
738328.54381296702194958925,-4.25895972574033,-9.93346964934233,338.144169438765
738328.54381305736023932695,-4.39436017944884,-10.0442518387402,338.144169438765
738328.54381314781494438648,-4.33281451867224,-10.0196335744296,338.181096835231
738328.54381323826964944601,-4.27126885789565,-9.90885138503169,338.15647857092
738328.54381332872435450554,-4.25895972574033,-9.92116051718701,338.131860306609
738328.54381341906264424324,-4.32050538651692,-9.9827061779636,337.959532456435
738328.54381350951734930277,-4.29588712220628,-9.93346964934233,338.045696381522
738328.54381359997205436230,-4.16048666849778,-9.89654225287637,338.131860306609
738328.54381369031034410000,-4.27126885789565,-9.89654225287637,338.107242042299
738328.54381378076504915953,-4.25895972574033,-9.92116051718701,338.193405967386
738328.54381387121975421906,-4.32050538651692,-9.99501531011892,338.242642496007
738328.54381396167445927858,-4.38205104729352,-10.0811792352062,338.168787703075
738328.54381405201274901628,-4.28357799005097,-9.97039704580828,338.119551174454
738328.54381414246745407581,-4.22203232927437,-9.94577878149764,338.144169438765
738328.54381423292215913534,-4.22203232927437,-9.90885138503169,338.193405967386
738328.54381432326044887304,-4.22203232927437,-9.92116051718701,338.070314645833
738328.54381441371515393257,-4.12355927203182,-9.81037832778914,338.181096835231
738328.54381450416985899210,-4.13586840418714,-9.79806919563382,338.168787703075
738328.54381459450814872980,-4.33281451867224,-10.0073244422742,338.144169438765
738328.54381468496285378933,-4.38205104729352,-10.0442518387402,338.242642496007
738328.54381477541755884886,-4.3081962543616,-9.94577878149764,338.230333363852
738328.54381486587226390839,-4.35743278298288,-10.0073244422742,338.119551174454
738328.54381495621055364609,-4.35743278298288,-10.0442518387402,338.131860306609
738328.54381504666525870562,-4.33281451867224,-9.9827061779636,338.144169438765
738328.54381513711996376514,-4.25895972574033,-9.92116051718701,338.15647857092
738328.54381522745825350285,-4.3081962543616,-9.99501531011892,338.107242042299
738328.54381531791295856237,-4.33281451867224,-9.95808791365296,338.205715099541
738328.54381540836766362190,-4.27126885789565,-9.99501531011892,338.242642496007
738328.54381549870595335960,-4.22203232927437,-9.81037832778914,338.242642496007
738328.54381558916065841913,-3.79121270383821,-9.1333760592466,338.242642496007
738328.54381567961536347866,-3.54503006073183,-8.78872035889767,337.934914192124
738328.54381577007006853819,-3.77890357168289,-9.09644866278064,337.947223324279
738328.54381586040835827589,-4.32050538651692,-10.0688701030508,337.947223324279
738328.54381595086306333542,-4.45590584022543,-10.1673431602934,338.205715099541
738328.54381604131776839495,-4.35743278298288,-10.0196335744296,338.119551174454
738328.54381613165605813265,-4.29588712220628,-9.9827061779636,338.094932910143
738328.54381622211076319218,-4.29588712220628,-9.97039704580828,338.15647857092
738328.54381631256546825171,-4.33281451867224,-9.9827061779636,338.15647857092
738328.54381640302017331123,-4.3081962543616,-9.94577878149764,338.218024231697
738328.54381649335846304893,-4.3081962543616,-9.94577878149764,338.205715099541
738328.54381658381316810846,-4.29588712220628,-9.94577878149764,338.119551174454
738328.54381667426787316799,-4.18510493280842,-9.83499659209978,338.193405967386
738328.54381676460616290569,-4.29588712220628,-9.97039704580828,338.205715099541
738328.54381685506086796522,-4.33281451867224,-9.95808791365296,338.242642496007
738328.54381694551557302475,-4.27126885789565,-9.89654225287637,338.070314645833
738328.54381703585386276245,-4.18510493280842,-9.85961485641041,338.131860306609
738328.54381712630856782198,-4.3697419151382,-10.0073244422742,338.267260760318
738328.54381721676327288151,-4.32050538651692,-9.9827061779636,338.168787703075
738328.54381730721797794104,-4.28357799005097,-9.87192398856573,338.267260760318
738328.54381739755626767874,-4.27126885789565,-9.92116051718701,338.279569892473
738328.54381748801097273827,-4.09894100772118,-9.68728700623595,338.267260760318
738328.54381757846567779779,-4.16048666849778,-9.76114179916786,338.131860306609
738328.54381766880396753550,-4.39436017944884,-9.99501531011892,338.168787703075
738328.54381775925867259502,-4.3081962543616,-9.90885138503169,338.205715099541
738328.54381784971337765455,-4.27126885789565,-9.90885138503169,338.242642496007
738328.54381794005166739225,-4.19741406496373,-9.81037832778914,338.193405967386
738328.54381803050637245178,-4.25895972574033,-9.84730572425509,338.267260760318
738328.54381812096107751131,-4.1727958006531,-9.7857600634785,338.279569892473
738328.54381821141578257084,-4.23434146142969,-9.79806919563382,338.168787703075
738328.54381830175407230854,-4.33281451867224,-9.94577878149764,338.279569892473
738328.54381839220877736807,-4.23434146142969,-9.81037832778914,338.291879024628
738328.54381848266348242760,-4.27126885789565,-9.81037832778914,338.316497288939
738328.54381857300177216530,-4.34512365082756,-9.93346964934233,338.242642496007
738328.54381866345647722483,-4.34512365082756,-9.92116051718701,338.279569892473
738328.54381875391118228436,-4.12355927203182,-9.68728700623595,338.267260760318
738328.54381884436588734388,-4.3081962543616,-9.89654225287637,338.230333363852
738328.54381893470417708158,-4.25895972574033,-9.87192398856573,338.279569892473
738328.54381902515888214111,-4.3697419151382,-10.0073244422742,338.267260760318
738328.54381911561358720064,-4.27126885789565,-9.89654225287637,338.218024231697
738328.54381920595187693834,-4.32050538651692,-9.95808791365296,338.230333363852
738328.54381929640658199787,-4.29588712220628,-10.0319427065849,338.242642496007
738328.54381938686128705740,-4.29588712220628,-10.0688701030508,338.205715099541
738328.54381947719957679510,-4.28357799005097,-9.92116051718701,338.168787703075
738328.54381956765428185463,-4.27126885789565,-9.92116051718701,338.218024231697
738328.54381965810898691416,-4.29588712220628,-9.95808791365296,338.254951628162
738328.54381974856369197369,-4.25895972574033,-9.94577878149764,338.267260760318
738328.54381983890198171139,-4.32050538651692,-9.99501531011892,338.254951628162
738328.54381992935668677092,-4.32050538651692,-9.99501531011892,338.168787703075
738328.54382001981139183044,-4.27126885789565,-9.94577878149764,338.205715099541
738328.54382011014968156815,-4.23434146142969,-9.93346964934233,338.254951628162
738328.54382020060438662767,-4.1727958006531,-9.82268745994446,338.144169438765
738328.54382029105909168720,-4.32050538651692,-10.0688701030508,338.218024231697
738328.54382038151379674673,-4.35743278298288,-10.0319427065849,338.193405967386
738328.54382047185208648443,-4.32050538651692,-9.97039704580828,338.021078117211
738328.54382056230679154396,-4.3081962543616,-9.9827061779636,338.045696381522
738328.54382065276149660349,-4.27126885789565,-9.94577878149764,338.15647857092
738328.54382074309978634119,-4.20972319711905,-9.85961485641041,338.144169438765
738328.54382083355449140072,-4.20972319711905,-9.93346964934233,338.168787703075
738328.54382092400919646025,-4.35743278298288,-10.0073244422742,338.15647857092
738328.54382101434748619795,-4.28357799005097,-9.99501531011892,338.181096835231
738328.54382110480219125748,-4.1727958006531,-9.83499659209978,338.144169438765
738328.54382119525689631701,-4.28357799005097,-9.95808791365296,338.205715099541
738328.54382128571160137653,-4.33281451867224,-9.99501531011892,338.107242042299
738328.54382137604989111423,-4.35743278298288,-10.0565609708955,338.218024231697
738328.54382146650459617376,-4.25895972574033,-9.94577878149764,338.218024231697
738328.54382155695930123329,-4.27126885789565,-9.89654225287637,338.230333363852
738328.54382164729759097099,-4.29588712220628,-9.99501531011892,338.205715099541
738328.54382173775229603052,-4.35743278298288,-10.0073244422742,338.119551174454
738328.54382182820700109005,-4.3081962543616,-9.95808791365296,338.193405967386
738328.54382191854529082775,-4.22203232927437,-9.93346964934233,338.218024231697
738328.54382200899999588728,-4.27126885789565,-10.0073244422742,338.230333363852
738328.54382209945470094681,-4.29588712220628,-9.97039704580828,338.193405967386
738328.54382218990940600634,-4.22203232927437,-9.88423312072105,338.230333363852
738328.54382228024769574404,-4.18510493280842,-9.85961485641041,338.254951628162
738328.54382237070240080357,-4.44359670807011,-10.1181066316721,338.15647857092
738328.54382246115710586309,-4.3697419151382,-10.0319427065849,338.230333363852
738328.54382255149539560080,-4.28357799005097,-9.97039704580828,338.230333363852
738328.54382264195010066032,-4.28357799005097,-9.99501531011892,338.193405967386
738328.54382273240480571985,-4.28357799005097,-10.0073244422742,338.144169438765
738328.54382282285951077938,-4.25895972574033,-9.95808791365296,338.193405967386
738328.54382291319780051708,-4.23434146142969,-9.93346964934233,338.168787703075
738328.54382300365250557661,-4.19741406496373,-9.95808791365296,338.119551174454
738328.54382309410721063614,-4.1112501398765,-9.81037832778914,338.168787703075
738328.54382318444550037384,-4.07432274341055,-9.7857600634785,338.082623777988
738328.54382327490020543337,-4.22203232927437,-9.90885138503169,338.144169438765
738328.54382336535491049290,-4.24665059358501,-9.9827061779636,338.107242042299
738328.54382345569320023060,-4.28357799005097,-10.0442518387402,338.094932910143
738328.54382354614790529013,-4.34512365082756,-10.0073244422742,338.131860306609
738328.54382363660261034966,-4.34512365082756,-10.0319427065849,338.119551174454
738328.54382372705731540918,-4.32050538651692,-9.99501531011892,338.119551174454
738328.54382381739560514688,-4.25895972574033,-9.90885138503169,338.205715099541
738328.54382390785031020641,-4.1112501398765,-9.81037832778914,338.279569892473
738328.54382399830501526594,-4.43128757591479,-10.1304157638274,338.107242042299
738328.54382408864330500364,-4.34512365082756,-9.99501531011892,338.070314645833
738328.54382417909801006317,-4.32050538651692,-10.0442518387402,338.218024231697
738328.54382426955271512270,-4.32050538651692,-10.0196335744296,338.254951628162
738328.54382435989100486040,-4.00046795047863,-9.5888139489934,338.230333363852
738328.54382445034570991993,-3.74197617521694,-9.10875779493596,338.107242042299
738328.54382454080041497946,-3.6558122501297,-8.92412081260618,337.897986795658
738328.54382463125512003899,-4.08663187556586,-9.63805047761467,337.984150720745
738328.54382472159340977669,-4.44359670807011,-10.22888882107,338.119551174454
738328.54382481204811483622,-4.3081962543616,-9.99501531011892,338.144169438765
738328.54382490250281989574,-4.22203232927437,-9.9827061779636,338.144169438765
738328.54382499284110963345,-4.25895972574033,-9.9827061779636,338.168787703075
738328.54382508329581469297,-4.24665059358501,-9.87192398856573,338.119551174454
738328.54382517375051975250,-4.35743278298288,-10.0688701030508,338.168787703075
738328.54382526420522481203,-4.29588712220628,-9.97039704580828,338.15647857092
738328.54382535454351454973,-4.29588712220628,-9.95808791365296,338.193405967386
738328.54382544499821960926,-4.18510493280842,-9.85961485641041,338.131860306609
738328.54382553545292466879,-4.22203232927437,-9.94577878149764,338.168787703075
738328.54382562579121440649,-4.19741406496373,-9.85961485641041,338.168787703075
738328.54382571624591946602,-4.29588712220628,-9.94577878149764,338.254951628162
738328.54382580670062452555,-4.40666931160415,-10.0442518387402,338.267260760318
738328.54382589703891426325,-4.33281451867224,-10.0442518387402,338.181096835231
738328.54382598749361932278,-4.28357799005097,-9.94577878149764,338.254951628162
738328.54382607794832438231,-4.27126885789565,-9.89654225287637,338.242642496007
738328.54382616840302944183,-4.27126885789565,-9.90885138503169,338.168787703075
738328.54382625874131917953,-4.25895972574033,-9.94577878149764,338.254951628162
738328.54382634919602423906,-4.08663187556586,-9.72421440270191,338.242642496007
738328.54382643965072929859,-4.20972319711905,-9.85961485641041,338.107242042299
738328.54382652998901903629,-4.38205104729352,-10.0319427065849,338.144169438765
738328.54382662044372409582,-4.28357799005097,-9.89654225287637,338.144169438765
738328.54382671089842915535,-4.29588712220628,-9.94577878149764,338.144169438765
738328.54382680135313421488,-4.27126885789565,-9.87192398856573,338.168787703075
738328.54382689169142395258,-4.24665059358501,-9.87192398856573,338.230333363852
738328.54382698214612901211,-4.1727958006531,-9.83499659209978,338.267260760318
738328.54382707260083407164,-4.14817753634246,-9.73652353485722,338.181096835231
738328.54382716293912380934,-4.18510493280842,-9.7857600634785,338.254951628162
738328.54382725339382886887,-4.35743278298288,-9.9827061779636,338.242642496007
738328.54382734384853392839,-4.33281451867224,-9.92116051718701,338.230333363852
738328.54382743418682366610,-4.27126885789565,-9.85961485641041,338.230333363852
738328.54382752464152872562,-4.27126885789565,-9.85961485641041,338.168787703075
738328.54382761509623378515,-4.18510493280842,-9.79806919563382,338.119551174454
738328.54382770555093884468,-4.03739534694459,-9.71190527054659,338.168787703075
738328.54382779588922858238,-4.33281451867224,-9.95808791365296,338.218024231697
738328.54382788634393364191,-4.28357799005097,-9.90885138503169,338.205715099541
738328.54382797679863870144,-4.29588712220628,-9.94577878149764,338.144169438765
738328.54382806713692843914,-4.18510493280842,-9.89654225287637,338.205715099541
738328.54382815759163349867,-4.29588712220628,-9.92116051718701,338.193405967386
738328.54382824804633855820,-4.1727958006531,-9.94577878149764,338.193405967386
738328.54382833838462829590,-4.39436017944884,-10.0811792352062,338.205715099541
738328.54382842883933335543,-4.28357799005097,-10.0073244422742,338.230333363852
738328.54382851929403841496,-4.33281451867224,-10.0196335744296,338.193405967386
738328.54382860974874347448,-4.29588712220628,-10.0319427065849,338.144169438765
738328.54382870008703321218,-4.22203232927437,-9.90885138503169,338.205715099541
738328.54382879054173827171,-4.18510493280842,-9.87192398856573,338.193405967386
738328.54382888099644333124,-4.20972319711905,-9.92116051718701,338.193405967386
738328.54382897133473306894,-4.27126885789565,-9.97039704580828,338.168787703075
738328.54382906178943812847,-4.32050538651692,-10.0565609708955,338.144169438765
738328.54382915224414318800,-4.29588712220628,-9.97039704580828,338.205715099541
738328.54382924269884824753,-4.23434146142969,-9.9827061779636,338.193405967386
738328.54382933303713798523,-4.28357799005097,-9.94577878149764,338.168787703075
738328.54382942349184304476,-4.25895972574033,-10.0073244422742,338.119551174454
738328.54382951394654810429,-4.24665059358501,-9.92116051718701,338.107242042299
738328.54382960428483784199,-4.23434146142969,-9.92116051718701,338.119551174454
738328.54382969473954290152,-4.25895972574033,-9.93346964934233,338.144169438765
738328.54382978519424796104,-4.25895972574033,-9.9827061779636,338.119551174454
738328.54382987553253769875,-4.25895972574033,-9.97039704580828,338.094932910143
738328.54382996598724275827,-4.22203232927437,-9.88423312072105,338.144169438765
738328.54383005644194781780,-4.24665059358501,-10.0319427065849,338.144169438765
738328.54383014689665287733,-4.19741406496373,-9.89654225287637,338.131860306609
738328.54383023723494261503,-4.18510493280842,-9.93346964934233,338.144169438765
738328.54383032768964767456,-4.25895972574033,-9.94577878149764,338.107242042299
738328.54383041814435273409,-4.28357799005097,-10.0073244422742,338.15647857092
738328.54383050848264247179,-4.27126885789565,-9.99501531011892,338.168787703075
738328.54383059893734753132,-4.13586840418714,-9.81037832778914,338.181096835231
738328.54383068939205259085,-4.14817753634246,-9.79806919563382,338.181096835231
738328.54383077973034232855,-4.3697419151382,-10.0688701030508,338.267260760318
738328.54383087018504738808,-4.19741406496373,-9.92116051718701,338.230333363852
738328.54383096063975244761,-4.18510493280842,-9.89654225287637,338.205715099541
738328.54383105109445750713,-4.41897844375947,-10.0934883673615,338.144169438765
738328.54383114143274724483,-4.23434146142969,-9.93346964934233,337.996459852901
738328.54383123188745230436,-4.3081962543616,-10.0073244422742,338.15647857092
738328.54383132234215736389,-4.24665059358501,-9.94577878149764,338.119551174454
738328.54383141268044710159,-4.14817753634246,-9.83499659209978,338.094932910143
738328.54383150313515216112,-4.35743278298288,-10.1304157638274,338.131860306609
738328.54383159358985722065,-4.32050538651692,-9.9827061779636,338.082623777988
738328.54383168404456228018,-4.23434146142969,-9.9827061779636,338.168787703075
738328.54383177438285201788,-4.23434146142969,-9.9827061779636,338.131860306609
738328.54383186483755707741,-4.24665059358501,-9.95808791365296,338.070314645833
738328.54383195529226213694,-4.06201361125523,-9.79806919563382,338.15647857092
738328.54383204563055187464,-4.19741406496373,-9.89654225287637,338.181096835231
738328.54383213608525693417,-4.33281451867224,-10.0565609708955,338.230333363852
738328.54383222653996199369,-4.29588712220628,-9.97039704580828,338.205715099541
738328.54383231687825173140,-4.34512365082756,-10.0196335744296,338.193405967386
738328.54383240733295679092,-4.23434146142969,-9.93346964934233,338.242642496007
738328.54383249778766185045,-4.14817753634246,-9.92116051718701,338.230333363852
738328.54383258824236690998,-4.32050538651692,-9.97039704580828,338.218024231697
738328.54383267858065664768,-4.33281451867224,-9.99501531011892,338.218024231697
738328.54383276903536170721,-4.40666931160415,-10.0319427065849,338.267260760318
738328.54383285949006676674,-4.24665059358501,-9.90885138503169,338.279569892473
738328.54383294982835650444,-4.35743278298288,-10.0319427065849,338.181096835231
738328.54383304028306156397,-4.28357799005097,-9.95808791365296,338.242642496007
738328.54383313073776662350,-4.28357799005097,-9.95808791365296,338.279569892473
738328.54383322119247168303,-3.86506749677012,-9.26877651295511,338.193405967386
738328.54383331153076142073,-3.61888485366375,-8.82564775536363,337.910295927814
738328.54383340198546648026,-3.93892228970204,-9.30570390942106,337.934914192124
738328.54383349244017153978,-4.40666931160415,-10.2042705567593,337.996459852901
738328.54383358277846127748,-4.38205104729352,-10.0934883673615,338.119551174454
738328.54383367323316633701,-4.32050538651692,-10.0073244422742,338.119551174454
738328.54383376368787139654,-4.24665059358501,-9.90885138503169,338.131860306609
738328.54383385402616113424,-4.39436017944884,-10.0688701030508,338.168787703075
738328.54383394448086619377,-4.24665059358501,-9.84730572425509,338.168787703075
738328.54383403493557125330,-4.29588712220628,-9.92116051718701,338.242642496007
738328.54383412539027631283,-4.32050538651692,-9.95808791365296,338.205715099541
738328.54383421572856605053,-4.32050538651692,-9.93346964934233,338.254951628162
738328.54383430618327111006,-4.27126885789565,-9.85961485641041,338.254951628162
738328.54383439663797616959,-4.29588712220628,-9.87192398856573,338.131860306609
738328.54383448697626590729,-4.38205104729352,-10.0196335744296,338.205715099541
738328.54383457743097096682,-4.27126885789565,-9.88423312072105,338.15647857092
738328.54383466788567602634,-4.32050538651692,-10.0196335744296,338.021078117211
738328.54383475822396576405,-4.32050538651692,-9.87192398856573,338.205715099541
738328.54383484867867082357,-4.34512365082756,-9.89654225287637,338.205715099541
738328.54383493913337588310,-4.20972319711905,-9.7857600634785,338.218024231697
738328.54383502958808094263,-4.25895972574033,-9.85961485641041,338.254951628162
738328.54383511992637068033,-4.45590584022543,-10.0565609708955,338.254951628162
738328.54383521038107573986,-4.3081962543616,-9.87192398856573,338.254951628162
738328.54383530083578079939,-4.33281451867224,-9.89654225287637,338.267260760318
738328.54383539117407053709,-4.28357799005097,-9.85961485641041,338.242642496007
738328.54383548162877559662,-4.32050538651692,-9.85961485641041,338.291879024628
738328.54383557208348065615,-4.29588712220628,-9.90885138503169,338.218024231697
738328.54383566253818571568,-4.19741406496373,-9.71190527054659,338.279569892473
738328.54383575287647545338,-4.33281451867224,-9.87192398856573,338.291879024628
738328.54383584333118051291,-4.35743278298288,-9.87192398856573,338.316497288939
738328.54383593378588557243,-4.35743278298288,-9.84730572425509,338.181096835231
738328.54383602412417531013,-4.27126885789565,-9.77345093132318,338.254951628162
738328.54383611457888036966,-4.28357799005097,-9.76114179916786,338.218024231697
738328.54383620503358542919,-4.32050538651692,-9.82268745994446,338.181096835231
738328.54383629537187516689,-4.38205104729352,-9.89654225287637,338.144169438765
738328.54383638582658022642,-4.34512365082756,-9.85961485641041,338.181096835231
738328.54383647628128528595,-4.32050538651692,-9.7857600634785,338.193405967386
738328.54383656673599034548,-4.3081962543616,-9.83499659209978,338.131860306609
738328.54383665707428008318,-4.28357799005097,-9.83499659209978,338.218024231697
738328.54383674752898514271,-4.23434146142969,-9.77345093132318,338.279569892473
738328.54383683798369020224,-4.34512365082756,-9.92116051718701,338.218024231697
738328.54383692832197993994,-4.3081962543616,-9.87192398856573,338.168787703075
738328.54383701877668499947,-4.35743278298288,-9.90885138503169,338.15647857092
738328.54383710923139005899,-4.3697419151382,-10.0565609708955,338.15647857092
738328.54383719956967979670,-4.33281451867224,-9.89654225287637,338.168787703075
738328.54383729002438485622,-4.39436017944884,-9.95808791365296,338.168787703075
738328.54383738047908991575,-4.33281451867224,-9.92116051718701,338.168787703075
738328.54383747093379497528,-4.38205104729352,-9.94577878149764,338.181096835231
738328.54383756127208471298,-4.41897844375947,-9.97039704580828,338.181096835231
738328.54383765172678977251,-4.40666931160415,-10.0073244422742,338.205715099541
738328.54383774218149483204,-4.38205104729352,-9.95808791365296,338.193405967386
738328.54383783251978456974,-4.3081962543616,-9.90885138503169,338.181096835231
738328.54383792297448962927,-4.41897844375947,-9.95808791365296,338.168787703075
738328.54383801342919468880,-4.38205104729352,-9.95808791365296,338.205715099541
738328.54383810388389974833,-4.33281451867224,-9.87192398856573,338.15647857092
738328.54383819422218948603,-4.3697419151382,-9.89654225287637,338.021078117211
738328.54383828467689454556,-4.23434146142969,-9.81037832778914,338.230333363852
738328.54383837513159960508,-4.3697419151382,-9.93346964934233,338.254951628162
738328.54383846546988934278,-4.49283323669139,-10.0073244422742,338.15647857092
738328.54383855592459440231,-4.33281451867224,-9.89654225287637,338.144169438765
738328.54383864637929946184,-4.41897844375947,-9.97039704580828,338.15647857092
738328.54383873671758919954,-4.40666931160415,-9.94577878149764,338.230333363852
738328.54383882717229425907,-4.33281451867224,-9.89654225287637,338.181096835231
738328.54383891762699931860,-4.46821497238075,-9.94577878149764,338.242642496007
738328.54383900808170437813,-4.29588712220628,-9.79806919563382,338.230333363852
738328.54383909841999411583,-4.3697419151382,-9.93346964934233,338.168787703075
738328.54383918887469917536,-4.45590584022543,-10.0073244422742,338.230333363852
738328.54383927932940423489,-4.3697419151382,-9.92116051718701,338.230333363852
738328.54383936966769397259,-4.45590584022543,-9.95808791365296,338.181096835231
738328.54383946012239903212,-4.34512365082756,-9.87192398856573,338.230333363852
738328.54383955057710409164,-4.35743278298288,-9.88423312072105,338.230333363852
738328.54383964103180915117,-4.46821497238075,-10.0196335744296,338.242642496007
738328.54383973137009888887,-4.39436017944884,-9.9827061779636,338.15647857092
738328.54383982182480394840,-4.39436017944884,-9.92116051718701,338.15647857092
738328.54383991227950900793,-4.27126885789565,-9.81037832778914,338.131860306609
738328.54384000261779874563,-4.28357799005097,-9.82268745994446,338.094932910143
738328.54384009307250380516,-4.35743278298288,-9.92116051718701,338.144169438765
738328.54384018352720886469,-4.46821497238075,-9.9827061779636,338.193405967386
738328.54384027386549860239,-4.33281451867224,-9.84730572425509,338.230333363852
738328.54384036432020366192,-4.35743278298288,-9.93346964934233,338.131860306609
738328.54384045477490872145,-4.43128757591479,-9.95808791365296,338.131860306609
738328.54384054522961378098,-4.52976063315734,-10.0073244422742,338.131860306609
738328.54384063556790351868,-4.46821497238075,-9.95808791365296,338.119551174454
738328.54384072602260857821,-4.41897844375947,-9.90885138503169,338.144169438765
738328.54384081647731363773,-4.45590584022543,-9.94577878149764,338.144169438765
738328.54384090681560337543,-4.45590584022543,-10.0196335744296,338.193405967386
738328.54384099727030843496,-4.45590584022543,-9.88423312072105,338.193405967386
738328.54384108772501349449,-4.41897844375947,-9.89654225287637,338.254951628162
738328.54384117806330323219,-4.43128757591479,-9.93346964934233,338.279569892473
738328.54384126851800829172,-4.3081962543616,-9.71190527054659,338.218024231697
738328.54384135897271335125,-3.88968576108076,-9.04721213415937,337.97184158859
738328.54384144942741841078,-3.85275836461481,-9.1333760592466,337.824132002726
738328.54384153976570814848,-4.27126885789565,-9.92116051718701,337.922605059969
738328.54384163022041320801,-4.51745150100202,-10.2658162175359,337.811822870571
738328.54384172067511826754,-4.49283323669139,-10.0442518387402,338.045696381522
738328.54384181101340800524,-4.44359670807011,-10.0196335744296,338.131860306609
738328.54384190146811306477,-4.41897844375947,-9.89654225287637,338.144169438765
738328.54384199192281812429,-4.43128757591479,-9.97039704580828,338.205715099541
738328.54384208237752318382,-4.46821497238075,-9.89654225287637,338.242642496007
738328.54384217271581292152,-4.45590584022543,-9.92116051718701,338.144169438765
738328.54384226317051798105,-4.45590584022543,-9.89654225287637,338.218024231697
738328.54384235362522304058,-4.38205104729352,-9.83499659209978,338.205715099541
738328.54384244396351277828,-4.40666931160415,-9.84730572425509,338.205715099541
738328.54384253441821783781,-4.51745150100202,-9.95808791365296,338.242642496007
738328.54384262487292289734,-4.48052410453607,-9.95808791365296,338.15647857092
738328.54384271521121263504,-4.41897844375947,-9.84730572425509,338.168787703075
738328.54384280566591769457,-4.40666931160415,-9.83499659209978,338.193405967386
738328.54384289612062275410,-4.29588712220628,-9.73652353485722,338.242642496007
738328.54384298657532781363,-4.55437889746798,-9.9827061779636,338.267260760318
738328.54384307691361755133,-4.52976063315734,-9.95808791365296,338.242642496007
738328.54384316736832261086,-4.48052410453607,-9.89654225287637,338.205715099541
738328.54384325782302767038,-4.41897844375947,-9.85961485641041,338.254951628162
738328.54384334816131740808,-4.43128757591479,-9.83499659209978,338.242642496007
738328.54384343861602246761,-4.43128757591479,-9.84730572425509,338.181096835231
738328.54384352907072752714,-4.39436017944884,-9.7857600634785,338.242642496007
738328.54384361940901726484,-4.39436017944884,-9.79806919563382,338.267260760318
738328.54384370986372232437,-4.40666931160415,-9.7857600634785,338.267260760318
738328.54384380031842738390,-4.3697419151382,-9.76114179916786,338.205715099541
738328.54384389077313244343,-4.39436017944884,-9.77345093132318,338.291879024628
738328.54384398111142218113,-4.43128757591479,-9.77345093132318,338.291879024628
738328.54384407156612724066,-4.40666931160415,-9.77345093132318,338.279569892473
738328.54384416202083230019,-4.38205104729352,-9.69959613839127,338.254951628162
738328.54384425235912203789,-4.39436017944884,-9.77345093132318,338.291879024628
738328.54384434281382709742,-4.3697419151382,-9.66266874192531,338.304188156784
738328.54384443326853215694,-4.39436017944884,-9.69959613839127,338.205715099541
738328.54384452372323721647,-4.3081962543616,-9.69959613839127,338.267260760318
738328.54384461406152695417,-4.50514236884671,-9.87192398856573,338.254951628162
738328.54384470451623201370,-4.46821497238075,-9.87192398856573,338.168787703075
738328.54384479497093707323,-4.41897844375947,-9.87192398856573,338.242642496007
738328.54384488530922681093,-4.3697419151382,-9.88423312072105,338.218024231697
738328.54384497576393187046,-4.3697419151382,-9.83499659209978,338.230333363852
738328.54384506621863692999,-4.46821497238075,-10.0196335744296,338.242642496007
738328.54384515655692666769,-4.41897844375947,-9.88423312072105,338.045696381522
738328.54384524701163172722,-4.40666931160415,-9.90885138503169,338.119551174454
738328.54384533746633678675,-4.39436017944884,-9.92116051718701,338.193405967386
738328.54384542792104184628,-4.39436017944884,-9.89654225287637,338.254951628162
738328.54384551825933158398,-4.43128757591479,-9.95808791365296,338.15647857092
738328.54384560871403664351,-4.46821497238075,-10.0073244422742,338.107242042299
738328.54384569916874170303,-4.46821497238075,-9.99501531011892,338.131860306609
738328.54384578950703144073,-4.43128757591479,-10.0196335744296,338.144169438765
738328.54384587996173650026,-4.33281451867224,-9.7857600634785,338.131860306609
738328.54384597041644155979,-4.39436017944884,-9.99501531011892,338.119551174454
738328.54384606087114661932,-4.45590584022543,-9.95808791365296,338.193405967386
738328.54384615120943635702,-4.45590584022543,-9.95808791365296,338.254951628162
738328.54384624166414141655,-4.41897844375947,-9.94577878149764,338.094932910143
738328.54384633211884647608,-4.39436017944884,-9.92116051718701,338.131860306609
738328.54384642245713621378,-4.39436017944884,-9.93346964934233,338.205715099541
738328.54384651291184127331,-4.40666931160415,-9.93346964934233,338.230333363852
738328.54384660336654633284,-4.39436017944884,-9.93346964934233,338.144169438765
738328.54384669370483607054,-4.34512365082756,-9.85961485641041,338.254951628162
738328.54384678415954113007,-4.43128757591479,-9.94577878149764,338.242642496007
738328.54384687461424618959,-4.41897844375947,-9.93346964934233,338.218024231697
738328.54384696506895124912,-4.39436017944884,-9.92116051718701,338.205715099541
738328.54384705540724098682,-4.29588712220628,-9.85961485641041,338.242642496007
738328.54384714586194604635,-4.41897844375947,-9.90885138503169,338.119551174454
738328.54384723631665110588,-4.44359670807011,-9.9827061779636,338.144169438765
738328.54384732665494084358,-4.48052410453607,-9.99501531011892,338.181096835231
738328.54384741710964590311,-4.33281451867224,-9.88423312072105,338.193405967386
738328.54384750756435096264,-4.29588712220628,-9.87192398856573,338.168787703075
738328.54384759790264070034,-4.45590584022543,-9.99501531011892,338.15647857092
738328.54384768835734575987,-4.41897844375947,-9.99501531011892,338.168787703075
738328.54384777881205081940,-4.33281451867224,-9.87192398856573,338.15647857092
738328.54384786926675587893,-4.45590584022543,-9.97039704580828,338.181096835231
738328.54384795960504561663,-4.35743278298288,-9.93346964934233,338.230333363852
738328.54384805005975067616,-4.29588712220628,-9.87192398856573,338.119551174454
738328.54384814051445573568,-4.44359670807011,-10.0319427065849,338.131860306609
738328.54384823085274547338,-4.41897844375947,-10.0073244422742,338.15647857092
738328.54384832130745053291,-4.35743278298288,-9.94577878149764,338.218024231697
738328.54384841176215559244,-4.28357799005097,-9.87192398856573,338.119551174454
738328.54384850221686065197,-4.40666931160415,-9.97039704580828,338.181096835231
738328.54384859255515038967,-4.34512365082756,-9.94577878149764,338.218024231697
738328.54384868300985544920,-4.41897844375947,-9.9827061779636,338.045696381522
738328.54384877346456050873,-4.34512365082756,-9.92116051718701,338.119551174454
738328.54384886380285024643,-4.40666931160415,-10.0073244422742,338.218024231697
738328.54384895425755530596,-4.46821497238075,-10.0319427065849,338.267260760318
738328.54384904471226036549,-4.48052410453607,-9.99501531011892,338.193405967386
738328.54384913505055010319,-4.3697419151382,-9.95808791365296,338.254951628162
738328.54384922550525516272,-4.27126885789565,-9.83499659209978,338.291879024628
738328.54384931595996022224,-4.44359670807011,-10.0073244422742,338.242642496007
738328.54384940641466528177,-4.48052410453607,-10.0073244422742,338.230333363852
738328.54384949675295501947,-4.48052410453607,-10.1181066316721,338.291879024628
738328.54384958720766007900,-4.33281451867224,-9.7857600634785,338.291879024628
738328.54384967766236513853,-3.85275836461481,-9.1333760592466,337.996459852901
738328.54384976800065487623,-3.72966704306162,-8.92412081260618,337.897986795658
738328.54384985845535993576,-4.27126885789565,-9.77345093132318,337.922605059969
738328.54384994891006499529,-4.54206976531266,-10.191961424604,338.119551174454
738328.54385003924835473299,-4.41897844375947,-10.0073244422742,338.168787703075
738328.54385012970305979252,-4.38205104729352,-9.97039704580828,338.119551174454
738328.54385022015776485205,-4.46821497238075,-10.0442518387402,338.131860306609
738328.54385031061246991158,-4.33281451867224,-9.85961485641041,338.144169438765
738328.54385040095075964928,-4.41897844375947,-9.97039704580828,338.193405967386
738328.54385049140546470881,-4.45590584022543,-10.0073244422742,338.193405967386
738328.54385058186016976833,-4.44359670807011,-9.95808791365296,338.15647857092
738328.54385067219845950603,-4.35743278298288,-9.95808791365296,338.205715099541
738328.54385076265316456556,-4.44359670807011,-9.9827061779636,338.168787703075
738328.54385085310786962509,-4.39436017944884,-9.90885138503169,338.144169438765
738328.54385094356257468462,-4.39436017944884,-9.93346964934233,338.144169438765
738328.54385103390086442232,-4.41897844375947,-9.9827061779636,338.181096835231
738328.54385112435556948185,-4.38205104729352,-9.92116051718701,338.218024231697
738328.54385121481027454138,-4.41897844375947,-9.94577878149764,338.181096835231
738328.54385130514856427908,-4.45590584022543,-10.0073244422742,338.193405967386
738328.54385139560326933861,-4.41897844375947,-9.93346964934233,338.181096835231
738328.54385148605797439814,-4.34512365082756,-9.84730572425509,338.168787703075
738328.54385157639626413584,-4.44359670807011,-9.9827061779636,338.181096835231
738328.54385166685096919537,-4.40666931160415,-9.94577878149764,338.15647857092
738328.54385175730567425489,-4.3697419151382,-9.88423312072105,338.218024231697
738328.54385184776037931442,-4.34512365082756,-9.87192398856573,338.193405967386
738328.54385193809866905212,-4.39436017944884,-9.89654225287637,338.181096835231
738328.54385202855337411165,-4.34512365082756,-9.89654225287637,338.267260760318
738328.54385211900807917118,-4.28357799005097,-9.76114179916786,338.254951628162
738328.54385220934636890888,-4.39436017944884,-9.88423312072105,338.119551174454
738328.54385229980107396841,-4.41897844375947,-9.92116051718701,338.144169438765
738328.54385239025577902794,-4.38205104729352,-9.82268745994446,338.279569892473
738328.54385248071048408747,-4.38205104729352,-9.84730572425509,338.254951628162
738328.54385257104877382517,-4.39436017944884,-9.84730572425509,338.205715099541
738328.54385266150347888470,-4.20972319711905,-9.68728700623595,338.242642496007
738328.54385275195818394423,-4.41897844375947,-9.89654225287637,338.218024231697
738328.54385284229647368193,-4.41897844375947,-9.92116051718701,338.181096835231
738328.54385293275117874146,-4.35743278298288,-9.84730572425509,338.267260760318
738328.54385302320588380098,-4.3697419151382,-9.89654225287637,338.205715099541
738328.54385311354417353868,-4.39436017944884,-9.89654225287637,338.193405967386
738328.54385320399887859821,-4.34512365082756,-9.95808791365296,338.15647857092
738328.54385329445358365774,-4.32050538651692,-9.87192398856573,338.205715099541
738328.54385338490828871727,-4.32050538651692,-9.90885138503169,338.218024231697
738328.54385347524657845497,-4.38205104729352,-9.95808791365296,338.168787703075
738328.54385356570128351450,-4.43128757591479,-10.0196335744296,338.168787703075
738328.54385365615598857403,-4.3697419151382,-9.97039704580828,338.131860306609
738328.54385374649427831173,-4.35743278298288,-9.94577878149764,338.107242042299
738328.54385383694898337126,-4.38205104729352,-9.9827061779636,338.094932910143
738328.54385392740368843079,-4.38205104729352,-9.9827061779636,338.119551174454
738328.54385401774197816849,-4.46821497238075,-10.0442518387402,338.193405967386
738328.54385410819668322802,-4.44359670807011,-10.0319427065849,338.131860306609
738328.54385419865138828754,-4.39436017944884,-10.0196335744296,338.193405967386
738328.54385428910609334707,-4.35743278298288,-9.94577878149764,338.218024231697
738328.54385437944438308477,-4.40666931160415,-10.0196335744296,338.242642496007
738328.54385446989908814430,-4.41897844375947,-10.0196335744296,338.267260760318
738328.54385456035379320383,-4.43128757591479,-10.0196335744296,338.119551174454
738328.54385465069208294153,-4.39436017944884,-10.0196335744296,338.218024231697
738328.54385474114678800106,-4.38205104729352,-9.94577878149764,338.205715099541
738328.54385483160149306059,-4.3697419151382,-10.0196335744296,338.094932910143
738328.54385492205619812012,-4.38205104729352,-9.9827061779636,338.205715099541
738328.54385501239448785782,-4.38205104729352,-9.95808791365296,338.193405967386
738328.54385510284919291735,-4.3697419151382,-9.93346964934233,338.218024231697
738328.54385519330389797688,-4.38205104729352,-10.0073244422742,338.107242042299
738328.54385528364218771458,-4.3697419151382,-9.97039704580828,338.193405967386
738328.54385537409689277411,-4.3697419151382,-9.92116051718701,338.218024231697
738328.54385546455159783363,-4.38205104729352,-10.0073244422742,338.131860306609
738328.54385555488988757133,-4.39436017944884,-9.95808791365296,338.181096835231
738328.54385564534459263086,-4.40666931160415,-9.99501531011892,338.230333363852
738328.54385573579929769039,-4.39436017944884,-9.99501531011892,338.021078117211
738328.54385582625400274992,-4.35743278298288,-9.95808791365296,338.070314645833
738328.54385591659229248762,-4.39436017944884,-9.99501531011892,338.119551174454
738328.54385600704699754715,-4.39436017944884,-9.9827061779636,338.082623777988
738328.54385609750170260668,-4.3697419151382,-10.0073244422742,338.144169438765
738328.54385618783999234438,-4.28357799005097,-9.90885138503169,338.094932910143
738328.54385627829469740391,-4.33281451867224,-9.95808791365296,338.094932910143
738328.54385636874940246344,-4.39436017944884,-10.0196335744296,338.144169438765
738328.54385645908769220114,-4.35743278298288,-10.0073244422742,338.168787703075
738328.54385654954239726067,-4.34512365082756,-9.97039704580828,338.144169438765
738328.54385663999710232019,-4.33281451867224,-9.94577878149764,338.205715099541
738328.54385673045180737972,-4.3697419151382,-9.9827061779636,338.218024231697
738328.54385682079009711742,-4.3697419151382,-9.9827061779636,338.181096835231
738328.54385691124480217695,-4.35743278298288,-9.94577878149764,338.181096835231
738328.54385700169950723648,-4.38205104729352,-9.97039704580828,338.254951628162
738328.54385709203779697418,-4.49283323669139,-10.0442518387402,338.205715099541
738328.54385718249250203371,-4.48052410453607,-10.1057974995168,338.181096835231
738328.54385727294720709324,-4.3697419151382,-9.92116051718701,338.230333363852
738328.54385736340191215277,-4.3697419151382,-9.95808791365296,338.218024231697
738328.54385745374020189047,-4.48052410453607,-10.0565609708955,338.131860306609
738328.54385754419490695000,-4.45590584022543,-10.0565609708955,338.218024231697
738328.54385763464961200953,-4.3697419151382,-9.95808791365296,338.230333363852
738328.54385772498790174723,-4.25895972574033,-9.83499659209978,338.254951628162
738328.54385781544260680676,-4.01277708263395,-9.37955870235298,338.082623777988
738328.54385790589731186628,-3.69273964659566,-8.92412081260618,337.836441134882
738328.54385799623560160398,-4.12355927203182,-9.51495915606148,337.97184158859
738328.54385808669030666351,-4.55437889746798,-10.2042705567593,338.082623777988
738328.54385817714501172304,-4.46821497238075,-10.0811792352062,338.181096835231
738328.54385826759971678257,-4.40666931160415,-10.0196335744296,338.15647857092
738328.54385835793800652027,-4.3697419151382,-9.92116051718701,338.181096835231
738328.54385844839271157980,-4.48052410453607,-10.0196335744296,338.131860306609
738328.54385853884741663933,-4.45590584022543,-10.0811792352062,338.107242042299
738328.54385862918570637703,-4.33281451867224,-9.88423312072105,338.119551174454
738328.54385871964041143656,-4.46821497238075,-10.0073244422742,338.107242042299
738328.54385881009511649609,-4.48052410453607,-10.0442518387402,338.131860306609
738328.54385890054982155561,-4.44359670807011,-10.0073244422742,338.144169438765
738328.54385899088811129332,-4.40666931160415,-9.97039704580828,338.168787703075
738328.54385908134281635284,-4.3697419151382,-9.92116051718701,338.144169438765
738328.54385917179752141237,-4.46821497238075,-10.0319427065849,338.144169438765
738328.54385926213581115007,-4.45590584022543,-9.99501531011892,338.131860306609
738328.54385935259051620960,-4.38205104729352,-9.95808791365296,338.008768985056
738328.54385944304522126913,-4.41897844375947,-9.97039704580828,338.144169438765
738328.54385953338351100683,-4.39436017944884,-9.92116051718701,338.205715099541
738328.54385962383821606636,-4.3697419151382,-9.93346964934233,338.193405967386
738328.54385971429292112589,-4.38205104729352,-9.93346964934233,338.15647857092
738328.54385980474762618542,-4.41897844375947,-9.94577878149764,338.15647857092
738328.54385989508591592312,-4.45590584022543,-9.99501531011892,338.144169438765
738328.54385998554062098265,-4.3697419151382,-9.92116051718701,338.15647857092
738328.54386007599532604218,-4.34512365082756,-9.87192398856573,338.144169438765
738328.54386016633361577988,-4.45590584022543,-9.93346964934233,338.168787703075
738328.54386025678832083941,-4.40666931160415,-9.97039704580828,338.205715099541
738328.54386034724302589893,-4.3697419151382,-9.87192398856573,338.205715099541
738328.54386043758131563663,-4.34512365082756,-9.81037832778914,338.218024231697
738328.54386052803602069616,-4.33281451867224,-9.83499659209978,338.242642496007
738328.54386061849072575569,-4.34512365082756,-9.87192398856573,338.254951628162
738328.54386070894543081522,-4.3081962543616,-9.76114179916786,338.15647857092
738328.54386079928372055292,-4.35743278298288,-9.87192398856573,338.254951628162
738328.54386088973842561245,-4.41897844375947,-9.89654225287637,338.254951628162
738328.54386098019313067198,-4.40666931160415,-9.92116051718701,338.267260760318
738328.54386107053142040968,-4.35743278298288,-9.87192398856573,338.218024231697
738328.54386116098612546921,-4.35743278298288,-9.88423312072105,338.218024231697
738328.54386125144083052874,-4.35743278298288,-9.90885138503169,338.230333363852
738328.54386134189553558826,-4.35743278298288,-9.90885138503169,338.193405967386
738328.54386143223382532597,-4.35743278298288,-9.93346964934233,338.242642496007
738328.54386152268853038549,-4.39436017944884,-9.97039704580828,338.144169438765
738328.54386161314323544502,-4.39436017944884,-9.95808791365296,338.070314645833
738328.54386170348152518272,-4.48052410453607,-10.0811792352062,338.119551174454
738328.54386179393623024225,-4.45590584022543,-10.0688701030508,338.131860306609
738328.54386188439093530178,-4.40666931160415,-9.9827061779636,338.094932910143
738328.54386197472922503948,-4.40666931160415,-10.0196335744296,338.181096835231
738328.54386206518393009901,-4.45590584022543,-10.0442518387402,338.193405967386
738328.54386215563863515854,-4.40666931160415,-10.0073244422742,338.230333363852
738328.54386224609334021807,-4.46821497238075,-10.0565609708955,338.168787703075
738328.54386233643162995577,-4.40666931160415,-9.97039704580828,338.230333363852
738328.54386242688633501530,-4.38205104729352,-10.0196335744296,338.218024231697
738328.54386251734104007483,-4.35743278298288,-9.97039704580828,338.205715099541
738328.54386260767932981253,-4.22203232927437,-9.7857600634785,338.193405967386
738328.54386269813403487206,-4.54206976531266,-10.1796522924487,338.193405967386
738328.54386278858873993158,-4.59130629393394,-10.1304157638274,338.131860306609
738328.54386287892702966928,-4.39436017944884,-10.0196335744296,338.008768985056
738328.54386296938173472881,-4.38205104729352,-10.0073244422742,338.181096835231
738328.54386305983643978834,-4.45590584022543,-10.0688701030508,338.230333363852
738328.54386315029114484787,-4.41897844375947,-10.0073244422742,338.094932910143
738328.54386324062943458557,-4.41897844375947,-10.0565609708955,338.205715099541
738328.54386333108413964510,-4.33281451867224,-9.97039704580828,338.144169438765
738328.54386342153884470463,-4.34512365082756,-9.90885138503169,338.107242042299
738328.54386351187713444233,-4.41897844375947,-10.0565609708955,338.131860306609
738328.54386360233183950186,-4.41897844375947,-10.0319427065849,338.107242042299
738328.54386369278654456139,-4.25895972574033,-9.84730572425509,338.131860306609
738328.54386378324124962091,-4.50514236884671,-10.1181066316721,338.107242042299
738328.54386387357953935862,-4.40666931160415,-10.0319427065849,338.131860306609
738328.54386396403424441814,-4.45590584022543,-10.0442518387402,338.15647857092
738328.54386405448894947767,-4.39436017944884,-10.0073244422742,338.119551174454
738328.54386414482723921537,-4.38205104729352,-9.99501531011892,338.144169438765
738328.54386423528194427490,-4.3697419151382,-10.0442518387402,338.144169438765
738328.54386432573664933443,-4.41897844375947,-10.0196335744296,338.131860306609
738328.54386441607493907213,-4.40666931160415,-9.99501531011892,338.15647857092
738328.54386450652964413166,-4.41897844375947,-10.0565609708955,338.144169438765
738328.54386459698434919119,-4.41897844375947,-10.0073244422742,338.15647857092
738328.54386468743905425072,-4.22203232927437,-9.83499659209978,338.144169438765
738328.54386477777734398842,-4.38205104729352,-10.0196335744296,338.144169438765
738328.54386486823204904795,-4.33281451867224,-9.95808791365296,338.168787703075
738328.54386495868675410748,-4.48052410453607,-10.1181066316721,338.168787703075
738328.54386504902504384518,-4.35743278298288,-10.0073244422742,338.033387249367
738328.54386513947974890471,-4.29588712220628,-9.93346964934233,338.070314645833
738328.54386522993445396423,-4.49283323669139,-10.1796522924487,338.15647857092
738328.54386532038915902376,-4.35743278298288,-10.0319427065849,338.045696381522
738328.54386541072744876146,-4.3697419151382,-10.0073244422742,338.131860306609
738328.54386550118215382099,-4.3697419151382,-10.0196335744296,338.15647857092
738328.54386559163685888052,-4.24665059358501,-9.90885138503169,338.168787703075
738328.54386568197514861822,-4.44359670807011,-10.0565609708955,338.168787703075
738328.54386577242985367775,-4.29588712220628,-9.9827061779636,338.218024231697
738328.54386586288455873728,-4.38205104729352,-9.99501531011892,338.218024231697
738328.54386595322284847498,-4.3697419151382,-10.0196335744296,338.131860306609
738328.54386604367755353451,-4.49283323669139,-10.1304157638274,338.242642496007
738328.54386613413225859404,-4.43128757591479,-10.0319427065849,338.230333363852
738328.54386622458696365356,-4.40666931160415,-10.0442518387402,338.242642496007
738328.54386631492525339127,-4.33281451867224,-9.95808791365296,338.045696381522
738328.54386640537995845079,-4.34512365082756,-9.99501531011892,338.008768985056
738328.54386649583466351032,-4.34512365082756,-10.0442518387402,338.242642496007
738328.54386658617295324802,-4.14817753634246,-9.62574134545936,338.218024231697
738328.54386667662765830755,-3.68043051444034,-8.8748842839849,337.848750267037
738328.54386676708236336708,-3.84044923245949,-9.12106692709128,337.959532456435
738328.54386685742065310478,-4.33281451867224,-9.85961485641041,338.058005513677
738328.54386694787535816431,-4.45590584022543,-10.0934883673615,338.070314645833
738328.54386703833006322384,-4.39436017944884,-10.0196335744296,338.058005513677
738328.54386712878476828337,-4.22203232927437,-9.87192398856573,338.058005513677
738328.54386721912305802107,-4.33281451867224,-9.95808791365296,338.107242042299
738328.54386730957776308060,-4.45590584022543,-10.0073244422742,338.107242042299
738328.54386740003246814013,-4.41897844375947,-10.0688701030508,338.094932910143
738328.54386749037075787783,-4.43128757591479,-10.0934883673615,338.119551174454
738328.54386758082546293736,-4.3697419151382,-9.9827061779636,338.094932910143
738328.54386767128016799688,-4.38205104729352,-9.99501531011892,338.144169438765
738328.54386776173487305641,-4.38205104729352,-9.97039704580828,338.205715099541
738328.54386785207316279411,-4.48052410453607,-10.1057974995168,338.205715099541
738328.54386794252786785364,-4.50514236884671,-10.1304157638274,338.205715099541
738328.54386803298257291317,-4.48052410453607,-10.0934883673615,338.181096835231
738328.54386812332086265087,-4.46821497238075,-10.0811792352062,338.218024231697
738328.54386821377556771040,-4.48052410453607,-10.1057974995168,338.205715099541
738328.54386830423027276993,-4.28357799005097,-9.87192398856573,338.15647857092
738328.54386839456856250763,-4.41897844375947,-10.0934883673615,338.15647857092
738328.54386848502326756716,-4.50514236884671,-10.0934883673615,338.15647857092
738328.54386857547797262669,-4.40666931160415,-9.99501531011892,338.193405967386
738328.54386866593267768621,-4.38205104729352,-10.0565609708955,338.218024231697
738328.54386875627096742392,-4.44359670807011,-10.0319427065849,338.242642496007
738328.54386884672567248344,-4.38205104729352,-10.0196335744296,338.254951628162
738328.54386893718037754297,-4.38205104729352,-9.95808791365296,338.205715099541
738328.54386902751866728067,-4.28357799005097,-9.92116051718701,338.218024231697
738328.54386911797337234020,-4.20972319711905,-9.7857600634785,338.230333363852
738328.54386920842807739973,-4.44359670807011,-10.0196335744296,338.168787703075
738328.54386929876636713743,-4.35743278298288,-9.93346964934233,338.254951628162
738328.54386938922107219696,-4.38205104729352,-9.92116051718701,338.291879024628
738328.54386947967577725649,-4.34512365082756,-9.93346964934233,338.144169438765
738328.54386957013048231602,-4.34512365082756,-9.89654225287637,338.230333363852
738328.54386966046877205372,-4.24665059358501,-9.81037832778914,338.254951628162
738328.54386975092347711325,-4.32050538651692,-9.84730572425509,338.267260760318
738328.54386984137818217278,-4.29588712220628,-9.90885138503169,337.947223324279
738328.54386993171647191048,-4.3697419151382,-9.93346964934233,338.021078117211
738328.54387002217117697001,-4.38205104729352,-9.95808791365296,338.218024231697
738328.54387011262588202953,-4.38205104729352,-10.0196335744296,338.230333363852
738328.54387020308058708906,-4.3697419151382,-9.95808791365296,338.193405967386
738328.54387029341887682676,-4.32050538651692,-9.99501531011892,338.168787703075
738328.54387038387358188629,-4.24665059358501,-9.89654225287637,338.218024231697
738328.54387047432828694582,-4.29588712220628,-9.93346964934233,338.267260760318
738328.54387056466657668352,-4.28357799005097,-10.0073244422742,338.254951628162
738328.54387065512128174305,-4.38205104729352,-10.0688701030508,338.131860306609
738328.54387074557598680258,-4.41897844375947,-10.1181066316721,338.230333363852
738328.54387083591427654028,-4.38205104729352,-10.0565609708955,338.254951628162
738328.54387092636898159981,-4.38205104729352,-10.0442518387402,338.230333363852
738328.54387101682368665934,-4.40666931160415,-10.0934883673615,338.107242042299
738328.54387110727839171886,-4.38205104729352,-10.0442518387402,338.107242042299
738328.54387119761668145657,-4.39436017944884,-10.1057974995168,338.119551174454
738328.54387128807138651609,-4.28357799005097,-10.0073244422742,338.058005513677
738328.54387137852609157562,-4.32050538651692,-10.0073244422742,338.058005513677
738328.54387146886438131332,-4.3081962543616,-10.0073244422742,338.070314645833
738328.54387155931908637285,-4.51745150100202,-10.191961424604,338.119551174454
738328.54387164977379143238,-4.39436017944884,-10.1057974995168,338.107242042299
738328.54387174022849649191,-4.3697419151382,-10.0688701030508,338.119551174454
738328.54387183056678622961,-4.35743278298288,-10.0688701030508,338.131860306609
738328.54387192102149128914,-4.33281451867224,-10.1057974995168,338.205715099541
738328.54387201147619634867,-4.25895972574033,-9.97039704580828,338.218024231697
738328.54387210181448608637,-4.41897844375947,-10.1181066316721,338.094932910143
738328.54387219226919114590,-4.41897844375947,-10.1550340281381,338.193405967386
738328.54387228272389620543,-4.38205104729352,-10.0565609708955,338.094932910143
738328.54387237306218594313,-4.35743278298288,-10.0811792352062,338.144169438765
738328.54387246351689100266,-4.33281451867224,-10.0319427065849,338.107242042299
738328.54387255397159606218,-4.34512365082756,-10.0073244422742,338.119551174454
738328.54387264442630112171,-4.3697419151382,-10.0934883673615,338.181096835231
738328.54387273476459085941,-4.33281451867224,-9.99501531011892,338.131860306609
738328.54387282521929591894,-4.29588712220628,-10.0073244422742,338.144169438765
738328.54387291567400097847,-4.33281451867224,-10.0319427065849,338.218024231697
738328.54387300601229071617,-4.38205104729352,-10.0811792352062,338.181096835231
738328.54387309646699577570,-4.45590584022543,-10.1304157638274,338.107242042299
738328.54387318692170083523,-4.40666931160415,-10.1181066316721,338.205715099541
738328.54387327725999057293,-4.3697419151382,-10.0319427065849,338.15647857092
738328.54387336771469563246,-4.35743278298288,-10.0688701030508,338.033387249367
738328.54387345816940069199,-4.3697419151382,-10.0565609708955,338.144169438765
738328.54387354862410575151,-4.40666931160415,-10.1057974995168,338.119551174454
738328.54387363896239548922,-4.18510493280842,-9.88423312072105,338.193405967386
738328.54387372941710054874,-4.25895972574033,-9.97039704580828,338.218024231697
738328.54387381987180560827,-4.40666931160415,-10.0688701030508,338.205715099541
738328.54387391021009534597,-4.3697419151382,-10.1427248959827,338.144169438765
738328.54387400066480040550,-4.35743278298288,-10.0196335744296,338.205715099541
738328.54387409111950546503,-4.14817753634246,-9.82268745994446,338.230333363852
738328.54387418157421052456,-4.46821497238075,-10.1673431602934,338.15647857092
738328.54387427191250026226,-4.33281451867224,-10.0442518387402,338.168787703075
738328.54387436236720532179,-4.54206976531266,-10.2781253496913,338.205715099541
738328.54387445282191038132,-4.29588712220628,-10.0073244422742,338.181096835231
738328.54387454316020011902,-4.34512365082756,-10.1304157638274,338.144169438765
738328.54387463361490517855,-4.32050538651692,-10.0319427065849,338.205715099541
738328.54387472406961023808,-4.35743278298288,-10.0565609708955,338.168787703075
738328.54387481440789997578,-4.33281451867224,-10.0565609708955,338.107242042299
738328.54387490486260503531,-4.3081962543616,-10.0442518387402,338.168787703075
738328.54387499531731009483,-4.29588712220628,-9.99501531011892,338.193405967386
738328.54387508577201515436,-4.40666931160415,-10.0811792352062,338.107242042299
738328.54387517611030489206,-4.12355927203182,-9.84730572425509,338.205715099541
738328.54387526656500995159,-4.41897844375947,-10.1427248959827,338.082623777988
738328.54387535701971501112,-4.52976063315734,-10.2535070853806,338.144169438765
738328.54387544735800474882,-4.43128757591479,-10.1181066316721,338.181096835231
738328.54387553781270980835,-4.38205104729352,-10.0688701030508,338.144169438765
738328.54387562826741486788,-4.38205104729352,-10.0934883673615,338.131860306609
738328.54387571860570460558,-4.3697419151382,-10.0688701030508,338.218024231697
738328.54387580906040966511,-4.34512365082756,-10.0442518387402,338.267260760318
738328.54387589951511472464,-4.29588712220628,-10.0073244422742,338.230333363852
738328.54387598996981978416,-4.35743278298288,-10.1057974995168,338.218024231697
738328.54387608030810952187,-3.98815881832331,-9.35494043804234,338.193405967386
738328.54387617076281458139,-3.63119398581907,-8.86257515182958,337.873368531348
738328.54387626121751964092,-3.86506749677012,-9.12106692709128,337.811822870571
738328.54387635155580937862,-4.20972319711905,-9.95808791365296,337.959532456435
738328.54387644201051443815,-4.55437889746798,-10.2904344818466,338.070314645833
738328.54387653246521949768,-4.43128757591479,-10.1550340281381,338.082623777988
738328.54387662291992455721,-4.39436017944884,-10.0442518387402,338.033387249367
738328.54387671325821429491,-4.34512365082756,-10.0442518387402,338.168787703075
738328.54387680371291935444,-4.32050538651692,-10.0688701030508,338.193405967386
738328.54387689416762441397,-4.20972319711905,-9.93346964934233,338.033387249367
738328.54387698450591415167,-4.44359670807011,-10.1057974995168,338.094932910143
738328.54387707496061921120,-4.41897844375947,-10.1550340281381,338.267260760318
738328.54387716541532427073,-4.3697419151382,-10.0565609708955,338.230333363852
738328.54387725575361400843,-4.3081962543616,-10.0319427065849,338.131860306609
738328.54387734620831906796,-4.28357799005097,-9.95808791365296,338.254951628162
738328.54387743666302412748,-4.33281451867224,-10.0196335744296,338.242642496007
738328.54387752711772918701,-4.24665059358501,-10.0073244422742,338.218024231697
738328.54387761745601892471,-4.22203232927437,-9.87192398856573,338.131860306609
738328.54387770791072398424,-4.3081962543616,-9.9827061779636,338.242642496007
738328.54387779836542904377,-4.3081962543616,-10.0073244422742,338.230333363852
738328.54387788870371878147,-4.3081962543616,-9.9827061779636,338.242642496007
738328.54387797915842384100,-4.35743278298288,-10.0442518387402,338.242642496007
738328.54387806961312890053,-4.28357799005097,-9.95808791365296,338.205715099541
738328.54387816006783396006,-4.25895972574033,-9.99501531011892,338.230333363852
738328.54387825040612369776,-4.35743278298288,-9.95808791365296,338.242642496007
738328.54387834086082875729,-4.27126885789565,-9.94577878149764,338.15647857092
738328.54387843131553381681,-4.32050538651692,-9.9827061779636,338.218024231697
738328.54387852165382355452,-4.22203232927437,-9.87192398856573,338.205715099541
738328.54387861210852861404,-4.33281451867224,-9.95808791365296,338.144169438765
738328.54387870256323367357,-4.29588712220628,-9.89654225287637,338.218024231697
738328.54387879290152341127,-4.23434146142969,-9.93346964934233,338.218024231697
738328.54387888335622847080,-4.32050538651692,-9.89654225287637,338.168787703075
738328.54387897381093353033,-4.27126885789565,-9.87192398856573,338.205715099541
738328.54387906426563858986,-4.38205104729352,-10.0073244422742,338.193405967386
738328.54387915460392832756,-4.28357799005097,-9.87192398856573,338.218024231697
738328.54387924505863338709,-4.29588712220628,-9.89654225287637,338.218024231697
738328.54387933551333844662,-4.29588712220628,-9.92116051718701,338.230333363852
738328.54387942585162818432,-4.33281451867224,-9.97039704580828,338.131860306609
738328.54387951630633324385,-4.34512365082756,-9.99501531011892,338.119551174454
738328.54387960676103830338,-4.38205104729352,-10.0811792352062,338.107242042299
738328.54387969709932804108,-4.34512365082756,-10.0196335744296,338.094932910143
738328.54387978755403310061,-4.13586840418714,-9.82268745994446,338.058005513677
738328.54387987800873816013,-4.41897844375947,-10.22888882107,338.15647857092
738328.54387996846344321966,-4.3697419151382,-10.1181066316721,338.15647857092
738328.54388005880173295736,-4.35743278298288,-10.0565609708955,338.193405967386
738328.54388014925643801689,-4.28357799005097,-9.99501531011892,338.144169438765
738328.54388023971114307642,-4.3697419151382,-10.0934883673615,338.15647857092
738328.54388033004943281412,-4.35743278298288,-10.0688701030508,338.144169438765
738328.54388042050413787365,-4.34512365082756,-10.0811792352062,338.021078117211
738328.54388051095884293318,-4.1112501398765,-9.79806919563382,338.033387249367
738328.54388060141354799271,-4.38205104729352,-10.1796522924487,338.181096835231
738328.54388069175183773041,-4.35743278298288,-10.0688701030508,338.144169438765
738328.54388078220654278994,-4.43128757591479,-10.1427248959827,338.181096835231
738328.54388087266124784946,-4.40666931160415,-10.1181066316721,338.131860306609
738328.54388096299953758717,-4.33281451867224,-10.0319427065849,338.218024231697
738328.54388105345424264669,-4.29588712220628,-10.0565609708955,338.15647857092
738328.54388114390894770622,-4.32050538651692,-10.0565609708955,338.107242042299
738328.54388123424723744392,-4.23434146142969,-9.93346964934233,338.119551174454
738328.54388132470194250345,-4.3081962543616,-9.97039704580828,338.15647857092
738328.54388141515664756298,-4.44359670807011,-10.2535070853806,338.144169438765
738328.54388150561135262251,-4.3697419151382,-10.0811792352062,338.193405967386
738328.54388159594964236021,-4.27126885789565,-9.9827061779636,338.218024231697
738328.54388168640434741974,-4.3697419151382,-10.0565609708955,338.218024231697
738328.54388177685905247927,-4.29588712220628,-9.99501531011892,338.242642496007
738328.54388186719734221697,-4.24665059358501,-9.97039704580828,338.107242042299
738328.54388195765204727650,-4.28357799005097,-10.0073244422742,338.181096835231
738328.54388204810675233603,-4.38205104729352,-10.0811792352062,338.193405967386
738328.54388213844504207373,-4.40666931160415,-10.1550340281381,338.267260760318
738328.54388222889974713326,-4.35743278298288,-10.0442518387402,338.131860306609
738328.54388231935445219278,-4.3081962543616,-10.0565609708955,338.193405967386
738328.54388240980915725231,-4.18510493280842,-9.84730572425509,338.205715099541
738328.54388250014744699001,-4.51745150100202,-10.2042705567593,338.144169438765
738328.54388259060215204954,-4.46821497238075,-10.1181066316721,338.181096835231
738328.54388268105685710907,-4.39436017944884,-10.1304157638274,338.205715099541
738328.54388277139514684677,-4.33281451867224,-10.0196335744296,338.205715099541
738328.54388286184985190630,-4.34512365082756,-10.0073244422742,338.168787703075
738328.54388295230455696583,-4.33281451867224,-10.0565609708955,338.181096835231
738328.54388304275926202536,-4.39436017944884,-10.0811792352062,338.168787703075
738328.54388313309755176306,-4.39436017944884,-10.0934883673615,338.107242042299
738328.54388322355225682259,-4.39436017944884,-10.0934883673615,338.094932910143
738328.54388331400696188211,-4.39436017944884,-10.0565609708955,338.131860306609
738328.54388340434525161982,-4.18510493280842,-9.82268745994446,338.119551174454
738328.54388349479995667934,-4.3697419151382,-10.0934883673615,338.15647857092
738328.54388358525466173887,-4.48052410453607,-10.1427248959827,338.193405967386
738328.54388367559295147657,-4.45590584022543,-10.1304157638274,338.267260760318
738328.54388376604765653610,-4.40666931160415,-10.0934883673615,338.242642496007
738328.54388385650236159563,-4.40666931160415,-10.0565609708955,338.181096835231
738328.54388394695706665516,-4.38205104729352,-10.0442518387402,338.119551174454
738328.54388403729535639286,-4.34512365082756,-9.99501531011892,338.107242042299
738328.54388412775006145239,-4.34512365082756,-10.0196335744296,338.119551174454
738328.54388421820476651192,-4.35743278298288,-10.0442518387402,338.181096835231
738328.54388430854305624962,-4.34512365082756,-9.97039704580828,338.181096835231
738328.54388439899776130915,-4.3081962543616,-10.0565609708955,338.119551174454
738328.54388448945246636868,-4.3081962543616,-9.97039704580828,338.082623777988
738328.54388457990717142820,-4.3081962543616,-9.9827061779636,338.082623777988
738328.54388467024546116590,-4.3081962543616,-9.97039704580828,338.082623777988
738328.54388476070016622543,-4.34512365082756,-9.99501531011892,338.119551174454
738328.54388485115487128496,-4.34512365082756,-9.97039704580828,338.193405967386
738328.54388494149316102266,-4.35743278298288,-10.0073244422742,338.230333363852
738328.54388503194786608219,-4.38205104729352,-10.0196335744296,338.131860306609
738328.54388512240257114172,-4.35743278298288,-9.99501531011892,338.168787703075
738328.54388521274086087942,-4.43128757591479,-10.0442518387402,338.144169438765
738328.54388530319556593895,-4.32050538651692,-9.95808791365296,338.168787703075
738328.54388539365027099848,-4.33281451867224,-9.9827061779636,338.218024231697
738328.54388548410497605801,-4.40666931160415,-9.99501531011892,338.254951628162
738328.54388557444326579571,-4.55437889746798,-10.1304157638274,338.144169438765
738328.54388566489797085524,-4.45590584022543,-10.0196335744296,338.230333363852
738328.54388575535267591476,-4.40666931160415,-10.1181066316721,338.267260760318
738328.54388584569096565247,-4.3081962543616,-9.67497787408063,338.218024231697
738328.54388593614567071199,-3.79121270383821,-8.96104820907214,337.922605059969
738328.54388602660037577152,-3.9143040253914,-9.09644866278064,337.934914192124
738328.54388611693866550922,-4.38205104729352,-10.1057974995168,338.033387249367
738328.54388620739337056875,-4.50514236884671,-10.2165796889147,338.205715099541
738328.54388629784807562828,-4.50514236884671,-10.1304157638274,338.15647857092
738328.54388638830278068781,-4.14817753634246,-9.76114179916786,338.131860306609
738328.54388647864107042551,-4.3697419151382,-9.90885138503169,338.15647857092
738328.54388656909577548504,-4.61592455824458,-10.191961424604,338.144169438765
738328.54388665955048054457,-4.59130629393394,-10.1181066316721,338.181096835231
738328.54388674988877028227,-4.45590584022543,-10.0319427065849,338.230333363852
738328.54388684034347534180,-4.28357799005097,-9.84730572425509,338.254951628162
738328.54388693079818040133,-4.35743278298288,-9.90885138503169,338.193405967386
738328.54388702125288546085,-4.50514236884671,-10.0319427065849,338.279569892473
738328.54388711159117519855,-4.5666880296233,-10.0811792352062,338.291879024628
738328.54388720204588025808,-4.50514236884671,-10.0319427065849,338.230333363852
738328.54388729250058531761,-4.41897844375947,-9.94577878149764,338.279569892473
738328.54388738283887505531,-4.43128757591479,-9.97039704580828,338.328806421094
738328.54388747329358011484,-4.3697419151382,-9.92116051718701,338.205715099541
738328.54388756374828517437,-4.54206976531266,-10.0811792352062,338.131860306609
738328.54388765408657491207,-4.48052410453607,-9.97039704580828,338.291879024628
738328.54388774454127997160,-4.49283323669139,-10.0196335744296,338.267260760318
738328.54388783499598503113,-4.38205104729352,-9.88423312072105,338.230333363852
738328.54388792545069009066,-4.51745150100202,-10.0073244422742,338.218024231697
738328.54388801578897982836,-4.43128757591479,-9.95808791365296,338.205715099541
738328.54388810624368488789,-4.45590584022543,-9.92116051718701,338.242642496007
738328.54388819669838994741,-4.40666931160415,-9.87192398856573,338.218024231697
738328.54388828703667968512,-4.39436017944884,-9.92116051718701,338.230333363852
738328.54388837749138474464,-4.39436017944884,-9.79806919563382,338.316497288939
738328.54388846794608980417,-4.35743278298288,-9.83499659209978,338.316497288939
738328.54388855828437954187,-4.38205104729352,-9.84730572425509,338.242642496007
738328.54388864873908460140,-4.28357799005097,-9.67497787408063,338.242642496007
738328.54388873919378966093,-4.3081962543616,-9.72421440270191,338.242642496007
738328.54388882964849472046,-4.44359670807011,-9.82268745994446,338.267260760318
738328.54388891998678445816,-4.3697419151382,-9.77345093132318,338.242642496007
738328.54388901044148951769,-4.46821497238075,-9.90885138503169,338.267260760318
738328.54388910089619457722,-4.45590584022543,-9.82268745994446,338.242642496007
738328.54388919123448431492,-4.43128757591479,-9.90885138503169,338.267260760318
738328.54388928168918937445,-4.3081962543616,-9.76114179916786,338.267260760318
738328.54388937214389443398,-4.40666931160415,-9.89654225287637,338.168787703075
738328.54388946259859949350,-4.39436017944884,-9.88423312072105,338.168787703075
738328.54388955293688923120,-4.48052410453607,-10.0196335744296,338.205715099541
738328.54388964339159429073,-4.51745150100202,-10.0688701030508,338.193405967386
738328.54388973384629935026,-4.49283323669139,-10.0319427065849,338.205715099541
738328.54388982418458908796,-4.44359670807011,-9.9827061779636,338.254951628162
738328.54388991463929414749,-4.46821497238075,-9.97039704580828,338.279569892473
738328.54389000509399920702,-4.34512365082756,-9.9827061779636,338.267260760318
738328.54389009543228894472,-4.45590584022543,-9.9827061779636,338.218024231697
738328.54389018588699400425,-4.49283323669139,-10.0688701030508,338.254951628162
738328.54389027634169906378,-4.50514236884671,-10.0565609708955,338.279569892473
738328.54389036679640412331,-4.46821497238075,-10.0442518387402,338.193405967386
738328.54389045713469386101,-4.48052410453607,-10.0811792352062,338.279569892473
738328.54389054758939892054,-4.41897844375947,-10.0073244422742,338.242642496007
738328.54389063804410398006,-4.44359670807011,-9.95808791365296,338.254951628162
738328.54389072838239371777,-4.40666931160415,-10.0319427065849,338.193405967386
738328.54389081883709877729,-4.23434146142969,-9.81037832778914,338.254951628162
738328.54389090929180383682,-4.50514236884671,-10.0688701030508,338.230333363852
738328.54389099974650889635,-4.52976063315734,-10.1057974995168,338.107242042299
738328.54389109008479863405,-4.45590584022543,-10.0196335744296,338.033387249367
738328.54389118053950369358,-4.41897844375947,-9.99501531011892,338.181096835231
738328.54389127099420875311,-4.41897844375947,-10.0073244422742,338.181096835231
738328.54389136133249849081,-4.40666931160415,-9.95808791365296,338.131860306609
738328.54389145178720355034,-4.40666931160415,-10.0442518387402,338.242642496007
738328.54389154224190860987,-4.38205104729352,-9.93346964934233,338.267260760318
738328.54389163258019834757,-4.35743278298288,-9.9827061779636,338.168787703075
738328.54389172303490340710,-4.38205104729352,-9.97039704580828,338.267260760318
738328.54389181348960846663,-4.3697419151382,-9.97039704580828,338.230333363852
738328.54389190394431352615,-4.38205104729352,-9.95808791365296,338.193405967386
738328.54389199428260326385,-4.39436017944884,-10.0442518387402,338.254951628162
738328.54389208473730832338,-4.3697419151382,-9.94577878149764,338.254951628162
738328.54389217519201338291,-4.39436017944884,-9.9827061779636,338.279569892473
738328.54389226553030312061,-4.38205104729352,-9.99501531011892,338.230333363852
738328.54389235598500818014,-4.39436017944884,-9.9827061779636,338.267260760318
738328.54389244643971323967,-4.35743278298288,-9.9827061779636,338.254951628162
738328.54389253677800297737,-4.35743278298288,-9.89654225287637,338.254951628162
738328.54389262723270803690,-4.39436017944884,-10.0319427065849,338.181096835231
738328.54389271768741309643,-4.40666931160415,-10.0196335744296,338.267260760318
738328.54389280814211815596,-4.43128757591479,-10.0073244422742,338.304188156784
738328.54389289848040789366,-4.41897844375947,-9.99501531011892,338.168787703075
738328.54389298893511295319,-4.40666931160415,-10.0073244422742,338.254951628162
738328.54389307938981801271,-4.38205104729352,-9.9827061779636,338.242642496007
738328.54389316972810775042,-4.33281451867224,-9.99501531011892,338.218024231697
738328.54389326018281280994,-4.3697419151382,-9.97039704580828,338.218024231697
738328.54389335063751786947,-4.32050538651692,-9.97039704580828,338.168787703075
738328.54389344109222292900,-4.29588712220628,-9.99501531011892,338.107242042299
738328.54389353143051266670,-4.28357799005097,-9.93346964934233,338.131860306609
738328.54389362188521772623,-4.32050538651692,-9.95808791365296,338.131860306609
738328.54389371233992278576,-4.23434146142969,-9.84730572425509,338.181096835231
738328.54389380267821252346,-4.41897844375947,-10.0811792352062,338.168787703075
738328.54389389313291758299,-4.29588712220628,-9.92116051718701,338.181096835231
738328.54389398358762264252,-4.3697419151382,-10.0073244422742,338.218024231697
738328.54389407392591238022,-4.48052410453607,-10.0811792352062,338.279569892473
738328.54389416438061743975,-4.39436017944884,-10.0565609708955,338.279569892473
738328.54389425483532249928,-4.41897844375947,-10.0196335744296,338.181096835231
738328.54389434529002755880,-4.43128757591479,-10.0442518387402,338.230333363852
738328.54389443562831729650,-4.43128757591479,-10.0688701030508,338.328806421094
738328.54389452608302235603,-4.3697419151382,-9.99501531011892,338.279569892473
738328.54389461653772741556,-4.34512365082756,-9.95808791365296,338.070314645833
738328.54389470687601715326,-4.40666931160415,-10.0811792352062,338.279569892473
738328.54389479733072221279,-4.32050538651692,-9.92116051718701,338.316497288939
738328.54389488778542727232,-3.96354055401268,-9.35494043804234,338.230333363852
738328.54389497812371701002,-3.56964832504247,-8.83795688751895,337.848750267037
738328.54389506857842206955,-3.97584968616799,-9.34263130588702,337.910295927814
738328.54389515903312712908,-4.46821497238075,-10.2042705567593,338.058005513677
738328.54389524948783218861,-4.48052410453607,-10.1304157638274,338.119551174454
738328.54389533982612192631,-4.29588712220628,-9.9827061779636,338.15647857092
738328.54389543028082698584,-4.33281451867224,-9.99501531011892,338.218024231697
738328.54389552073553204536,-4.40666931160415,-9.99501531011892,338.193405967386
738328.54389561107382178307,-4.39436017944884,-10.0196335744296,338.291879024628
738328.54389570152852684259,-4.32050538651692,-9.94577878149764,338.316497288939
738328.54389579198323190212,-4.35743278298288,-9.97039704580828,338.36573381756
738328.54389588243793696165,-4.20972319711905,-9.83499659209978,338.230333363852
738328.54389597277622669935,-4.41897844375947,-10.0196335744296,338.279569892473
738328.54389606323093175888,-4.45590584022543,-10.1304157638274,338.291879024628
738328.54389615368563681841,-4.44359670807011,-9.99501531011892,338.230333363852
738328.54389624402392655611,-4.38205104729352,-9.9827061779636,338.242642496007
738328.54389633447863161564,-4.39436017944884,-10.0319427065849,338.291879024628
738328.54389642493333667517,-4.40666931160415,-10.0196335744296,338.34111555325
738328.54389651527162641287,-4.29588712220628,-9.88423312072105,338.242642496007
738328.54389660572633147240,-4.22203232927437,-9.85961485641041,338.291879024628
738328.54389669618103653193,-4.44359670807011,-10.0319427065849,338.316497288939
738328.54389678663574159145,-4.40666931160415,-9.99501531011892,338.242642496007
738328.54389687697403132915,-4.3697419151382,-10.0073244422742,338.279569892473
738328.54389696742873638868,-4.34512365082756,-9.95808791365296,338.304188156784
738328.54389705788344144821,-4.33281451867224,-9.90885138503169,338.218024231697
738328.54389714822173118591,-4.29588712220628,-9.89654225287637,338.205715099541
738328.54389723867643624544,-4.32050538651692,-9.89654225287637,338.218024231697
738328.54389732913114130497,-4.34512365082756,-9.94577878149764,338.279569892473
738328.54389741958584636450,-4.33281451867224,-9.89654225287637,338.181096835231
738328.54389750992413610220,-4.32050538651692,-9.87192398856573,338.230333363852
738328.54389760037884116173,-4.34512365082756,-9.88423312072105,338.304188156784
738328.54389769083354622126,-4.29588712220628,-9.82268745994446,338.304188156784
738328.54389778117183595896,-4.28357799005097,-9.84730572425509,338.230333363852
738328.54389787162654101849,-4.25895972574033,-9.76114179916786,338.279569892473
738328.54389796208124607801,-4.18510493280842,-9.69959613839127,338.316497288939
738328.54389805241953581572,-4.19741406496373,-9.76114179916786,338.279569892473
738328.54389814287424087524,-4.32050538651692,-9.87192398856573,338.045696381522
738328.54389823332894593477,-4.39436017944884,-9.95808791365296,338.230333363852
738328.54389832378365099430,-4.3697419151382,-9.97039704580828,338.205715099541
738328.54389841412194073200,-4.40666931160415,-10.0442518387402,338.205715099541
738328.54389850457664579153,-4.38205104729352,-9.99501531011892,338.254951628162
738328.54389859503135085106,-4.34512365082756,-10.0196335744296,338.316497288939
738328.54389868536964058876,-4.34512365082756,-9.9827061779636,338.279569892473
738328.54389877582434564829,-4.35743278298288,-10.0073244422742,338.279569892473
738328.54389886627905070782,-4.34512365082756,-10.0073244422742,338.193405967386
738328.54389895661734044552,-4.27126885789565,-9.94577878149764,338.304188156784
738328.54389904707204550505,-4.25895972574033,-9.92116051718701,338.254951628162
738328.54389913752675056458,-4.39436017944884,-10.0442518387402,338.242642496007
738328.54389922798145562410,-4.44359670807011,-10.1181066316721,338.267260760318
738328.54389931831974536180,-4.28357799005097,-9.94577878149764,338.267260760318
738328.54389940877445042133,-4.35743278298288,-10.0196335744296,338.267260760318
738328.54389949922915548086,-4.44359670807011,-10.1427248959827,338.218024231697
738328.54389958956744521856,-4.3081962543616,-9.9827061779636,338.254951628162
738328.54389968002215027809,-4.44359670807011,-10.1057974995168,338.279569892473
738328.54389977047685533762,-4.41897844375947,-10.0319427065849,338.205715099541
738328.54389986093156039715,-4.28357799005097,-9.99501531011892,338.254951628162
738328.54389995126985013485,-4.23434146142969,-9.90885138503169,338.291879024628
738328.54390004172455519438,-4.3081962543616,-9.97039704580828,338.279569892473
738328.54390013217926025391,-4.3697419151382,-10.0442518387402,338.181096835231
738328.54390022251754999161,-4.3697419151382,-10.0442518387402,338.267260760318
738328.54390031297225505114,-4.43128757591479,-10.1304157638274,338.267260760318
738328.54390040342696011066,-4.38205104729352,-10.0196335744296,338.218024231697
738328.54390049376524984837,-4.38205104729352,-10.0319427065849,338.267260760318
738328.54390058421995490789,-4.34512365082756,-10.0196335744296,338.193405967386
738328.54390067467465996742,-4.33281451867224,-9.9827061779636,338.15647857092
738328.54390076512936502695,-4.3081962543616,-10.0073244422742,338.168787703075
738328.54390085546765476465,-4.27126885789565,-9.92116051718701,338.168787703075
738328.54390094592235982418,-4.29588712220628,-9.97039704580828,338.144169438765
738328.54390103637706488371,-4.33281451867224,-9.99501531011892,338.168787703075
738328.54390112671535462141,-4.27126885789565,-9.90885138503169,338.205715099541
738328.54390121717005968094,-4.27126885789565,-9.9827061779636,338.218024231697
738328.54390130762476474047,-4.40666931160415,-10.0196335744296,338.218024231697
738328.54390139796305447817,-4.38205104729352,-10.0688701030508,338.205715099541
738328.54390148841775953770,-4.3697419151382,-10.0442518387402,338.193405967386
738328.54390157887246459723,-4.38205104729352,-10.0319427065849,338.008768985056
738328.54390166932716965675,-4.35743278298288,-10.0442518387402,338.119551174454
738328.54390175966545939445,-4.33281451867224,-9.99501531011892,338.218024231697
738328.54390185012016445398,-4.33281451867224,-9.9827061779636,338.193405967386
738328.54390194057486951351,-4.34512365082756,-10.0688701030508,338.193405967386
738328.54390203091315925121,-4.33281451867224,-9.99501531011892,338.193405967386
738328.54390212136786431074,-4.35743278298288,-10.0073244422742,338.254951628162
738328.54390221182256937027,-4.34512365082756,-9.99501531011892,338.279569892473
738328.54390230227727442980,-4.33281451867224,-9.99501531011892,338.205715099541
738328.54390239261556416750,-4.3697419151382,-10.0442518387402,338.218024231697
738328.54390248307026922703,-4.19741406496373,-9.92116051718701,338.242642496007
738328.54390257352497428656,-4.39436017944884,-10.0319427065849,338.242642496007
738328.54390266386326402426,-4.38205104729352,-10.1181066316721,338.230333363852
738328.54390275431796908379,-4.34512365082756,-10.0319427065849,338.181096835231
738328.54390284477267414331,-4.29588712220628,-9.9827061779636,338.094932910143
738328.54390293511096388102,-4.1727958006531,-9.90885138503169,338.15647857092
738328.54390302556566894054,-4.33281451867224,-10.0319427065849,338.144169438765
738328.54390311602037400007,-4.33281451867224,-10.0196335744296,338.205715099541
738328.54390320647507905960,-4.34512365082756,-10.0442518387402,338.218024231697
738328.54390329681336879730,-4.25895972574033,-9.97039704580828,338.205715099541
738328.54390338726807385683,-4.39436017944884,-10.0319427065849,338.242642496007
738328.54390347772277891636,-4.29588712220628,-9.9827061779636,338.267260760318
738328.54390356806106865406,-4.28357799005097,-9.9827061779636,338.267260760318
738328.54390365851577371359,-4.54206976531266,-10.1673431602934,338.218024231697
738328.54390374897047877312,-4.50514236884671,-10.1304157638274,338.254951628162
738328.54390383942518383265,-4.38205104729352,-10.0442518387402,338.254951628162
738328.54390392976347357035,-4.40666931160415,-10.1181066316721,338.279569892473
738328.54390402021817862988,-4.34512365082756,-9.95808791365296,338.242642496007
738328.54390411067288368940,-4.39436017944884,-10.0565609708955,338.291879024628
738328.54390420101117342710,-4.35743278298288,-10.0934883673615,338.242642496007
738328.54390429146587848663,-4.02508621478927,-9.51495915606148,338.144169438765
738328.54390438192058354616,-3.54503006073183,-8.96104820907214,337.861059399192
738328.54390447225887328386,-3.80352183599353,-9.1333760592466,337.836441134882
738328.54390456271357834339,-4.25895972574033,-9.88423312072105,337.959532456435
738328.54390465316828340292,-4.51745150100202,-10.22888882107,338.181096835231
738328.54390474362298846245,-4.41897844375947,-10.0565609708955,338.205715099541
738328.54390483396127820015,-4.29588712220628,-9.97039704580828,338.181096835231
738328.54390492441598325968,-4.22203232927437,-9.93346964934233,338.230333363852
738328.54390501487068831921,-4.50514236884671,-10.1427248959827,338.181096835231
738328.54390510520897805691,-4.41897844375947,-10.0196335744296,338.033387249367
738328.54390519566368311644,-4.40666931160415,-10.0688701030508,338.119551174454
738328.54390528611838817596,-4.35743278298288,-10.0442518387402,338.218024231697
738328.54390537645667791367,-4.35743278298288,-9.95808791365296,338.279569892473
738328.54390546691138297319,-4.29588712220628,-9.95808791365296,338.205715099541
738328.54390555736608803272,-4.23434146142969,-9.87192398856573,338.168787703075
738328.54390564782079309225,-4.3697419151382,-10.0442518387402,338.205715099541
738328.54390573815908282995,-4.45590584022543,-10.1304157638274,338.218024231697
738328.54390582861378788948,-4.39436017944884,-10.0565609708955,338.205715099541
738328.54390591906849294901,-4.38205104729352,-10.0319427065849,338.254951628162
738328.54390600940678268671,-4.35743278298288,-9.97039704580828,338.279569892473
738328.54390609986148774624,-4.34512365082756,-10.0196335744296,338.168787703075
738328.54390619031619280577,-4.33281451867224,-9.99501531011892,338.279569892473
738328.54390628077089786530,-4.33281451867224,-9.94577878149764,338.242642496007
738328.54390637110918760300,-4.24665059358501,-9.84730572425509,338.193405967386
738328.54390646156389266253,-4.38205104729352,-10.0073244422742,338.230333363852
738328.54390655201859772205,-4.39436017944884,-10.0934883673615,338.291879024628
738328.54390664235688745975,-4.3697419151382,-9.94577878149764,338.267260760318
738328.54390673281159251928,-4.33281451867224,-9.95808791365296,338.205715099541
738328.54390682326629757881,-4.33281451867224,-9.92116051718701,338.242642496007
738328.54390691360458731651,-4.32050538651692,-9.97039704580828,338.218024231697
738328.54390700405929237604,-4.29588712220628,-9.90885138503169,338.205715099541
738328.54390709451399743557,-4.29588712220628,-9.84730572425509,338.218024231697
738328.54390718496870249510,-4.29588712220628,-9.82268745994446,338.254951628162
738328.54390727530699223280,-4.23434146142969,-9.87192398856573,338.254951628162
738328.54390736576169729233,-4.16048666849778,-9.71190527054659,338.304188156784
738328.54390745621640235186,-4.43128757591479,-10.0319427065849,338.279569892473
738328.54390754655469208956,-4.43128757591479,-9.99501531011892,338.291879024628
738328.54390763700939714909,-4.32050538651692,-9.88423312072105,338.205715099541
738328.54390772746410220861,-4.34512365082756,-9.9827061779636,338.254951628162
738328.54390781791880726814,-4.34512365082756,-9.9827061779636,338.267260760318
738328.54390790825709700584,-4.28357799005097,-9.90885138503169,338.15647857092
738328.54390799871180206537,-4.19741406496373,-9.85961485641041,338.254951628162
738328.54390808916650712490,-4.28357799005097,-9.99501531011892,338.267260760318
738328.54390817950479686260,-4.28357799005097,-9.92116051718701,338.144169438765
738328.54390826995950192213,-4.54206976531266,-10.2165796889147,338.218024231697
738328.54390836041420698166,-4.46821497238075,-10.1550340281381,338.267260760318
738328.54390845075249671936,-4.40666931160415,-10.0934883673615,338.254951628162
738328.54390854120720177889,-4.25895972574033,-9.94577878149764,338.193405967386
738328.54390863166190683842,-4.40666931160415,-10.0442518387402,338.082623777988
738328.54390872211661189795,-4.39436017944884,-10.1057974995168,338.119551174454
738328.54390881245490163565,-4.40666931160415,-10.1304157638274,338.15647857092
738328.54390890290960669518,-4.34512365082756,-9.95808791365296,338.218024231697
738328.54390899336431175470,-4.40666931160415,-10.1181066316721,338.193405967386
738328.54390908370260149240,-4.39436017944884,-10.0811792352062,338.181096835231
738328.54390917415730655193,-4.33281451867224,-10.0196335744296,338.193405967386
738328.54390926461201161146,-4.39436017944884,-10.0688701030508,338.181096835231
738328.54390935495030134916,-4.40666931160415,-10.0442518387402,338.15647857092
738328.54390944540500640869,-4.14817753634246,-9.92116051718701,338.193405967386
738328.54390953585971146822,-4.32050538651692,-10.0073244422742,338.193405967386
738328.54390962631441652775,-4.41897844375947,-10.0811792352062,338.205715099541
738328.54390971665270626545,-4.44359670807011,-10.1550340281381,338.267260760318
738328.54390980710741132498,-4.39436017944884,-10.1057974995168,338.230333363852
738328.54390989756211638451,-4.35743278298288,-10.0442518387402,338.131860306609
738328.54390998790040612221,-4.34512365082756,-10.0196335744296,338.218024231697
738328.54391007835511118174,-4.3697419151382,-10.0688701030508,338.168787703075
738328.54391016880981624126,-4.3697419151382,-10.0073244422742,338.15647857092
738328.54391025926452130079,-4.32050538651692,-9.9827061779636,338.230333363852
738328.54391034960281103849,-4.35743278298288,-10.0688701030508,338.205715099541
738328.54391044005751609802,-4.3697419151382,-9.99501531011892,338.242642496007
738328.54391053051222115755,-4.23434146142969,-9.85961485641041,338.242642496007
738328.54391062085051089525,-4.45590584022543,-10.1304157638274,338.144169438765
738328.54391071130521595478,-4.44359670807011,-10.1181066316721,338.205715099541
738328.54391080175992101431,-4.3697419151382,-9.9827061779636,338.193405967386
738328.54391089209821075201,-4.39436017944884,-10.1304157638274,338.193405967386
738328.54391098255291581154,-4.38205104729352,-10.0073244422742,338.193405967386
738328.54391107300762087107,-4.3697419151382,-10.0196335744296,338.193405967386
738328.54391116346232593060,-4.3697419151382,-10.0073244422742,338.193405967386
738328.54391125380061566830,-4.3697419151382,-10.0442518387402,338.218024231697
738328.54391134425532072783,-4.38205104729352,-10.0073244422742,338.218024231697
738328.54391143471002578735,-4.3697419151382,-10.0196335744296,338.242642496007
738328.54391152504831552505,-4.39436017944884,-10.0319427065849,338.242642496007
738328.54391161550302058458,-4.38205104729352,-10.0319427065849,338.168787703075
738328.54391170595772564411,-4.29588712220628,-9.95808791365296,338.254951628162
738328.54391179629601538181,-4.39436017944884,-10.0073244422742,338.230333363852
738328.54391188675072044134,-4.44359670807011,-10.1181066316721,338.242642496007
738328.54391197720542550087,-4.40666931160415,-10.0319427065849,338.242642496007
738328.54391206766013056040,-4.35743278298288,-9.99501531011892,338.254951628162
738328.54391215799842029810,-4.39436017944884,-10.0073244422742,338.131860306609
738328.54391224845312535763,-4.3697419151382,-10.0442518387402,338.107242042299
738328.54391233890783041716,-4.43128757591479,-10.1057974995168,338.230333363852
738328.54391242924612015486,-4.40666931160415,-10.0319427065849,338.242642496007
738328.54391251970082521439,-4.3697419151382,-10.0073244422742,338.15647857092
738328.54391261015553027391,-4.1727958006531,-9.89654225287637,338.205715099541
738328.54391270061023533344,-4.44359670807011,-10.0565609708955,338.242642496007
738328.54391279094852507114,-4.41897844375947,-10.1181066316721,338.218024231697
738328.54391288140323013067,-4.3697419151382,-10.1057974995168,338.131860306609
738328.54391297185793519020,-4.3697419151382,-10.0565609708955,338.168787703075
738328.54391306219622492790,-4.35743278298288,-10.0073244422742,338.205715099541
738328.54391315265092998743,-4.35743278298288,-9.99501531011892,338.144169438765
738328.54391324310563504696,-4.34512365082756,-10.0073244422742,338.205715099541
738328.54391333344392478466,-4.3697419151382,-10.0688701030508,338.254951628162
738328.54391342389862984419,-4.39436017944884,-10.0073244422742,338.254951628162
738328.54391351435333490372,-4.38205104729352,-10.1057974995168,338.15647857092
738328.54391360480803996325,-4.38205104729352,-10.0319427065849,338.15647857092
738328.54391369514632970095,-4.38205104729352,-9.99501531011892,338.144169438765
738328.54391378560103476048,-4.40666931160415,-10.0811792352062,338.119551174454
738328.54391387605573982000,-4.40666931160415,-10.0811792352062,338.168787703075
738328.54391396639402955770,-4.39436017944884,-10.0319427065849,338.218024231697
738328.54391405684873461723,-4.39436017944884,-10.0442518387402,338.168787703075
738328.54391414730343967676,-4.38205104729352,-10.0934883673615,338.242642496007
738328.54391423775814473629,-4.25895972574033,-9.85961485641041,338.254951628162
738328.54391432809643447399,-3.87737662892544,-9.28108564511043,338.070314645833
738328.54391441855113953352,-3.63119398581907,-8.83795688751895,337.848750267037
738328.54391450900584459305,-4.07432274341055,-9.55188655252744,337.934914192124
738328.54391459934413433075,-4.50514236884671,-10.2411979532253,338.107242042299
738328.54391468979883939028,-4.45590584022543,-10.1181066316721,338.193405967386
738328.54391478025354444981,-4.3697419151382,-10.0565609708955,338.15647857092
738328.54391487059183418751,-4.3081962543616,-9.95808791365296,338.15647857092
738328.54391496104653924704,-4.3697419151382,-9.9827061779636,338.15647857092
738328.54391505150124430656,-4.43128757591479,-10.1057974995168,338.193405967386
738328.54391514195594936609,-4.43128757591479,-10.0565609708955,338.193405967386
738328.54391523229423910379,-4.38205104729352,-10.0565609708955,338.242642496007
738328.54391532274894416332,-4.27126885789565,-9.90885138503169,338.230333363852
738328.54391541320364922285,-4.33281451867224,-10.0196335744296,338.218024231697
738328.54391550354193896055,-4.49283323669139,-10.1181066316721,338.205715099541
738328.54391559399664402008,-4.40666931160415,-10.0688701030508,338.267260760318
738328.54391568445134907961,-4.34512365082756,-9.9827061779636,338.15647857092
738328.54391577478963881731,-4.28357799005097,-9.94577878149764,338.119551174454
738328.54391586524434387684,-4.45590584022543,-10.0934883673615,338.254951628162
738328.54391595569904893637,-4.43128757591479,-10.0934883673615,338.291879024628
738328.54391604615375399590,-4.43128757591479,-10.0811792352062,338.230333363852
738328.54391613649204373360,-4.33281451867224,-9.9827061779636,338.267260760318
738328.54391622694674879313,-4.3697419151382,-10.0196335744296,338.254951628162
738328.54391631740145385265,-4.35743278298288,-10.0073244422742,338.218024231697
738328.54391640773974359035,-4.46821497238075,-10.0811792352062,338.279569892473
738328.54391649819444864988,-4.41897844375947,-10.0688701030508,338.304188156784
738328.54391658864915370941,-4.35743278298288,-9.99501531011892,338.230333363852
738328.54391667910385876894,-4.35743278298288,-9.95808791365296,338.254951628162
738328.54391676944214850664,-4.32050538651692,-9.99501531011892,338.279569892473
738328.54391685989685356617,-4.35743278298288,-9.92116051718701,338.291879024628
738328.54391695035155862570,-4.35743278298288,-9.94577878149764,338.205715099541
738328.54391704068984836340,-4.24665059358501,-9.85961485641041,338.254951628162
738328.54391713114455342293,-4.35743278298288,-9.90885138503169,338.328806421094
738328.54391722159925848246,-4.35743278298288,-9.89654225287637,338.267260760318
738328.54391731193754822016,-4.33281451867224,-9.93346964934233,338.267260760318
738328.54391740239225327969,-4.35743278298288,-9.87192398856573,338.291879024628
738328.54391749284695833921,-4.33281451867224,-9.87192398856573,338.304188156784
738328.54391758330166339874,-4.32050538651692,-9.92116051718701,338.242642496007
738328.54391767363995313644,-4.20972319711905,-9.7857600634785,338.242642496007
738328.54391776409465819597,-4.3697419151382,-10.0196335744296,338.144169438765
738328.54391785454936325550,-4.44359670807011,-10.0811792352062,338.181096835231
738328.54391794488765299320,-4.40666931160415,-10.0319427065849,338.230333363852
738328.54391803534235805273,-4.3081962543616,-10.0319427065849,338.181096835231
738328.54391812579706311226,-4.3697419151382,-10.0688701030508,338.15647857092
738328.54391821613535284996,-4.41897844375947,-10.0934883673615,338.15647857092
738328.54391830659005790949,-4.38205104729352,-10.0811792352062,338.181096835231
738328.54391839704476296902,-4.35743278298288,-10.0565609708955,338.15647857092
738328.54391848749946802855,-4.3697419151382,-10.0934883673615,338.181096835231
738328.54391857783775776625,-4.43128757591479,-10.1057974995168,338.205715099541
738328.54391866829246282578,-4.35743278298288,-10.0196335744296,338.168787703075
738328.54391875874716788530,-4.29588712220628,-9.97039704580828,338.168787703075
738328.54391884908545762300,-4.39436017944884,-10.0934883673615,338.168787703075
738328.54391893954016268253,-4.40666931160415,-10.1673431602934,338.181096835231
738328.54391902999486774206,-4.34512365082756,-10.0319427065849,338.15647857092
738328.54391912044957280159,-4.48052410453607,-10.1796522924487,338.193405967386
738328.54391921078786253929,-4.43128757591479,-10.1550340281381,338.094932910143
738328.54391930124256759882,-4.41897844375947,-10.1181066316721,338.033387249367
738328.54391939169727265835,-4.40666931160415,-10.1181066316721,338.193405967386
738328.54391948203556239605,-4.34512365082756,-10.0196335744296,338.242642496007
738328.54391957249026745558,-4.33281451867224,-10.0934883673615,338.242642496007
738328.54391966294497251511,-4.43128757591479,-10.1057974995168,338.15647857092
738328.54391975328326225281,-4.41897844375947,-10.0934883673615,338.193405967386
738328.54391984373796731234,-4.38205104729352,-10.1304157638274,338.168787703075
738328.54391993419267237186,-4.34512365082756,-10.0319427065849,338.181096835231
738328.54392002464737743139,-4.33281451867224,-10.0442518387402,338.205715099541
738328.54392011498566716909,-4.39436017944884,-10.0934883673615,338.242642496007
738328.54392020544037222862,-4.39436017944884,-10.0688701030508,338.291879024628
738328.54392029589507728815,-4.39436017944884,-10.0565609708955,338.267260760318
738328.54392038623336702585,-4.35743278298288,-10.0442518387402,338.144169438765
738328.54392047668807208538,-4.38205104729352,-10.0565609708955,338.242642496007
738328.54392056714277714491,-4.39436017944884,-10.0934883673615,338.254951628162
738328.54392065759748220444,-4.32050538651692,-10.0196335744296,338.267260760318
738328.54392074793577194214,-4.41897844375947,-9.97039704580828,338.168787703075
738328.54392083839047700167,-4.48052410453607,-10.3027436140019,338.242642496007
738328.54392092884518206120,-4.43128757591479,-10.0442518387402,338.291879024628
738328.54392101918347179890,-4.38205104729352,-10.0196335744296,338.242642496007
738328.54392110963817685843,-4.34512365082756,-9.99501531011892,338.205715099541
738328.54392120009288191795,-4.50514236884671,-10.1181066316721,338.242642496007
738328.54392129043117165565,-4.46821497238075,-10.0934883673615,338.291879024628
738328.54392138088587671518,-4.43128757591479,-10.0934883673615,338.279569892473
738328.54392147134058177471,-4.3697419151382,-10.0073244422742,338.242642496007
738328.54392156179528683424,-4.46821497238075,-10.1550340281381,338.254951628162
738328.54392165213357657194,-4.49283323669139,-10.0811792352062,338.254951628162
738328.54392174258828163147,-4.44359670807011,-10.1181066316721,338.193405967386
738328.54392183304298669100,-4.46821497238075,-10.0688701030508,338.304188156784
738328.54392192338127642870,-4.45590584022543,-10.0811792352062,338.291879024628
738328.54392201383598148823,-4.46821497238075,-10.0565609708955,338.193405967386
738328.54392210429068654776,-4.44359670807011,-10.0934883673615,338.254951628162
738328.54392219462897628546,-4.40666931160415,-10.0565609708955,338.242642496007
738328.54392228508368134499,-4.40666931160415,-10.0688701030508,338.254951628162
738328.54392237553838640451,-4.43128757591479,-10.0688701030508,338.267260760318
738328.54392246599309146404,-4.46821497238075,-10.1181066316721,338.304188156784
738328.54392255633138120174,-4.43128757591479,-10.0442518387402,338.328806421094
738328.54392264678608626127,-4.51745150100202,-10.1304157638274,338.254951628162
738328.54392273724079132080,-4.49283323669139,-10.0811792352062,338.107242042299
738328.54392282757908105850,-4.49283323669139,-10.1427248959827,338.033387249367
738328.54392291803378611803,-4.45590584022543,-10.0688701030508,338.119551174454
738328.54392300848849117756,-4.43128757591479,-10.0934883673615,338.131860306609
738328.54392309894319623709,-4.41897844375947,-10.0196335744296,338.082623777988
738328.54392318928148597479,-4.41897844375947,-10.0565609708955,338.094932910143
738328.54392327973619103432,-4.41897844375947,-10.0688701030508,338.082623777988
738328.54392337019089609385,-4.40666931160415,-10.0073244422742,338.15647857092
738328.54392346052918583155,-4.3697419151382,-9.99501531011892,338.15647857092
738328.54392355098389089108,-4.44359670807011,-10.0688701030508,338.144169438765
738328.54392364143859595060,-4.48052410453607,-10.1427248959827,338.181096835231
738328.54392373177688568830,-4.48052410453607,-10.0073244422742,338.205715099541
738328.54392382223159074783,-4.51745150100202,-10.1550340281381,338.205715099541
738328.54392391268629580736,-4.52976063315734,-10.0934883673615,338.267260760318
738328.54392400314100086689,-4.51745150100202,-10.0688701030508,338.267260760318
738328.54392409347929060459,-4.51745150100202,-10.1181066316721,338.181096835231
738328.54392418393399566412,-4.51745150100202,-10.1057974995168,338.230333363852
738328.54392427438870072365,-4.50514236884671,-10.0688701030508,338.230333363852
738328.54392436472699046135,-4.48052410453607,-10.0565609708955,338.279569892473
738328.54392445518169552088,-4.50514236884671,-10.0934883673615,338.291879024628
738328.54392454563640058041,-4.39436017944884,-9.94577878149764,338.328806421094
738328.54392463597469031811,-3.95123142185736,-9.20723085217851,338.181096835231
738328.54392472642939537764,-3.75428530737225,-8.9364299447615,337.910295927814
738328.54392481688410043716,-4.29588712220628,-9.69959613839127,337.984150720745
738328.54392490733880549669,-4.67747021902117,-10.4258349355551,338.094932910143
738328.54392499767709523439,-4.61592455824458,-10.22888882107,338.267260760318
738328.54392508813180029392,-4.5666880296233,-10.1181066316721,338.242642496007
738328.54392517858650535345,-4.51745150100202,-10.0934883673615,338.218024231697
738328.54392526892479509115,-4.52976063315734,-10.0934883673615,338.254951628162
738328.54392535937950015068,-4.50514236884671,-10.0442518387402,338.291879024628
738328.54392544983420521021,-4.54206976531266,-10.0442518387402,338.254951628162
738328.54392554028891026974,-4.51745150100202,-10.0319427065849,338.316497288939
738328.54392563062720000744,-4.54206976531266,-10.0811792352062,338.304188156784
738328.54392572108190506697,-4.5666880296233,-10.0196335744296,338.291879024628
738328.54392581153661012650,-4.55437889746798,-10.0565609708955,338.279569892473
738328.54392590187489986420,-4.61592455824458,-10.1057974995168,338.291879024628
