time_dn,ecg_projection_ll_ra_mV,ecg_projection_la_ra_mV,ecg_projection_vx_rl_mV
738328.59441113320644944906,0.0738547929319132,-9.28108564511043,336.383963540554
738328.59441122366115450859,0.0369273964659566,-9.30570390942106,336.507054862107
738328.59441131411585956812,0.0123091321553189,-9.3303221737317,336.482436597797
738328.59441140445414930582,-0.0492365286212755,-9.37955870235298,336.42089093702
738328.59441149490885436535,-0.0123091321553189,-9.36724957019766,336.482436597797
738328.59441158536355942488,0.0369273964659566,-9.29339477726574,336.507054862107
738328.59441167581826448441,0.0615456607765943,-9.30570390942106,336.494745729952
738328.59441176615655422211,0.0123091321553189,-9.3303221737317,336.494745729952
738328.59441185661125928164,-0.0369273964659566,-9.40417696666361,336.531673126418
738328.59441194706596434116,-0.0123091321553189,-9.36724957019766,336.519363994263
738328.59441203752066940069,0.233873510951058,-8.92412081260618,336.580909655039
738328.59441212785895913839,0.480056154057436,-8.57946511225725,336.359345276243
738328.59441221831366419792,0.837020986561683,-8.06248156173386,336.088544368826
738328.59441230876836925745,0.393892228970204,-8.56715598010193,336.137780897448
738328.59441239922307431698,-0.0492365286212755,-9.46572262744021,336.310108747622
738328.59441248956136405468,-0.0246182643106377,-9.3918678345083,336.470127465641
738328.59441258001606911421,0.0492365286212755,-9.31801304157638,336.507054862107
738328.59441267047077417374,-0.0123091321553189,-9.36724957019766,336.408581804865
738328.59441276092547923326,0,-9.30570390942106,336.531673126418
738328.59441285126376897097,-0.0492365286212755,-9.36724957019766,336.556291390728
738328.59441294171847403049,-0.0492365286212755,-9.37955870235298,336.457818333486
738328.59441303217317909002,-0.0123091321553189,-9.37955870235298,336.482436597797
738328.59441312262788414955,0,-9.3303221737317,336.457818333486
738328.59441321296617388725,0.0984730572425509,-9.23184911648915,336.396272672709
738328.59441330342087894678,0.0492365286212755,-9.28108564511043,336.383963540554
738328.59441339387558400631,-0.0492365286212755,-9.35494043804234,336.42089093702
738328.59441348433028906584,0.0123091321553189,-9.35494043804234,336.42089093702
738328.59441357466857880354,-0.0246182643106377,-9.34263130588702,336.347036144088
738328.59441366512328386307,0.0246182643106377,-9.30570390942106,336.445509201331
738328.59441375557798892260,-0.0123091321553189,-9.31801304157638,336.482436597797
738328.59441384603269398212,0.0123091321553189,-9.35494043804234,336.519363994263
738328.59441393637098371983,-0.0246182643106377,-9.30570390942106,336.383963540554
738328.59441402682568877935,0,-9.30570390942106,336.359345276243
738328.59441411728039383888,0.0492365286212755,-9.25646738079979,336.556291390728
738328.59441420773509889841,0.0615456607765943,-9.25646738079979,336.470127465641
738328.59441429818980395794,0.147709585863826,-9.15799432355724,336.494745729952
738328.59441438852809369564,0.0123091321553189,-9.29339477726574,336.543982258573
738328.59441447898279875517,0.0246182643106377,-9.29339477726574,336.543982258573
738328.59441456943750381470,0,-9.29339477726574,336.494745729952
738328.59441465989220887423,0.0123091321553189,-9.26877651295511,336.470127465641
738328.59441475023049861193,0.0615456607765943,-9.23184911648915,336.408581804865
738328.59441484068520367146,0.0492365286212755,-9.21953998433383,336.42089093702
738328.59441493113990873098,0.0615456607765943,-9.19492172002319,336.519363994263
738328.59441502159461379051,0.0738547929319132,-9.18261258786788,336.519363994263
738328.59441511193290352821,0.0738547929319132,-9.17030345571256,336.482436597797
738328.59441520238760858774,0.0738547929319132,-9.15799432355724,336.494745729952
738328.59441529284231364727,0.0738547929319132,-9.15799432355724,336.482436597797
738328.59441538329701870680,0.123091321553189,-9.17030345571256,336.470127465641
738328.59441547363530844450,0.0615456607765943,-9.19492172002319,336.396272672709
738328.59441556409001350403,0.0492365286212755,-9.21953998433383,336.396272672709
738328.59441565454471856356,0.123091321553189,-9.19492172002319,336.507054862107
738328.59441574499942362309,0.0369273964659566,-9.28108564511043,336.494745729952
738328.59441583533771336079,-0.0123091321553189,-9.34263130588702,336.507054862107
738328.59441592579241842031,0,-9.31801304157638,336.396272672709
738328.59441601624712347984,0.0246182643106377,-9.30570390942106,336.470127465641
738328.59441610670182853937,0.0123091321553189,-9.34263130588702,336.519363994263
738328.59441619704011827707,0,-9.3303221737317,336.457818333486
738328.59441628749482333660,0.0123091321553189,-9.31801304157638,336.494745729952
738328.59441637794952839613,0.0123091321553189,-9.35494043804234,336.494745729952
738328.59441646840423345566,0,-9.31801304157638,336.519363994263
738328.59441655874252319336,0.0246182643106377,-9.30570390942106,336.482436597797
738328.59441664919722825289,-0.0123091321553189,-9.36724957019766,336.482436597797
738328.59441673965193331242,-0.0246182643106377,-9.36724957019766,336.556291390728
738328.59441683010663837194,-0.0369273964659566,-9.3918678345083,336.482436597797
738328.59441692044492810965,-0.0369273964659566,-9.37955870235298,336.519363994263
738328.59441701089963316917,0.0861639250872321,-9.26877651295511,336.396272672709
738328.59441710135433822870,-0.0369273964659566,-9.40417696666361,336.543982258573
738328.59441719180904328823,-0.0615456607765943,-9.37955870235298,336.507054862107
738328.59441728214733302593,-0.0246182643106377,-9.3918678345083,336.457818333486
738328.59441737260203808546,0.0369273964659566,-9.31801304157638,336.482436597797
738328.59441746305674314499,0,-9.34263130588702,336.260872219001
738328.59441755351144820452,-0.0246182643106377,-9.35494043804234,336.383963540554
738328.59441764384973794222,-0.0123091321553189,-9.34263130588702,336.396272672709
738328.59441773430444300175,-0.0123091321553189,-9.34263130588702,336.482436597797
738328.59441782475914806128,0.0123091321553189,-9.31801304157638,336.482436597797
738328.59441791521385312080,0.0492365286212755,-9.30570390942106,336.470127465641
738328.59441800555214285851,0.0369273964659566,-9.3303221737317,336.470127465641
738328.59441809600684791803,-0.0738547929319132,-9.3918678345083,336.494745729952
738328.59441818646155297756,-0.0246182643106377,-9.36724957019766,336.470127465641
738328.59441827691625803709,-0.0246182643106377,-9.35494043804234,336.42089093702
738328.59441836725454777479,-0.0123091321553189,-9.3303221737317,336.507054862107
738328.59441845770925283432,-0.0123091321553189,-9.36724957019766,336.470127465641
738328.59441854816395789385,-0.0246182643106377,-9.35494043804234,336.408581804865
738328.59441863861866295338,0,-9.31801304157638,336.494745729952
738328.59441872895695269108,-0.0369273964659566,-9.35494043804234,336.470127465641
738328.59441881941165775061,-0.0369273964659566,-9.36724957019766,336.42089093702
738328.59441890986636281013,0.0492365286212755,-9.30570390942106,336.470127465641
738328.59441900032106786966,-0.0738547929319132,-9.3918678345083,336.470127465641
738328.59441909065935760736,-0.0615456607765943,-9.3918678345083,336.482436597797
738328.59441918111406266689,-0.0492365286212755,-9.37955870235298,336.42089093702
738328.59441927156876772642,-0.0123091321553189,-9.3303221737317,336.408581804865
738328.59441936202347278595,-0.0615456607765943,-9.3918678345083,336.42089093702
738328.59441945236176252365,-0.0369273964659566,-9.37955870235298,336.482436597797
738328.59441954281646758318,-0.0615456607765943,-9.36724957019766,336.482436597797
738328.59441963327117264271,-0.0492365286212755,-9.35494043804234,336.482436597797
738328.59441972372587770224,-0.0492365286212755,-9.35494043804234,336.347036144088
738328.59441981418058276176,-0.0492365286212755,-9.41648609881893,336.371654408399
738328.59441990451887249947,-0.0492365286212755,-9.37955870235298,336.507054862107
738328.59441999497357755899,-0.0369273964659566,-9.35494043804234,336.494745729952
738328.59442008542828261852,-0.0369273964659566,-9.36724957019766,336.457818333486
738328.59442017588298767805,-0.0615456607765943,-9.37955870235298,336.42089093702
738328.59442026622127741575,-0.0246182643106377,-9.34263130588702,336.433200069175
738328.59442035667598247528,-0.0492365286212755,-9.37955870235298,336.42089093702
738328.59442044713068753481,-0.0369273964659566,-9.35494043804234,336.371654408399
738328.59442053758539259434,-0.0492365286212755,-9.36724957019766,336.445509201331
738328.59442062792368233204,-0.0492365286212755,-9.37955870235298,336.494745729952
738328.59442071837838739157,-0.0492365286212755,-9.37955870235298,336.433200069175
738328.59442080883309245110,-0.0615456607765943,-9.37955870235298,336.494745729952
738328.59442089928779751062,-0.0615456607765943,-9.37955870235298,336.507054862107
738328.59442098962608724833,-0.0615456607765943,-9.36724957019766,336.297799615467
738328.59442108008079230785,-0.0369273964659566,-9.36724957019766,336.347036144088
738328.59442117053549736738,-0.0369273964659566,-9.37955870235298,336.482436597797
738328.59442126099020242691,-0.0369273964659566,-9.37955870235298,336.470127465641
738328.59442135132849216461,-0.0246182643106377,-9.37955870235298,336.433200069175
738328.59442144178319722414,0,-9.36724957019766,336.347036144088
738328.59442153223790228367,-0.0123091321553189,-9.36724957019766,336.396272672709
738328.59442162269260734320,0,-9.34263130588702,336.445509201331
738328.59442171303089708090,0.0246182643106377,-9.31801304157638,336.457818333486
738328.59442180348560214043,-0.0369273964659566,-9.36724957019766,336.433200069175
738328.59442189394030719995,0,-9.3303221737317,336.482436597797
738328.59442198439501225948,0.0123091321553189,-9.31801304157638,336.494745729952
738328.59442207473330199718,-0.11078218939787,-9.44110436312957,336.457818333486
738328.59442216518800705671,-0.135400453708508,-9.45341349528489,336.507054862107
738328.59442225564271211624,-0.11078218939787,-9.42879523097425,336.507054862107
738328.59442234609741717577,-0.0984730572425509,-9.40417696666361,336.470127465641
738328.59442243643570691347,-0.0738547929319132,-9.41648609881893,336.470127465641
738328.59442252689041197300,-0.0861639250872321,-9.3918678345083,336.433200069175
738328.59442261734511703253,-0.0492365286212755,-9.37955870235298,336.433200069175
738328.59442270779982209206,-0.0123091321553189,-9.36724957019766,336.433200069175
738328.59442279813811182976,0.0615456607765943,-9.14568519140192,336.568600522884
738328.59442288859281688929,0.54160181483403,-8.49330118717002,336.347036144088
738328.59442297904752194881,0.664693136387219,-8.29635507268492,336.063926104516
738328.59442306950222700834,0.196946114485102,-9.08413953062532,336.23625395469
738328.59442315984051674604,-0.196946114485102,-9.67497787408063,336.383963540554
738328.59442325029522180557,-0.147709585863826,-9.50265002390617,336.433200069175
738328.59442334074992686510,-0.0861639250872321,-9.41648609881893,336.396272672709
738328.59442343120463192463,-0.0246182643106377,-9.41648609881893,336.408581804865
738328.59442352154292166233,-0.0615456607765943,-9.36724957019766,336.482436597797
738328.59442361199762672186,-0.0492365286212755,-9.35494043804234,336.519363994263
738328.59442370245233178139,-0.0615456607765943,-9.36724957019766,336.531673126418
738328.59442379290703684092,-0.0369273964659566,-9.35494043804234,336.507054862107
738328.59442388324532657862,-0.0123091321553189,-9.30570390942106,336.519363994263
738328.59442397370003163815,-0.0492365286212755,-9.3303221737317,336.494745729952
738328.59442406415473669767,-0.0738547929319132,-9.34263130588702,336.470127465641
738328.59442415460944175720,-0.0492365286212755,-9.35494043804234,336.457818333486
738328.59442424494773149490,-0.0492365286212755,-9.30570390942106,336.519363994263
738328.59442433540243655443,-0.0369273964659566,-9.35494043804234,336.519363994263
738328.59442442585714161396,-0.0369273964659566,-9.3303221737317,336.507054862107
738328.59442451631184667349,-0.0246182643106377,-9.29339477726574,336.248563086845
738328.59442460665013641119,-0.0123091321553189,-9.30570390942106,336.383963540554
738328.59442469710484147072,-0.0123091321553189,-9.29339477726574,336.470127465641
738328.59442478755954653025,-0.0123091321553189,-9.29339477726574,336.507054862107
738328.59442487801425158978,-0.0246182643106377,-9.28108564511043,336.494745729952
738328.59442496846895664930,-0.0246182643106377,-9.28108564511043,336.42089093702
738328.59442505880724638700,0.0492365286212755,-9.23184911648915,336.494745729952
738328.59442514926195144653,0.0615456607765943,-9.19492172002319,336.494745729952
738328.59442523971665650606,0,-9.23184911648915,336.457818333486
738328.59442533017136156559,-0.0615456607765943,-9.30570390942106,336.42089093702
738328.59442542050965130329,-0.0369273964659566,-9.26877651295511,336.433200069175
738328.59442551096435636282,0,-9.21953998433383,336.457818333486
738328.59442560141906142235,0.0369273964659566,-9.15799432355724,336.494745729952
738328.59442569187376648188,0,-9.19492172002319,336.494745729952
738328.59442578221205621958,0,-9.25646738079979,336.519363994263
738328.59442587266676127911,0,-9.17030345571256,336.507054862107
738328.59442596312146633863,-0.0123091321553189,-9.21953998433383,336.507054862107
738328.59442605357617139816,0,-9.20723085217851,336.433200069175
738328.59442614391446113586,0,-9.21953998433383,336.494745729952
738328.59442623436916619539,0.0738547929319132,-9.17030345571256,336.482436597797
738328.59442632482387125492,0,-9.28108564511043,336.42089093702
738328.59442641527857631445,-0.0369273964659566,-9.29339477726574,336.457818333486
738328.59442650561686605215,-0.0492365286212755,-9.36724957019766,336.482436597797
738328.59442659607157111168,-0.0369273964659566,-9.34263130588702,336.42089093702
738328.59442668652627617121,-0.0492365286212755,-9.35494043804234,336.482436597797
738328.59442677698098123074,-0.0492365286212755,-9.36724957019766,336.482436597797
738328.59442686731927096844,-0.0615456607765943,-9.37955870235298,336.482436597797
738328.59442695777397602797,-0.0615456607765943,-9.37955870235298,336.42089093702
738328.59442704822868108749,-0.0615456607765943,-9.3918678345083,336.482436597797
738328.59442713868338614702,-0.0615456607765943,-9.37955870235298,336.482436597797
738328.59442722902167588472,-0.0615456607765943,-9.3918678345083,336.457818333486
738328.59442731947638094425,-0.0615456607765943,-9.37955870235298,336.433200069175
738328.59442740993108600378,-0.0615456607765943,-9.40417696666361,336.445509201331
738328.59442750038579106331,-0.0615456607765943,-9.37955870235298,336.322417879777
738328.59442759072408080101,-0.0369273964659566,-9.35494043804234,336.42089093702
738328.59442768117878586054,-0.0246182643106377,-9.35494043804234,336.433200069175
738328.59442777163349092007,-0.0246182643106377,-9.34263130588702,336.433200069175
738328.59442786208819597960,-0.0123091321553189,-9.31801304157638,336.433200069175
738328.59442795242648571730,-0.0492365286212755,-9.3918678345083,336.408581804865
738328.59442804288119077682,-0.0738547929319132,-9.35494043804234,336.285490483311
738328.59442813333589583635,-0.0738547929319132,-9.37955870235298,336.322417879777
738328.59442822379060089588,-0.0615456607765943,-9.40417696666361,336.383963540554
738328.59442831412889063358,-0.0492365286212755,-9.31801304157638,336.507054862107
738328.59442840458359569311,-0.0246182643106377,-9.36724957019766,336.543982258573
738328.59442849503830075264,-0.0492365286212755,-9.35494043804234,336.433200069175
738328.59442858549300581217,-0.0492365286212755,-9.35494043804234,336.507054862107
738328.59442867583129554987,0,-9.3303221737317,336.556291390728
738328.59442876628600060940,-0.0369273964659566,-9.34263130588702,336.543982258573
738328.59442885674070566893,-0.0738547929319132,-9.36724957019766,336.445509201331
738328.59442894719541072845,-0.0861639250872321,-9.40417696666361,336.507054862107
738328.59442903753370046616,-0.0615456607765943,-9.37955870235298,336.568600522884
738328.59442912798840552568,-0.0615456607765943,-9.40417696666361,336.580909655039
738328.59442921844311058521,-0.0738547929319132,-9.37955870235298,336.457818333486
738328.59442930889781564474,-0.0615456607765943,-9.36724957019766,336.519363994263
738328.59442939923610538244,-0.0861639250872321,-9.37955870235298,336.556291390728
738328.59442948969081044197,-0.0738547929319132,-9.37955870235298,336.445509201331
738328.59442958014551550150,-0.0984730572425509,-9.41648609881893,336.543982258573
738328.59442967060022056103,-0.0738547929319132,-9.37955870235298,336.507054862107
738328.59442976093851029873,-0.0615456607765943,-9.36724957019766,336.408581804865
738328.59442985139321535826,-0.0738547929319132,-9.3918678345083,336.42089093702
738328.59442994184792041779,-0.0861639250872321,-9.40417696666361,336.42089093702
738328.59443003230262547731,-0.0861639250872321,-9.40417696666361,336.408581804865
738328.59443012275733053684,-0.0738547929319132,-9.36724957019766,336.470127465641
738328.59443021309562027454,-0.0738547929319132,-9.42879523097425,336.507054862107
738328.59443030355032533407,-0.0861639250872321,-9.40417696666361,336.507054862107
738328.59443039400503039360,-0.0492365286212755,-9.3303221737317,336.371654408399
738328.59443048445973545313,-0.0738547929319132,-9.3918678345083,336.507054862107
738328.59443057479802519083,-0.0861639250872321,-9.40417696666361,336.507054862107
738328.59443066525273025036,-0.0123091321553189,-9.34263130588702,336.507054862107
738328.59443075570743530989,-0.0369273964659566,-9.35494043804234,336.445509201331
738328.59443084616214036942,-0.0861639250872321,-9.40417696666361,336.519363994263
738328.59443093650043010712,-0.11078218939787,-9.41648609881893,336.531673126418
738328.59443102695513516665,-0.0861639250872321,-9.40417696666361,336.494745729952
738328.59443111740984022617,-0.0861639250872321,-9.37955870235298,336.507054862107
738328.59443120786454528570,-0.0738547929319132,-9.41648609881893,336.433200069175
738328.59443129820283502340,-0.0369273964659566,-9.34263130588702,336.494745729952
738328.59443138865754008293,-0.11078218939787,-9.44110436312957,336.507054862107
738328.59443147911224514246,-0.0738547929319132,-9.36724957019766,336.433200069175
738328.59443156956695020199,-0.11078218939787,-9.42879523097425,336.285490483311
738328.59443165990523993969,0.0492365286212755,-9.30570390942106,336.347036144088
738328.59443175035994499922,0.0492365286212755,-9.26877651295511,336.396272672709
738328.59443184081465005875,-0.0246182643106377,-9.42879523097425,336.334727011933
738328.59443193126935511827,-0.0984730572425509,-9.42879523097425,336.334727011933
738328.59443202160764485598,-0.0123091321553189,-9.31801304157638,336.519363994263
738328.59443211206234991550,-0.0738547929319132,-9.40417696666361,336.531673126418
738328.59443220251705497503,-0.0861639250872321,-9.40417696666361,336.482436597797
738328.59443229297176003456,-0.0738547929319132,-9.40417696666361,336.494745729952
738328.59443238331004977226,-0.0984730572425509,-9.42879523097425,336.543982258573
738328.59443247376475483179,-0.0984730572425509,-9.41648609881893,336.593218787194
738328.59443256421945989132,-0.0984730572425509,-9.40417696666361,336.519363994263
738328.59443265467416495085,-0.0984730572425509,-9.41648609881893,336.568600522884
738328.59443274501245468855,-0.0984730572425509,-9.41648609881893,336.531673126418
738328.59443283546715974808,-0.0861639250872321,-9.41648609881893,336.531673126418
738328.59443292592186480761,-0.0615456607765943,-9.36724957019766,336.531673126418
738328.59443301637656986713,-0.0861639250872321,-9.3918678345083,336.470127465641
738328.59443310671485960484,-0.0615456607765943,-9.42879523097425,336.543982258573
738328.59443319716956466436,0.0123091321553189,-9.25646738079979,336.568600522884
738328.59443328762426972389,0.356964832504247,-8.71486556596576,336.347036144088
738328.59443337807897478342,0.750857061474451,-8.13633635466577,336.113162633137
738328.59443346841726452112,0.356964832504247,-8.61639250872321,336.199326558224
738328.59443355887196958065,-0.172327850174464,-9.5888139489934,336.396272672709
738328.59443364932667464018,-0.172327850174464,-9.50265002390617,336.322417879777
738328.59443373978137969971,-0.0492365286212755,-9.35494043804234,336.470127465641
738328.59443383011966943741,-0.0615456607765943,-9.37955870235298,336.494745729952
738328.59443392057437449694,-0.123091321553189,-9.41648609881893,336.507054862107
738328.59443401102907955647,-0.0861639250872321,-9.3918678345083,336.519363994263
738328.59443410148378461599,-0.0861639250872321,-9.40417696666361,336.519363994263
738328.59443419182207435369,-0.11078218939787,-9.42879523097425,336.531673126418
738328.59443428227677941322,-0.123091321553189,-9.41648609881893,336.396272672709
738328.59443437273148447275,-0.0984730572425509,-9.3918678345083,336.507054862107
738328.59443446318618953228,-0.0984730572425509,-9.44110436312957,336.531673126418
738328.59443455352447926998,-0.0984730572425509,-9.3918678345083,336.519363994263
738328.59443464397918432951,-0.0738547929319132,-9.36724957019766,336.433200069175
738328.59443473443388938904,-0.0492365286212755,-9.3303221737317,336.457818333486
738328.59443482488859444857,-0.0615456607765943,-9.35494043804234,336.445509201331
738328.59443491522688418627,-0.0861639250872321,-9.3918678345083,336.408581804865
738328.59443500568158924580,-0.11078218939787,-9.40417696666361,336.42089093702
738328.59443509613629430532,-0.0861639250872321,-9.3918678345083,336.445509201331
738328.59443518659099936485,-0.0861639250872321,-9.36724957019766,336.396272672709
738328.59443527692928910255,-0.0246182643106377,-9.31801304157638,336.457818333486
738328.59443536738399416208,-0.0492365286212755,-9.3303221737317,336.470127465641
738328.59443545783869922161,-0.0738547929319132,-9.35494043804234,336.470127465641
738328.59443554829340428114,-0.0738547929319132,-9.34263130588702,336.445509201331
738328.59443563874810934067,-0.0369273964659566,-9.30570390942106,336.470127465641
738328.59443572908639907837,0,-9.26877651295511,336.470127465641
738328.59443581954110413790,-0.0123091321553189,-9.25646738079979,336.494745729952
738328.59443590999580919743,-0.0615456607765943,-9.31801304157638,336.519363994263
738328.59443600045051425695,-0.0369273964659566,-9.25646738079979,336.531673126418
738328.59443609078880399466,-0.0246182643106377,-9.23184911648915,336.457818333486
738328.59443618124350905418,-0.0123091321553189,-9.28108564511043,336.543982258573
738328.59443627169821411371,0,-9.19492172002319,336.543982258573
738328.59443636215291917324,-0.0123091321553189,-9.19492172002319,336.556291390728
738328.59443645249120891094,0,-9.21953998433383,336.482436597797
738328.59443654294591397047,0,-9.24415824864447,336.568600522884
738328.59443663340061903000,-0.0492365286212755,-9.26877651295511,336.543982258573
738328.59443672385532408953,-0.0246182643106377,-9.28108564511043,336.457818333486
738328.59443681419361382723,-0.0246182643106377,-9.26877651295511,336.507054862107
738328.59443690464831888676,-0.0246182643106377,-9.3303221737317,336.531673126418
738328.59443699510302394629,-0.0369273964659566,-9.34263130588702,336.556291390728
738328.59443708555772900581,-0.0369273964659566,-9.3303221737317,336.568600522884
738328.59443717589601874352,-0.0492365286212755,-9.35494043804234,336.445509201331
738328.59443726635072380304,-0.0984730572425509,-9.40417696666361,336.507054862107
738328.59443735680542886257,-0.0984730572425509,-9.41648609881893,336.519363994263
738328.59443744726013392210,-0.0861639250872321,-9.41648609881893,336.445509201331
738328.59443753759842365980,-0.0861639250872321,-9.41648609881893,336.531673126418
738328.59443762805312871933,-0.0861639250872321,-9.3918678345083,336.568600522884
738328.59443771850783377886,-0.0984730572425509,-9.40417696666361,336.519363994263
738328.59443780896253883839,-0.0861639250872321,-9.3918678345083,336.507054862107
738328.59443789930082857609,-0.0861639250872321,-9.41648609881893,336.568600522884
738328.59443798975553363562,-0.0738547929319132,-9.40417696666361,336.543982258573
738328.59443808021023869514,-0.0246182643106377,-9.3303221737317,336.482436597797
738328.59443817066494375467,-0.0369273964659566,-9.36724957019766,336.568600522884
738328.59443826100323349237,-0.11078218939787,-9.41648609881893,336.531673126418
738328.59443835145793855190,-0.0861639250872321,-9.41648609881893,336.494745729952
738328.59443844191264361143,-0.0492365286212755,-9.3918678345083,336.457818333486
738328.59443853236734867096,-0.0246182643106377,-9.34263130588702,336.507054862107
738328.59443862270563840866,-0.0984730572425509,-9.41648609881893,336.42089093702
738328.59443871316034346819,-0.0861639250872321,-9.42879523097425,336.285490483311
738328.59443880361504852772,-0.0738547929319132,-9.3918678345083,336.482436597797
738328.59443889406975358725,-0.0615456607765943,-9.40417696666361,336.482436597797
738328.59443898440804332495,-0.0738547929319132,-9.3918678345083,336.42089093702
738328.59443907486274838448,-0.0738547929319132,-9.37955870235298,336.482436597797
738328.59443916531745344400,-0.0615456607765943,-9.37955870235298,336.482436597797
738328.59443925577215850353,-0.0738547929319132,-9.37955870235298,336.470127465641
738328.59443934611044824123,-0.0738547929319132,-9.3918678345083,336.482436597797
738328.59443943656515330076,-0.0738547929319132,-9.3918678345083,336.494745729952
738328.59443952701985836029,-0.0738547929319132,-9.41648609881893,336.494745729952
738328.59443961747456341982,-0.0738547929319132,-9.37955870235298,336.359345276243
738328.59443970781285315752,-0.0861639250872321,-9.40417696666361,336.494745729952
738328.59443979826755821705,-0.0861639250872321,-9.40417696666361,336.494745729952
738328.59443988872226327658,-0.0861639250872321,-9.40417696666361,336.383963540554
738328.59443997917696833611,-0.0861639250872321,-9.3918678345083,336.408581804865
738328.59444006951525807381,-0.0861639250872321,-9.37955870235298,336.433200069175
738328.59444015996996313334,-0.0861639250872321,-9.44110436312957,336.42089093702
738328.59444025042466819286,-0.0861639250872321,-9.3918678345083,336.433200069175
738328.59444034087937325239,-0.0861639250872321,-9.3918678345083,336.445509201331
738328.59444043121766299009,-0.0861639250872321,-9.40417696666361,336.457818333486
738328.59444052167236804962,-0.0861639250872321,-9.42879523097425,336.457818333486
738328.59444061212707310915,-0.0984730572425509,-9.41648609881893,336.396272672709
738328.59444070258177816868,-0.0984730572425509,-9.41648609881893,336.42089093702
738328.59444079303648322821,-0.0861639250872321,-9.41648609881893,336.445509201331
738328.59444088337477296591,-0.0861639250872321,-9.41648609881893,336.396272672709
738328.59444097382947802544,-0.0861639250872321,-9.3918678345083,336.42089093702
738328.59444106428418308496,-0.0984730572425509,-9.41648609881893,336.42089093702
738328.59444115473888814449,-0.0984730572425509,-9.41648609881893,336.457818333486
738328.59444124507717788219,-0.0738547929319132,-9.37955870235298,336.482436597797
738328.59444133553188294172,-0.0738547929319132,-9.41648609881893,336.494745729952
738328.59444142598658800125,-0.0246182643106377,-9.3303221737317,336.507054862107
738328.59444151644129306078,-0.0984730572425509,-9.45341349528489,336.457818333486
738328.59444160677958279848,-0.172327850174464,-9.47803175959553,336.543982258573
738328.59444169723428785801,-0.172327850174464,-9.46572262744021,336.519363994263
738328.59444178768899291754,-0.123091321553189,-9.44110436312957,336.445509201331
738328.59444187814369797707,-0.11078218939787,-9.42879523097425,336.494745729952
738328.59444196848198771477,-0.0984730572425509,-9.44110436312957,336.531673126418
738328.59444205893669277430,-0.0984730572425509,-9.41648609881893,336.531673126418
738328.59444214939139783382,-0.0615456607765943,-9.37955870235298,336.383963540554
738328.59444223984610289335,-0.0615456607765943,-9.42879523097425,336.334727011933
738328.59444233018439263105,-0.0615456607765943,-9.40417696666361,336.531673126418
738328.59444242063909769058,-0.0492365286212755,-9.3918678345083,336.482436597797
738328.59444251109380275011,-0.0123091321553189,-9.42879523097425,336.396272672709
738328.59444260154850780964,-0.0246182643106377,-9.37955870235298,336.470127465641
738328.59444269188679754734,-0.0246182643106377,-9.36724957019766,336.470127465641
738328.59444278234150260687,-0.0369273964659566,-9.37955870235298,336.433200069175
738328.59444287279620766640,-0.0246182643106377,-9.35494043804234,336.531673126418
738328.59444296325091272593,-0.0369273964659566,-9.36724957019766,336.519363994263
738328.59444305358920246363,-0.0123091321553189,-9.36724957019766,336.445509201331
738328.59444314404390752316,-0.0984730572425509,-9.42879523097425,336.494745729952
738328.59444323449861258268,-0.11078218939787,-9.44110436312957,336.556291390728
738328.59444332495331764221,-0.11078218939787,-9.42879523097425,336.470127465641
738328.59444341529160737991,-0.11078218939787,-9.41648609881893,336.507054862107
738328.59444350574631243944,-0.0984730572425509,-9.42879523097425,336.543982258573
738328.59444359620101749897,-0.0984730572425509,-9.44110436312957,336.482436597797
738328.59444368665572255850,-0.0738547929319132,-9.41648609881893,336.457818333486
738328.59444377699401229620,-0.0861639250872321,-9.42879523097425,336.494745729952
738328.59444386744871735573,-0.0369273964659566,-9.37955870235298,336.531673126418
738328.59444395790342241526,0.344655700348928,-8.76410209458703,336.482436597797
738328.59444404835812747478,0.713929665008494,-8.21019114759769,336.137780897448
738328.59444413869641721249,0.492365286212755,-8.40713726208279,336.150090029603
738328.59444422915112227201,-0.0492365286212755,-9.36724957019766,336.297799615467
738328.59444431960582733154,-0.22156437879574,-9.56419568468276,336.433200069175
738328.59444441006053239107,-0.0861639250872321,-9.41648609881893,336.383963540554
738328.59444450039882212877,-0.0492365286212755,-9.37955870235298,336.383963540554
738328.59444459085352718830,-0.0492365286212755,-9.40417696666361,336.445509201331
738328.59444468130823224783,-0.0492365286212755,-9.37955870235298,336.445509201331
738328.59444477176293730736,-0.0492365286212755,-9.36724957019766,336.482436597797
738328.59444486210122704506,-0.0738547929319132,-9.40417696666361,336.445509201331
738328.59444495255593210459,-0.0738547929319132,-9.41648609881893,336.531673126418
738328.59444504301063716412,-0.0492365286212755,-9.37955870235298,336.433200069175
738328.59444513346534222364,-0.0492365286212755,-9.36724957019766,336.457818333486
738328.59444522380363196135,-0.0492365286212755,-9.37955870235298,336.445509201331
738328.59444531425833702087,-0.0492365286212755,-9.36724957019766,336.507054862107
738328.59444540471304208040,-0.0492365286212755,-9.37955870235298,336.568600522884
738328.59444549516774713993,-0.0369273964659566,-9.36724957019766,336.568600522884
738328.59444558550603687763,-0.0369273964659566,-9.36724957019766,336.593218787194
738328.59444567596074193716,-0.0123091321553189,-9.3303221737317,336.408581804865
738328.59444576641544699669,-0.0123091321553189,-9.3303221737317,336.383963540554
738328.59444585687015205622,-0.0615456607765943,-9.40417696666361,336.519363994263
738328.59444594732485711575,-0.0492365286212755,-9.35494043804234,336.507054862107
738328.59444603766314685345,-0.0246182643106377,-9.36724957019766,336.445509201331
738328.59444612811785191298,-0.0123091321553189,-9.31801304157638,336.445509201331
738328.59444621857255697250,0,-9.29339477726574,336.445509201331
738328.59444630902726203203,-0.0123091321553189,-9.29339477726574,336.445509201331
738328.59444639936555176973,-0.0246182643106377,-9.34263130588702,336.408581804865
738328.59444648982025682926,0,-9.29339477726574,336.519363994263
738328.59444658027496188879,0,-9.28108564511043,336.519363994263
738328.59444667072966694832,0,-9.26877651295511,336.445509201331
738328.59444676106795668602,0.0246182643106377,-9.23184911648915,336.531673126418
738328.59444685152266174555,0.11078218939787,-9.18261258786788,336.531673126418
738328.59444694197736680508,-0.0123091321553189,-9.24415824864447,336.482436597797
738328.59444703243207186460,-0.0246182643106377,-9.28108564511043,336.519363994263
738328.59444712277036160231,0,-9.25646738079979,336.519363994263
738328.59444721322506666183,0.0246182643106377,-9.24415824864447,336.519363994263
738328.59444730367977172136,0.0246182643106377,-9.25646738079979,336.470127465641
738328.59444739413447678089,0.0123091321553189,-9.26877651295511,336.494745729952
738328.59444748447276651859,0.0246182643106377,-9.26877651295511,336.494745729952
738328.59444757492747157812,0.0246182643106377,-9.31801304157638,336.457818333486
738328.59444766538217663765,0.0369273964659566,-9.28108564511043,336.482436597797
738328.59444775583688169718,0.0369273964659566,-9.31801304157638,336.470127465641
738328.59444784617517143488,-0.0246182643106377,-9.36724957019766,336.482436597797
738328.59444793662987649441,0,-9.36724957019766,336.42089093702
738328.59444802708458155394,-0.0369273964659566,-9.37955870235298,336.482436597797
738328.59444811753928661346,-0.0123091321553189,-9.36724957019766,336.445509201331
738328.59444820787757635117,-0.0123091321553189,-9.36724957019766,336.42089093702
738328.59444829833228141069,-0.0369273964659566,-9.3918678345083,336.494745729952
738328.59444838878698647022,-0.0615456607765943,-9.40417696666361,336.494745729952
738328.59444847924169152975,-0.0123091321553189,-9.35494043804234,336.457818333486
738328.59444856957998126745,-0.0738547929319132,-9.42879523097425,336.494745729952
738328.59444866003468632698,-0.0369273964659566,-9.40417696666361,336.482436597797
738328.59444875048939138651,-0.0123091321553189,-9.37955870235298,336.494745729952
738328.59444884094409644604,-0.0246182643106377,-9.37955870235298,336.457818333486
738328.59444893128238618374,0.0123091321553189,-9.36724957019766,336.482436597797
738328.59444902173709124327,-0.0123091321553189,-9.37955870235298,336.470127465641
738328.59444911219179630280,0.0123091321553189,-9.37955870235298,336.445509201331
738328.59444920264650136232,-0.0123091321553189,-9.34263130588702,336.199326558224
738328.59444929298479110003,0.0123091321553189,-9.34263130588702,336.334727011933
738328.59444938343949615955,0.0123091321553189,-9.35494043804234,336.408581804865
738328.59444947389420121908,0,-9.36724957019766,336.408581804865
738328.59444956434890627861,0.0123091321553189,-9.36724957019766,336.494745729952
738328.59444965468719601631,0.0123091321553189,-9.35494043804234,336.494745729952
738328.59444974514190107584,0,-9.36724957019766,336.519363994263
738328.59444983559660613537,0,-9.34263130588702,336.445509201331
738328.59444992605131119490,0.0369273964659566,-9.35494043804234,336.482436597797
738328.59445001638960093260,0.0246182643106377,-9.34263130588702,336.543982258573
738328.59445010684430599213,0,-9.34263130588702,336.482436597797
738328.59445019729901105165,-0.0492365286212755,-9.40417696666361,336.531673126418
738328.59445028775371611118,-0.0246182643106377,-9.36724957019766,336.507054862107
738328.59445037809200584888,-0.0123091321553189,-9.3918678345083,336.507054862107
738328.59445046854671090841,0,-9.36724957019766,336.482436597797
738328.59445055900141596794,0,-9.36724957019766,336.507054862107
738328.59445064945612102747,-0.0123091321553189,-9.37955870235298,336.494745729952
738328.59445073979441076517,-0.0123091321553189,-9.37955870235298,336.494745729952
738328.59445083024911582470,-0.0123091321553189,-9.40417696666361,336.507054862107
738328.59445092070382088423,-0.0123091321553189,-9.36724957019766,336.494745729952
738328.59445101115852594376,0,-9.36724957019766,336.433200069175
738328.59445110149681568146,0,-9.37955870235298,336.408581804865
738328.59445119195152074099,0,-9.36724957019766,336.507054862107
738328.59445128240622580051,0,-9.36724957019766,336.494745729952
738328.59445137286093086004,0,-9.36724957019766,336.507054862107
738328.59445146331563591957,0.0123091321553189,-9.3918678345083,336.470127465641
738328.59445155365392565727,0.0123091321553189,-9.36724957019766,336.494745729952
738328.59445164410863071680,0.0123091321553189,-9.36724957019766,336.519363994263
738328.59445173456333577633,0.0123091321553189,-9.37955870235298,336.445509201331
738328.59445182501804083586,0,-9.36724957019766,336.494745729952
738328.59445191535633057356,0,-9.36724957019766,336.507054862107
738328.59445200581103563309,0.0984730572425509,-9.26877651295511,336.445509201331
738328.59445209626574069262,-0.0246182643106377,-9.41648609881893,336.519363994263
738328.59445218672044575214,-0.0615456607765943,-9.41648609881893,336.507054862107
738328.59445227705873548985,-0.0369273964659566,-9.40417696666361,336.482436597797
738328.59445236751344054937,-0.0246182643106377,-9.40417696666361,336.396272672709
738328.59445245796814560890,0.0738547929319132,-9.31801304157638,336.507054862107
738328.59445254842285066843,0.0246182643106377,-9.35494043804234,336.433200069175
738328.59445263876114040613,-0.0738547929319132,-9.42879523097425,336.494745729952
738328.59445272921584546566,-0.0246182643106377,-9.40417696666361,336.285490483311
738328.59445281967055052519,0.0123091321553189,-9.35494043804234,336.371654408399
738328.59445291012525558472,0,-9.40417696666361,336.433200069175
738328.59445300046354532242,0.0615456607765943,-9.34263130588702,336.42089093702
738328.59445309091825038195,0.0738547929319132,-9.35494043804234,336.396272672709
738328.59445318137295544147,0.0984730572425509,-9.28108564511043,336.383963540554
738328.59445327182766050100,0.0615456607765943,-9.36724957019766,336.433200069175
738328.59445336216595023870,0.0123091321553189,-9.35494043804234,336.445509201331
738328.59445345262065529823,0.0123091321553189,-9.37955870235298,336.445509201331
738328.59445354307536035776,-0.0246182643106377,-9.36724957019766,336.470127465641
738328.59445363353006541729,-0.0246182643106377,-9.40417696666361,336.408581804865
738328.59445372386835515499,-0.0246182643106377,-9.3918678345083,336.433200069175
738328.59445381432306021452,-0.0246182643106377,-9.37955870235298,336.507054862107
738328.59445390477776527405,-0.0369273964659566,-9.41648609881893,336.470127465641
738328.59445399523247033358,0.0246182643106377,-9.34263130588702,336.556291390728
738328.59445408557076007128,0.0738547929319132,-9.29339477726574,336.457818333486
738328.59445417602546513081,-0.0738547929319132,-9.42879523097425,336.383963540554
738328.59445426648017019033,-0.0492365286212755,-9.41648609881893,336.433200069175
738328.59445435693487524986,-0.0123091321553189,-9.42879523097425,336.470127465641
738328.59445444727316498756,0.22156437879574,-9.03490300200405,336.482436597797
738328.59445453772787004709,0.664693136387219,-8.32097333699555,336.248563086845
738328.59445462818257510662,0.713929665008494,-8.17326375113173,336.150090029603
738328.59445471863728016615,0.22156437879574,-9.03490300200405,336.248563086845
738328.59445480897556990385,-0.123091321553189,-9.53957742037212,336.408581804865
738328.59445489943027496338,-0.0246182643106377,-9.42879523097425,336.457818333486
738328.59445498988498002291,0.0246182643106377,-9.3918678345083,336.445509201331
738328.59445508033968508244,0.0246182643106377,-9.35494043804234,336.433200069175
738328.59445517067797482014,0.0246182643106377,-9.34263130588702,336.482436597797
738328.59445526113267987967,0.0123091321553189,-9.34263130588702,336.507054862107
738328.59445535158738493919,0.0123091321553189,-9.37955870235298,336.507054862107
738328.59445544204208999872,0,-9.35494043804234,336.383963540554
738328.59445553238037973642,0,-9.34263130588702,336.445509201331
738328.59445562283508479595,0,-9.37955870235298,336.482436597797
738328.59445571328978985548,0.0123091321553189,-9.31801304157638,336.445509201331
738328.59445580374449491501,0.0123091321553189,-9.3918678345083,336.457818333486
738328.59445589408278465271,0,-9.3303221737317,336.507054862107
738328.59445598453748971224,0.0123091321553189,-9.3303221737317,336.507054862107
738328.59445607499219477177,0.0492365286212755,-9.31801304157638,336.433200069175
738328.59445616544689983130,0.0984730572425509,-9.24415824864447,336.507054862107
738328.59445625578518956900,-0.0123091321553189,-9.37955870235298,336.359345276243
738328.59445634623989462852,-0.0246182643106377,-9.36724957019766,336.371654408399
738328.59445643669459968805,0.0123091321553189,-9.35494043804234,336.507054862107
738328.59445652714930474758,0.0123091321553189,-9.34263130588702,336.42089093702
738328.59445661760400980711,0.0246182643106377,-9.3303221737317,336.470127465641
738328.59445670794229954481,0.0369273964659566,-9.30570390942106,336.482436597797
738328.59445679839700460434,0.0492365286212755,-9.28108564511043,336.507054862107
738328.59445688885170966387,0.0615456607765943,-9.26877651295511,336.519363994263
738328.59445697930641472340,0.0492365286212755,-9.30570390942106,336.507054862107
738328.59445706964470446110,0.0615456607765943,-9.26877651295511,336.470127465641
738328.59445716009940952063,0.0738547929319132,-9.23184911648915,336.556291390728
738328.59445725055411458015,0.0861639250872321,-9.20723085217851,336.568600522884
738328.59445734100881963968,0.0738547929319132,-9.25646738079979,336.445509201331
738328.59445743134710937738,0.0615456607765943,-9.20723085217851,336.556291390728
738328.59445752180181443691,0.0738547929319132,-9.23184911648915,336.556291390728
738328.59445761225651949644,0.0861639250872321,-9.18261258786788,336.519363994263
738328.59445770271122455597,0.0738547929319132,-9.20723085217851,336.482436597797
738328.59445779304951429367,0.11078218939787,-9.20723085217851,336.433200069175
738328.59445788350421935320,0.11078218939787,-9.19492172002319,336.408581804865
738328.59445797395892441273,0.0861639250872321,-9.23184911648915,336.445509201331
738328.59445806441362947226,0.0369273964659566,-9.30570390942106,336.42089093702
738328.59445815475191920996,0.0492365286212755,-9.31801304157638,336.445509201331
738328.59445824520662426949,0.0492365286212755,-9.31801304157638,336.507054862107
738328.59445833566132932901,0.0246182643106377,-9.3303221737317,336.470127465641
738328.59445842611603438854,0.0246182643106377,-9.34263130588702,336.568600522884
738328.59445851645432412624,0.0246182643106377,-9.3918678345083,336.580909655039
738328.59445860690902918577,0.0369273964659566,-9.35494043804234,336.494745729952
738328.59445869736373424530,0.0369273964659566,-9.35494043804234,336.507054862107
738328.59445878781843930483,0.0246182643106377,-9.36724957019766,336.531673126418
738328.59445887815672904253,0.0123091321553189,-9.37955870235298,336.580909655039
738328.59445896861143410206,0.0246182643106377,-9.34263130588702,336.556291390728
738328.59445905906613916159,0.0369273964659566,-9.37955870235298,336.470127465641
738328.59445914952084422112,0.0369273964659566,-9.35494043804234,336.556291390728
738328.59445923985913395882,0.0369273964659566,-9.35494043804234,336.543982258573
738328.59445933031383901834,0.0369273964659566,-9.35494043804234,336.457818333486
738328.59445942076854407787,0.0492365286212755,-9.34263130588702,336.494745729952
738328.59445951122324913740,0.0492365286212755,-9.3303221737317,336.482436597797
738328.59445960156153887510,0.0369273964659566,-9.35494043804234,336.457818333486
738328.59445969201624393463,0.0369273964659566,-9.34263130588702,336.494745729952
738328.59445978247094899416,0.0369273964659566,-9.37955870235298,336.347036144088
738328.59445987292565405369,0.0615456607765943,-9.31801304157638,336.359345276243
738328.59445996326394379139,0.0984730572425509,-9.3303221737317,336.482436597797
738328.59446005371864885092,0.0369273964659566,-9.35494043804234,336.494745729952
738328.59446014417335391045,0.0123091321553189,-9.36724957019766,336.494745729952
738328.59446023462805896997,0.0123091321553189,-9.34263130588702,336.433200069175
738328.59446032496634870768,0.0369273964659566,-9.35494043804234,336.494745729952
738328.59446041542105376720,0.0369273964659566,-9.35494043804234,336.494745729952
738328.59446050587575882673,0.0369273964659566,-9.36724957019766,336.482436597797
738328.59446059633046388626,0.0492365286212755,-9.35494043804234,336.482436597797
738328.59446068666875362396,0.0246182643106377,-9.35494043804234,336.494745729952
738328.59446077712345868349,0.0369273964659566,-9.34263130588702,336.482436597797
738328.59446086757816374302,0.0369273964659566,-9.35494043804234,336.371654408399
738328.59446095803286880255,0.0246182643106377,-9.36724957019766,336.494745729952
738328.59446104837115854025,0.0123091321553189,-9.37955870235298,336.507054862107
738328.59446113882586359978,0.0123091321553189,-9.3918678345083,336.494745729952
738328.59446122928056865931,0.0246182643106377,-9.36724957019766,336.42089093702
738328.59446131973527371883,0.0246182643106377,-9.36724957019766,336.396272672709
738328.59446141007356345654,0.0246182643106377,-9.37955870235298,336.482436597797
738328.59446150052826851606,0.0246182643106377,-9.36724957019766,336.507054862107
738328.59446159098297357559,0.0246182643106377,-9.36724957019766,336.507054862107
738328.59446168143767863512,0.0492365286212755,-9.3303221737317,336.396272672709
738328.59446177189238369465,0,-9.37955870235298,336.445509201331
738328.59446186223067343235,0.0123091321553189,-9.35494043804234,336.445509201331
738328.59446195268537849188,0.0246182643106377,-9.37955870235298,336.383963540554
738328.59446204314008355141,0,-9.3918678345083,336.42089093702
738328.59446213359478861094,0.0246182643106377,-9.36724957019766,336.457818333486
738328.59446222393307834864,0.0123091321553189,-9.36724957019766,336.457818333486
738328.59446231438778340816,0,-9.37955870235298,336.507054862107
738328.59446240484248846769,0.0123091321553189,-9.3918678345083,336.507054862107
738328.59446249529719352722,0.0123091321553189,-9.37955870235298,336.507054862107
738328.59446258563548326492,0.0123091321553189,-9.37955870235298,336.445509201331
738328.59446267609018832445,0.0123091321553189,-9.36724957019766,336.507054862107
738328.59446276654489338398,0.0123091321553189,-9.36724957019766,336.507054862107
738328.59446285699959844351,0.0123091321553189,-9.36724957019766,336.482436597797
738328.59446294733788818121,0,-9.3918678345083,336.470127465641
738328.59446303779259324074,0.0123091321553189,-9.3918678345083,336.482436597797
738328.59446312824729830027,0.0123091321553189,-9.3918678345083,336.482436597797
738328.59446321870200335979,0.0246182643106377,-9.37955870235298,336.42089093702
738328.59446330904029309750,0.0246182643106377,-9.3918678345083,336.371654408399
738328.59446339949499815702,0.0369273964659566,-9.36724957019766,336.359345276243
738328.59446348994970321655,0.0861639250872321,-9.3303221737317,336.383963540554
738328.59446358040440827608,0.0861639250872321,-9.34263130588702,336.408581804865
738328.59446367074269801378,0.0738547929319132,-9.3303221737317,336.445509201331
738328.59446376119740307331,0.0738547929319132,-9.30570390942106,336.396272672709
738328.59446385165210813284,0.0246182643106377,-9.44110436312957,336.457818333486
738328.59446394210681319237,0.0246182643106377,-9.35494043804234,336.482436597797
738328.59446403244510293007,0.0492365286212755,-9.34263130588702,336.445509201331
738328.59446412289980798960,0.0615456607765943,-9.30570390942106,336.494745729952
738328.59446421335451304913,-0.0246182643106377,-9.40417696666361,336.507054862107
738328.59446430380921810865,-0.0615456607765943,-9.47803175959553,336.519363994263
738328.59446439414750784636,-0.0246182643106377,-9.40417696666361,336.42089093702
738328.59446448460221290588,0.0123091321553189,-9.36724957019766,336.494745729952
738328.59446457505691796541,0,-9.40417696666361,336.445509201331
738328.59446466551162302494,-0.0246182643106377,-9.41648609881893,336.445509201331
738328.59446475584991276264,-0.0123091321553189,-9.37955870235298,336.519363994263
738328.59446484630461782217,0.0738547929319132,-9.3303221737317,336.531673126418
738328.59446493675932288170,0.246182643106377,-8.94873907691682,336.519363994263
738328.59446502721402794123,0.750857061474451,-8.33328246915087,336.23625395469
738328.59446511755231767893,0.603147475610625,-8.45637379070406,336.162399161758
738328.59446520800702273846,0.123091321553189,-9.41648609881893,336.23625395469
738328.59446529846172779799,-0.0984730572425509,-9.5888139489934,336.396272672709
738328.59446538891643285751,-0.0369273964659566,-9.47803175959553,336.445509201331
738328.59446547925472259521,-0.0123091321553189,-9.41648609881893,336.445509201331
738328.59446556970942765474,0.0123091321553189,-9.41648609881893,336.42089093702
738328.59446566016413271427,0.0123091321553189,-9.36724957019766,336.494745729952
738328.59446575061883777380,0.0246182643106377,-9.34263130588702,336.507054862107
738328.59446584095712751150,0.0246182643106377,-9.35494043804234,336.433200069175
738328.59446593141183257103,0.0369273964659566,-9.3303221737317,336.445509201331
738328.59446602186653763056,0.0615456607765943,-9.30570390942106,336.470127465641
738328.59446611232124269009,0.0123091321553189,-9.35494043804234,336.396272672709
738328.59446620265953242779,-0.0246182643106377,-9.3918678345083,336.494745729952
738328.59446629311423748732,0.0123091321553189,-9.35494043804234,336.445509201331
738328.59446638356894254684,0,-9.35494043804234,336.470127465641
738328.59446647402364760637,0.0123091321553189,-9.35494043804234,336.494745729952
738328.59446656436193734407,0.0123091321553189,-9.36724957019766,336.470127465641
738328.59446665481664240360,0.0246182643106377,-9.31801304157638,336.494745729952
738328.59446674527134746313,0.0615456607765943,-9.30570390942106,336.543982258573
738328.59446683572605252266,0.0492365286212755,-9.29339477726574,336.383963540554
738328.59446692618075758219,0.0369273964659566,-9.30570390942106,336.285490483311
738328.59446701651904731989,0,-9.34263130588702,336.445509201331
738328.59446710697375237942,0.0246182643106377,-9.31801304157638,336.433200069175
738328.59446719742845743895,0.0246182643106377,-9.31801304157638,336.42089093702
738328.59446728788316249847,0.0492365286212755,-9.29339477726574,336.507054862107
738328.59446737822145223618,0.0492365286212755,-9.26877651295511,336.568600522884
738328.59446746867615729570,0.0738547929319132,-9.25646738079979,336.494745729952
738328.59446755913086235523,0.0615456607765943,-9.23184911648915,336.494745729952
738328.59446764958556741476,0.0738547929319132,-9.25646738079979,336.519363994263
738328.59446773992385715246,0.0861639250872321,-9.19492172002319,336.519363994263
738328.59446783037856221199,0.123091321553189,-9.15799432355724,336.519363994263
738328.59446792083326727152,0.0861639250872321,-9.19492172002319,336.470127465641
738328.59446801128797233105,0.0369273964659566,-9.24415824864447,336.494745729952
738328.59446810162626206875,0.0369273964659566,-9.23184911648915,336.507054862107
738328.59446819208096712828,0.0492365286212755,-9.24415824864447,336.494745729952
738328.59446828253567218781,0.0738547929319132,-9.23184911648915,336.482436597797
738328.59446837299037724733,0.0615456607765943,-9.23184911648915,336.470127465641
738328.59446846332866698503,0.11078218939787,-9.21953998433383,336.482436597797
738328.59446855378337204456,0.0492365286212755,-9.29339477726574,336.470127465641
738328.59446864423807710409,0.0738547929319132,-9.30570390942106,336.42089093702
738328.59446873469278216362,0.0615456607765943,-9.30570390942106,336.482436597797
738328.59446882503107190132,0.0615456607765943,-9.31801304157638,336.470127465641
738328.59446891548577696085,0,-9.35494043804234,336.445509201331
738328.59446900594048202038,0,-9.37955870235298,336.470127465641
738328.59446909639518707991,0.0123091321553189,-9.36724957019766,336.482436597797
738328.59446918673347681761,0.0369273964659566,-9.3303221737317,336.433200069175
738328.59446927718818187714,0.0123091321553189,-9.3918678345083,336.433200069175
738328.59446936764288693666,0,-9.37955870235298,336.408581804865
738328.59446945809759199619,0.0246182643106377,-9.37955870235298,336.371654408399
738328.59446954843588173389,0.0369273964659566,-9.35494043804234,336.482436597797
738328.59446963889058679342,0.0246182643106377,-9.35494043804234,336.482436597797
738328.59446972934529185295,0.0738547929319132,-9.29339477726574,336.457818333486
738328.59446981979999691248,0.0984730572425509,-9.3303221737317,336.445509201331
738328.59446991013828665018,0.0615456607765943,-9.34263130588702,336.470127465641
738328.59447000059299170971,0.0123091321553189,-9.34263130588702,336.457818333486
738328.59447009104769676924,0.0492365286212755,-9.30570390942106,336.433200069175
738328.59447018150240182877,0,-9.34263130588702,336.445509201331
738328.59447027184069156647,-0.0123091321553189,-9.42879523097425,336.457818333486
738328.59447036229539662600,0.0246182643106377,-9.34263130588702,336.322417879777
738328.59447045275010168552,0.0246182643106377,-9.35494043804234,336.260872219001
738328.59447054320480674505,0.0369273964659566,-9.3303221737317,336.408581804865
738328.59447063354309648275,0.0492365286212755,-9.31801304157638,336.371654408399
738328.59447072399780154228,0.0615456607765943,-9.30570390942106,336.371654408399
738328.59447081445250660181,0.0123091321553189,-9.36724957019766,336.396272672709
738328.59447090490721166134,0.0123091321553189,-9.36724957019766,336.433200069175
738328.59447099524550139904,0.0246182643106377,-9.34263130588702,336.470127465641
738328.59447108570020645857,0.0369273964659566,-9.34263130588702,336.445509201331
738328.59447117615491151810,0,-9.36724957019766,336.470127465641
738328.59447126660961657763,0.0492365286212755,-9.34263130588702,336.531673126418
738328.59447135694790631533,0.0246182643106377,-9.34263130588702,336.445509201331
738328.59447144740261137486,0,-9.36724957019766,336.457818333486
738328.59447153785731643438,-0.0246182643106377,-9.41648609881893,336.507054862107
738328.59447162831202149391,0,-9.37955870235298,336.457818333486
738328.59447171865031123161,0.0123091321553189,-9.36724957019766,336.408581804865
738328.59447180910501629114,0,-9.36724957019766,336.42089093702
738328.59447189955972135067,0.0123091321553189,-9.37955870235298,336.457818333486
738328.59447199001442641020,0.0123091321553189,-9.36724957019766,336.457818333486
738328.59447208035271614790,0.0123091321553189,-9.35494043804234,336.408581804865
738328.59447217080742120743,0.0369273964659566,-9.34263130588702,336.470127465641
738328.59447226126212626696,0,-9.36724957019766,336.482436597797
738328.59447235171683132648,-0.0123091321553189,-9.37955870235298,336.408581804865
738328.59447244217153638601,-0.0123091321553189,-9.3918678345083,336.482436597797
738328.59447253250982612371,0.0246182643106377,-9.34263130588702,336.457818333486
738328.59447262296453118324,0.0123091321553189,-9.35494043804234,336.445509201331
738328.59447271341923624277,0.0246182643106377,-9.34263130588702,336.457818333486
738328.59447280387394130230,-0.0369273964659566,-9.40417696666361,336.482436597797
738328.59447289421223104000,-0.0369273964659566,-9.37955870235298,336.482436597797
738328.59447298466693609953,-0.0246182643106377,-9.45341349528489,336.347036144088
738328.59447307512164115906,0.0123091321553189,-9.34263130588702,336.470127465641
738328.59447316557634621859,0.0369273964659566,-9.3303221737317,336.445509201331
738328.59447325591463595629,0,-9.37955870235298,336.383963540554
738328.59447334636934101582,0,-9.3918678345083,336.383963540554
738328.59447343682404607534,0.0615456607765943,-9.34263130588702,336.359345276243
738328.59447352727875113487,0.11078218939787,-9.30570390942106,336.371654408399
738328.59447361761704087257,0.0615456607765943,-9.3303221737317,336.347036144088
738328.59447370807174593210,0.0123091321553189,-9.3918678345083,336.322417879777
738328.59447379852645099163,0.0246182643106377,-9.36724957019766,336.347036144088
738328.59447388898115605116,0.0615456607765943,-9.3303221737317,336.359345276243
738328.59447397931944578886,-0.0123091321553189,-9.3918678345083,336.273181351156
738328.59447406977415084839,-0.0246182643106377,-9.3918678345083,336.359345276243
738328.59447416022885590792,0.0246182643106377,-9.34263130588702,336.396272672709
738328.59447425068356096745,0.0246182643106377,-9.37955870235298,336.371654408399
738328.59447434102185070515,-0.0492365286212755,-9.41648609881893,336.383963540554
738328.59447443147655576468,0.0246182643106377,-9.3303221737317,336.42089093702
738328.59447452193126082420,-0.0738547929319132,-9.41648609881893,336.445509201331
738328.59447461238596588373,-0.0492365286212755,-9.40417696666361,336.396272672709
738328.59447470272425562143,-0.0123091321553189,-9.37955870235298,336.445509201331
738328.59447479317896068096,-0.0369273964659566,-9.42879523097425,336.470127465641
738328.59447488363366574049,0.11078218939787,-9.15799432355724,336.568600522884
738328.59447497408837080002,0.590838343455306,-8.46868292285938,336.359345276243
738328.59447506442666053772,0.800093590095726,-8.14864548682109,336.039307840205
738328.59447515488136559725,0.332346568193609,-8.82564775536363,336.23625395469
738328.59447524533607065678,-0.172327850174464,-9.5888139489934,336.433200069175
738328.59447533579077571630,-0.0615456607765943,-9.47803175959553,336.396272672709
738328.59447542612906545401,0.0123091321553189,-9.35494043804234,336.457818333486
738328.59447551658377051353,0.0123091321553189,-9.35494043804234,336.457818333486
738328.59447560703847557306,-0.0123091321553189,-9.34263130588702,336.519363994263
738328.59447569749318063259,-0.0246182643106377,-9.36724957019766,336.408581804865
738328.59447578783147037029,-0.0123091321553189,-9.37955870235298,336.519363994263
738328.59447587828617542982,-0.0492365286212755,-9.37955870235298,336.519363994263
738328.59447596874088048935,-0.0369273964659566,-9.36724957019766,336.482436597797
738328.59447605919558554888,0,-9.35494043804234,336.519363994263
738328.59447614953387528658,-0.0123091321553189,-9.35494043804234,336.507054862107
738328.59447623998858034611,-0.0123091321553189,-9.36724957019766,336.543982258573
738328.59447633044328540564,0,-9.35494043804234,336.445509201331
738328.59447642089799046516,-0.0123091321553189,-9.3303221737317,336.531673126418
738328.59447651123628020287,0,-9.37955870235298,336.543982258573
738328.59447660169098526239,0,-9.31801304157638,336.42089093702
738328.59447669214569032192,0.0123091321553189,-9.31801304157638,336.494745729952
738328.59447678260039538145,0.0123091321553189,-9.31801304157638,336.519363994263
738328.59447687293868511915,0.0123091321553189,-9.31801304157638,336.556291390728
738328.59447696339339017868,0.0123091321553189,-9.31801304157638,336.470127465641
738328.59447705384809523821,0.0123091321553189,-9.31801304157638,336.568600522884
738328.59447714430280029774,0.0246182643106377,-9.29339477726574,336.580909655039
738328.59447723464109003544,0.0246182643106377,-9.30570390942106,336.42089093702
738328.59447732509579509497,0.0246182643106377,-9.28108564511043,336.470127465641
738328.59447741555050015450,0.0246182643106377,-9.29339477726574,336.457818333486
738328.59447750600520521402,0.0369273964659566,-9.28108564511043,336.322417879777
738328.59447759645991027355,0.0369273964659566,-9.25646738079979,336.408581804865
738328.59447768679820001125,0.0369273964659566,-9.28108564511043,336.42089093702
738328.59447777725290507078,0.0369273964659566,-9.23184911648915,336.433200069175
738328.59447786770761013031,0.0369273964659566,-9.23184911648915,336.494745729952
738328.59447795816231518984,0.0369273964659566,-9.21953998433383,336.494745729952
738328.59447804850060492754,0.0369273964659566,-9.23184911648915,336.470127465641
738328.59447813895530998707,0.0369273964659566,-9.24415824864447,336.494745729952
738328.59447822941001504660,0.0492365286212755,-9.23184911648915,336.470127465641
738328.59447831986472010612,0.0369273964659566,-9.24415824864447,336.42089093702
738328.59447841020300984383,0.0369273964659566,-9.26877651295511,336.42089093702
738328.59447850065771490335,0.0369273964659566,-9.26877651295511,336.494745729952
738328.59447859111241996288,0.0246182643106377,-9.34263130588702,336.482436597797
738328.59447868156712502241,0.0123091321553189,-9.31801304157638,336.297799615467
738328.59447877190541476011,0.0369273964659566,-9.35494043804234,336.470127465641
738328.59447886236011981964,0.0492365286212755,-9.3303221737317,336.457818333486
738328.59447895281482487917,-0.0123091321553189,-9.36724957019766,336.507054862107
738328.59447904326952993870,-0.0123091321553189,-9.37955870235298,336.334727011933
738328.59447913360781967640,0,-9.36724957019766,336.457818333486
738328.59447922406252473593,-0.0246182643106377,-9.37955870235298,336.470127465641
738328.59447931451722979546,-0.0123091321553189,-9.37955870235298,336.507054862107
738328.59447940497193485498,-0.0123091321553189,-9.36724957019766,336.408581804865
738328.59447949531022459269,0,-9.37955870235298,336.482436597797
738328.59447958576492965221,-0.0123091321553189,-9.41648609881893,336.519363994263
738328.59447967621963471174,-0.0246182643106377,-9.40417696666361,336.457818333486
738328.59447976667433977127,0.0123091321553189,-9.34263130588702,336.457818333486
738328.59447985701262950897,-0.0123091321553189,-9.35494043804234,336.507054862107
738328.59447994746733456850,0.0123091321553189,-9.37955870235298,336.531673126418
738328.59448003792203962803,0,-9.36724957019766,336.433200069175
738328.59448012837674468756,0.0246182643106377,-9.34263130588702,336.433200069175
738328.59448021871503442526,-0.0123091321553189,-9.37955870235298,336.445509201331
738328.59448030916973948479,-0.0123091321553189,-9.36724957019766,336.433200069175
738328.59448039962444454432,0,-9.35494043804234,336.371654408399
738328.59448049007914960384,-0.0123091321553189,-9.37955870235298,336.433200069175
738328.59448058041743934155,-0.0123091321553189,-9.36724957019766,336.445509201331
738328.59448067087214440107,0,-9.36724957019766,336.42089093702
738328.59448076132684946060,0.0123091321553189,-9.35494043804234,336.433200069175
738328.59448085178155452013,0,-9.34263130588702,336.457818333486
738328.59448094211984425783,-0.0369273964659566,-9.40417696666361,336.223944822535
738328.59448103257454931736,-0.0369273964659566,-9.3918678345083,336.334727011933
738328.59448112302925437689,-0.0369273964659566,-9.40417696666361,336.297799615467
738328.59448121348395943642,0,-9.35494043804234,336.334727011933
738328.59448130382224917412,-0.0246182643106377,-9.36724957019766,336.433200069175
738328.59448139427695423365,-0.0369273964659566,-9.44110436312957,336.445509201331
738328.59448148473165929317,-0.0246182643106377,-9.36724957019766,336.457818333486
738328.59448157518636435270,0,-9.3918678345083,336.371654408399
738328.59448166552465409040,-0.0123091321553189,-9.35494043804234,336.482436597797
738328.59448175597935914993,0,-9.36724957019766,336.482436597797
738328.59448184643406420946,-0.0246182643106377,-9.40417696666361,336.433200069175
738328.59448193688876926899,-0.0492365286212755,-9.40417696666361,336.445509201331
738328.59448202722705900669,-0.0615456607765943,-9.41648609881893,336.482436597797
738328.59448211768176406622,-0.0615456607765943,-9.42879523097425,336.433200069175
738328.59448220813646912575,-0.0246182643106377,-9.37955870235298,336.396272672709
738328.59448229859117418528,-0.0369273964659566,-9.41648609881893,336.359345276243
738328.59448238892946392298,-0.0246182643106377,-9.3918678345083,336.457818333486
738328.59448247938416898251,-0.0246182643106377,-9.40417696666361,336.507054862107
738328.59448256983887404203,-0.0123091321553189,-9.3918678345083,336.457818333486
738328.59448266029357910156,-0.0369273964659566,-9.37955870235298,336.445509201331
738328.59448275074828416109,0,-9.35494043804234,336.470127465641
738328.59448284108657389879,-0.0369273964659566,-9.3918678345083,336.519363994263
738328.59448293154127895832,-0.0615456607765943,-9.41648609881893,336.457818333486
738328.59448302199598401785,-0.0615456607765943,-9.42879523097425,336.445509201331
738328.59448311245068907738,-0.0123091321553189,-9.40417696666361,336.507054862107
738328.59448320278897881508,-0.0246182643106377,-9.37955870235298,336.371654408399
738328.59448329324368387461,0.0246182643106377,-9.37955870235298,336.347036144088
738328.59448338369838893414,0.0123091321553189,-9.40417696666361,336.260872219001
738328.59448347415309399366,0.0246182643106377,-9.36724957019766,336.248563086845
738328.59448356449138373137,0.0123091321553189,-9.36724957019766,336.297799615467
738328.59448365494608879089,0.0369273964659566,-9.35494043804234,336.334727011933
738328.59448374540079385042,0,-9.36724957019766,336.347036144088
738328.59448383585549890995,-0.0246182643106377,-9.40417696666361,336.371654408399
738328.59448392619378864765,-0.0369273964659566,-9.40417696666361,336.396272672709
738328.59448401664849370718,-0.0738547929319132,-9.41648609881893,336.457818333486
738328.59448410710319876671,-0.0615456607765943,-9.45341349528489,336.470127465641
738328.59448419755790382624,-0.0492365286212755,-9.41648609881893,336.482436597797
738328.59448428789619356394,-0.0615456607765943,-9.40417696666361,336.322417879777
738328.59448437835089862347,-0.0492365286212755,-9.40417696666361,336.494745729952
738328.59448446880560368299,-0.0123091321553189,-9.36724957019766,336.273181351156
738328.59448455926030874252,-0.0492365286212755,-9.3918678345083,336.334727011933
738328.59448464959859848022,-0.0615456607765943,-9.47803175959553,336.470127465641
738328.59448474005330353975,0.0246182643106377,-9.26877651295511,336.568600522884
738328.59448483050800859928,0.43081962543616,-8.60408337656789,336.556291390728
738328.59448492096271365881,0.677002268542538,-8.29635507268492,336.162399161758
738328.59448501130100339651,0.590838343455306,-8.30866420484024,336.125471765292
738328.59448510175570845604,0.0615456607765943,-9.21953998433383,336.260872219001
738328.59448519221041351557,-0.184636982329783,-9.57650481683808,336.445509201331
738328.59448528266511857510,-0.0738547929319132,-9.44110436312957,336.359345276243
738328.59448537300340831280,-0.0246182643106377,-9.3918678345083,336.445509201331
738328.59448546345811337233,-0.0369273964659566,-9.37955870235298,336.494745729952
738328.59448555391281843185,-0.0369273964659566,-9.3918678345083,336.42089093702
738328.59448564436752349138,-0.0246182643106377,-9.37955870235298,336.445509201331
738328.59448573470581322908,-0.0492365286212755,-9.3918678345083,336.519363994263
738328.59448582516051828861,-0.0369273964659566,-9.37955870235298,336.42089093702
738328.59448591561522334814,-0.0738547929319132,-9.41648609881893,336.371654408399
738328.59448600606992840767,-0.0492365286212755,-9.3918678345083,336.408581804865
738328.59448609640821814537,-0.0369273964659566,-9.3918678345083,336.445509201331
738328.59448618686292320490,-0.0615456607765943,-9.3918678345083,336.310108747622
738328.59448627731762826443,-0.0492365286212755,-9.36724957019766,336.445509201331
738328.59448636777233332396,-0.0369273964659566,-9.35494043804234,336.470127465641
738328.59448645811062306166,-0.0246182643106377,-9.37955870235298,336.507054862107
738328.59448654856532812119,-0.0369273964659566,-9.34263130588702,336.408581804865
738328.59448663902003318071,0,-9.3303221737317,336.519363994263
738328.59448672947473824024,0.0246182643106377,-9.29339477726574,336.519363994263
738328.59448681981302797794,-0.0492365286212755,-9.35494043804234,336.494745729952
738328.59448691026773303747,-0.0615456607765943,-9.37955870235298,336.445509201331
738328.59448700072243809700,-0.0123091321553189,-9.3303221737317,336.408581804865
738328.59448709117714315653,-0.0369273964659566,-9.37955870235298,336.383963540554
738328.59448718151543289423,-0.0369273964659566,-9.3303221737317,336.470127465641
738328.59448727197013795376,0,-9.3303221737317,336.433200069175
738328.59448736242484301329,0.0123091321553189,-9.29339477726574,336.396272672709
738328.59448745287954807281,-0.0246182643106377,-9.28108564511043,336.433200069175
738328.59448754321783781052,-0.0123091321553189,-9.29339477726574,336.371654408399
738328.59448763367254287004,0,-9.26877651295511,336.408581804865
738328.59448772412724792957,0.0123091321553189,-9.25646738079979,336.507054862107
738328.59448781458195298910,0.0123091321553189,-9.24415824864447,336.531673126418
738328.59448790492024272680,0.0123091321553189,-9.23184911648915,336.445509201331
738328.59448799537494778633,-0.0369273964659566,-9.30570390942106,336.334727011933
738328.59448808582965284586,-0.0123091321553189,-9.26877651295511,336.408581804865
738328.59448817628435790539,0.0123091321553189,-9.25646738079979,336.507054862107
738328.59448826673906296492,0.0369273964659566,-9.29339477726574,336.433200069175
738328.59448835707735270262,-0.0123091321553189,-9.31801304157638,336.482436597797
738328.59448844753205776215,-0.0246182643106377,-9.3303221737317,336.482436597797
738328.59448853798676282167,-0.0246182643106377,-9.3303221737317,336.519363994263
738328.59448862844146788120,-0.0369273964659566,-9.37955870235298,336.383963540554
738328.59448871877975761890,-0.0369273964659566,-9.37955870235298,336.383963540554
738328.59448880923446267843,-0.0123091321553189,-9.36724957019766,336.383963540554
738328.59448889968916773796,-0.0492365286212755,-9.41648609881893,336.334727011933
738328.59448899014387279749,-0.0492365286212755,-9.37955870235298,336.383963540554
738328.59448908048216253519,-0.0369273964659566,-9.3918678345083,336.396272672709
738328.59448917093686759472,-0.0369273964659566,-9.3918678345083,336.507054862107
738328.59448926139157265425,-0.0492365286212755,-9.3918678345083,336.42089093702
738328.59448935184627771378,-0.0738547929319132,-9.42879523097425,336.470127465641
738328.59448944218456745148,-0.0492365286212755,-9.46572262744021,336.507054862107
738328.59448953263927251101,-0.0369273964659566,-9.37955870235298,336.396272672709
738328.59448962309397757053,-0.0615456607765943,-9.41648609881893,336.470127465641
738328.59448971354868263006,-0.0123091321553189,-9.35494043804234,336.494745729952
738328.59448980388697236776,-0.0123091321553189,-9.36724957019766,336.42089093702
738328.59448989434167742729,-0.0123091321553189,-9.3918678345083,336.445509201331
738328.59448998479638248682,-0.0369273964659566,-9.37955870235298,336.470127465641
738328.59449007525108754635,-0.0492365286212755,-9.40417696666361,336.470127465641
738328.59449016558937728405,-0.0369273964659566,-9.3918678345083,336.408581804865
738328.59449025604408234358,-0.0123091321553189,-9.37955870235298,336.494745729952
738328.59449034649878740311,-0.0246182643106377,-9.37955870235298,336.507054862107
738328.59449043695349246264,-0.0369273964659566,-9.37955870235298,336.433200069175
738328.59449052729178220034,-0.0246182643106377,-9.37955870235298,336.433200069175
738328.59449061774648725986,0,-9.35494043804234,336.457818333486
738328.59449070820119231939,-0.0369273964659566,-9.41648609881893,336.42089093702
738328.59449079865589737892,-0.0492365286212755,-9.40417696666361,336.359345276243
738328.59449088899418711662,-0.0492365286212755,-9.3918678345083,336.433200069175
738328.59449097944889217615,-0.0492365286212755,-9.40417696666361,336.433200069175
738328.59449106990359723568,-0.0492365286212755,-9.3918678345083,336.42089093702
738328.59449116035830229521,-0.0123091321553189,-9.36724957019766,336.42089093702
738328.59449125069659203291,-0.0369273964659566,-9.3918678345083,336.433200069175
738328.59449134115129709244,-0.0615456607765943,-9.41648609881893,336.383963540554
738328.59449143160600215197,-0.0738547929319132,-9.41648609881893,336.359345276243
738328.59449152206070721149,-0.0615456607765943,-9.40417696666361,336.150090029603
738328.59449161239899694920,-0.0492365286212755,-9.41648609881893,336.273181351156
738328.59449170285370200872,-0.0492365286212755,-9.3918678345083,336.445509201331
738328.59449179330840706825,0,-9.37955870235298,336.445509201331
738328.59449188376311212778,-0.0492365286212755,-9.3918678345083,336.359345276243
738328.59449197410140186548,-0.0738547929319132,-9.42879523097425,336.445509201331
738328.59449206455610692501,-0.0738547929319132,-9.42879523097425,336.519363994263
738328.59449215501081198454,-0.0615456607765943,-9.40417696666361,336.445509201331
738328.59449224546551704407,-0.0492365286212755,-9.40417696666361,336.482436597797
738328.59449233580380678177,-0.0369273964659566,-9.41648609881893,336.507054862107
738328.59449242625851184130,-0.0246182643106377,-9.40417696666361,336.482436597797
738328.59449251671321690083,-0.0246182643106377,-9.37955870235298,336.445509201331
738328.59449260716792196035,-0.0738547929319132,-9.41648609881893,336.457818333486
738328.59449269750621169806,-0.0615456607765943,-9.42879523097425,336.445509201331
738328.59449278796091675758,-0.0369273964659566,-9.3918678345083,336.359345276243
738328.59449287841562181711,-0.0246182643106377,-9.40417696666361,336.408581804865
738328.59449296887032687664,0,-9.40417696666361,336.42089093702
738328.59449305920861661434,0.0246182643106377,-9.37955870235298,336.347036144088
738328.59449314966332167387,0.0369273964659566,-9.35494043804234,336.347036144088
738328.59449324011802673340,-0.0123091321553189,-9.3918678345083,336.371654408399
738328.59449333057273179293,-0.0246182643106377,-9.3918678345083,336.396272672709
738328.59449342102743685246,-0.0123091321553189,-9.3918678345083,336.359345276243
738328.59449351136572659016,-0.0369273964659566,-9.41648609881893,336.42089093702
738328.59449360182043164968,-0.0369273964659566,-9.41648609881893,336.445509201331
738328.59449369227513670921,-0.0492365286212755,-9.3918678345083,336.371654408399
738328.59449378272984176874,-0.0738547929319132,-9.46572262744021,336.445509201331
738328.59449387306813150644,-0.0492365286212755,-9.3918678345083,336.457818333486
738328.59449396352283656597,-0.0369273964659566,-9.36724957019766,336.408581804865
738328.59449405397754162550,-0.0861639250872321,-9.42879523097425,336.457818333486
738328.59449414443224668503,-0.0738547929319132,-9.42879523097425,336.470127465641
738328.59449423477053642273,-0.0738547929319132,-9.41648609881893,336.445509201331
738328.59449432522524148226,-0.0492365286212755,-9.40417696666361,336.334727011933
738328.59449441567994654179,-0.0738547929319132,-9.46572262744021,336.42089093702
738328.59449450613465160131,0.0984730572425509,-9.10875779493596,336.433200069175
738328.59449459647294133902,0.54160181483403,-8.44406465854874,336.187017426069
738328.59449468692764639854,0.677002268542538,-8.19788201544237,335.990071311584
738328.59449477738235145807,0.209255246640421,-8.97335734122746,336.05161697236
738328.59449486783705651760,-0.147709585863826,-9.56419568468276,336.371654408399
738328.59449495817534625530,-0.11078218939787,-9.49034089175085,336.396272672709
738328.59449504863005131483,-0.0615456607765943,-9.49034089175085,336.273181351156
738328.59449513908475637436,-0.0492365286212755,-9.40417696666361,336.322417879777
738328.59449522953946143389,-0.0492365286212755,-9.3918678345083,336.531673126418
738328.59449531987775117159,-0.0615456607765943,-9.40417696666361,336.531673126418
738328.59449541033245623112,-0.0615456607765943,-9.40417696666361,336.433200069175
738328.59449550078716129065,-0.0615456607765943,-9.40417696666361,336.470127465641
738328.59449559124186635017,-0.0615456607765943,-9.41648609881893,336.494745729952
738328.59449568158015608788,-0.0615456607765943,-9.40417696666361,336.334727011933
738328.59449577203486114740,-0.0615456607765943,-9.40417696666361,336.457818333486
738328.59449586248956620693,-0.0246182643106377,-9.36724957019766,336.457818333486
738328.59449595294427126646,-0.0615456607765943,-9.3918678345083,336.408581804865
738328.59449604328256100416,-0.0615456607765943,-9.40417696666361,336.371654408399
738328.59449613373726606369,-0.0738547929319132,-9.41648609881893,336.408581804865
738328.59449622419197112322,-0.0492365286212755,-9.37955870235298,336.383963540554
738328.59449631464667618275,-0.0861639250872321,-9.46572262744021,336.396272672709
738328.59449640498496592045,-0.0369273964659566,-9.34263130588702,336.470127465641
738328.59449649543967097998,-0.0492365286212755,-9.35494043804234,336.531673126418
738328.59449658589437603951,-0.0492365286212755,-9.36724957019766,336.470127465641
738328.59449667634908109903,-0.0123091321553189,-9.3303221737317,336.470127465641
738328.59449676668737083673,-0.0246182643106377,-9.34263130588702,336.519363994263
738328.59449685714207589626,-0.0246182643106377,-9.31801304157638,336.482436597797
738328.59449694759678095579,-0.0369273964659566,-9.35494043804234,336.494745729952
738328.59449703805148601532,-0.0492365286212755,-9.34263130588702,336.445509201331
738328.59449712838977575302,-0.0123091321553189,-9.30570390942106,336.42089093702
738328.59449721884448081255,0,-9.29339477726574,336.494745729952
738328.59449730929918587208,-0.0246182643106377,-9.31801304157638,336.482436597797
738328.59449739975389093161,-0.0123091321553189,-9.28108564511043,336.457818333486
738328.59449749009218066931,-0.0123091321553189,-9.24415824864447,336.482436597797
738328.59449758054688572884,-0.0123091321553189,-9.31801304157638,336.507054862107
738328.59449767100159078836,0.0123091321553189,-9.24415824864447,336.482436597797
738328.59449776145629584789,-0.0123091321553189,-9.26877651295511,336.383963540554
738328.59449785179458558559,-0.0246182643106377,-9.31801304157638,336.42089093702
738328.59449794224929064512,-0.0123091321553189,-9.29339477726574,336.408581804865
738328.59449803270399570465,-0.0246182643106377,-9.3303221737317,336.383963540554
738328.59449812315870076418,-0.0369273964659566,-9.36724957019766,336.359345276243
738328.59449821349699050188,-0.0123091321553189,-9.35494043804234,336.408581804865
738328.59449830395169556141,-0.0369273964659566,-9.37955870235298,336.457818333486
738328.59449839440640062094,-0.0123091321553189,-9.3918678345083,336.396272672709
738328.59449848486110568047,-0.0246182643106377,-9.37955870235298,336.457818333486
738328.59449857531581073999,-0.0492365286212755,-9.40417696666361,336.359345276243
738328.59449866565410047770,-0.0861639250872321,-9.46572262744021,336.273181351156
738328.59449875610880553722,-0.0861639250872321,-9.44110436312957,336.445509201331
738328.59449884656351059675,-0.0369273964659566,-9.40417696666361,336.445509201331
738328.59449893701821565628,-0.0615456607765943,-9.44110436312957,336.433200069175
738328.59449902735650539398,-0.0615456607765943,-9.42879523097425,336.371654408399
738328.59449911781121045351,-0.0246182643106377,-9.3918678345083,336.457818333486
738328.59449920826591551304,-0.0369273964659566,-9.40417696666361,336.42089093702
738328.59449929872062057257,-0.0492365286212755,-9.44110436312957,336.396272672709
738328.59449938905891031027,-0.0492365286212755,-9.41648609881893,336.347036144088
738328.59449947951361536980,-0.0246182643106377,-9.3918678345083,336.42089093702
738328.59449956996832042933,-0.0615456607765943,-9.44110436312957,336.445509201331
738328.59449966042302548885,-0.0246182643106377,-9.40417696666361,336.396272672709
738328.59449975076131522655,-0.0246182643106377,-9.3918678345083,336.371654408399
738328.59449984121602028608,-0.0492365286212755,-9.40417696666361,336.445509201331
738328.59449993167072534561,-0.0738547929319132,-9.42879523097425,336.408581804865
738328.59450002212543040514,-0.0246182643106377,-9.40417696666361,336.408581804865
738328.59450011246372014284,-0.0246182643106377,-9.3918678345083,336.433200069175
738328.59450020291842520237,0,-9.36724957019766,336.408581804865
738328.59450029337313026190,-0.0369273964659566,-9.41648609881893,336.42089093702
738328.59450038382783532143,-0.0615456607765943,-9.42879523097425,336.408581804865
738328.59450047416612505913,-0.0615456607765943,-9.41648609881893,336.445509201331
738328.59450056462083011866,-0.0492365286212755,-9.40417696666361,336.445509201331
738328.59450065507553517818,-0.0615456607765943,-9.44110436312957,336.445509201331
738328.59450074553024023771,-0.0615456607765943,-9.45341349528489,336.494745729952
738328.59450083586852997541,-0.0615456607765943,-9.44110436312957,336.482436597797
738328.59450092632323503494,-0.0246182643106377,-9.36724957019766,336.42089093702
738328.59450101677794009447,-0.0369273964659566,-9.3918678345083,336.482436597797
738328.59450110723264515400,-0.0984730572425509,-9.46572262744021,336.507054862107
738328.59450119757093489170,-0.0492365286212755,-9.40417696666361,336.482436597797
738328.59450128802563995123,-0.0492365286212755,-9.42879523097425,336.433200069175
738328.59450137848034501076,-0.0861639250872321,-9.45341349528489,336.507054862107
738328.59450146893505007029,-0.0861639250872321,-9.44110436312957,336.543982258573
738328.59450155927333980799,-0.0738547929319132,-9.42879523097425,336.408581804865
738328.59450164972804486752,-0.0615456607765943,-9.41648609881893,336.482436597797
738328.59450174018274992704,-0.0615456607765943,-9.42879523097425,336.543982258573
738328.59450183063745498657,-0.0615456607765943,-9.46572262744021,336.519363994263
738328.59450192097574472427,-0.0123091321553189,-9.36724957019766,336.433200069175
738328.59450201143044978380,-0.0492365286212755,-9.40417696666361,336.494745729952
738328.59450210188515484333,-0.0861639250872321,-9.44110436312957,336.470127465641
738328.59450219233985990286,-0.0984730572425509,-9.47803175959553,336.273181351156
738328.59450228267814964056,-0.0861639250872321,-9.46572262744021,336.494745729952
738328.59450237313285470009,-0.0738547929319132,-9.44110436312957,336.494745729952
738328.59450246358755975962,-0.0615456607765943,-9.44110436312957,336.494745729952
738328.59450255404226481915,-0.0369273964659566,-9.42879523097425,336.470127465641
738328.59450264438055455685,-0.0123091321553189,-9.41648609881893,336.445509201331
738328.59450273483525961637,0.0123091321553189,-9.36724957019766,336.445509201331
738328.59450282528996467590,0.0123091321553189,-9.42879523097425,336.408581804865
738328.59450291574466973543,0,-9.40417696666361,336.371654408399
738328.59450300608295947313,-0.0492365286212755,-9.42879523097425,336.42089093702
738328.59450309653766453266,-0.0369273964659566,-9.41648609881893,336.482436597797
738328.59450318699236959219,-0.0369273964659566,-9.40417696666361,336.347036144088
738328.59450327744707465172,-0.0369273964659566,-9.40417696666361,336.334727011933
738328.59450336778536438942,-0.0615456607765943,-9.40417696666361,336.359345276243
738328.59450345824006944895,-0.0861639250872321,-9.49034089175085,336.396272672709
738328.59450354869477450848,-0.0984730572425509,-9.47803175959553,336.383963540554
738328.59450363914947956800,-0.0984730572425509,-9.44110436312957,336.359345276243
738328.59450372948776930571,-0.0738547929319132,-9.44110436312957,336.408581804865
738328.59450381994247436523,-0.0615456607765943,-9.41648609881893,336.433200069175
738328.59450391039717942476,-0.0369273964659566,-9.37955870235298,336.457818333486
738328.59450400085188448429,-0.0861639250872321,-9.45341349528489,336.396272672709
738328.59450409130658954382,-0.0984730572425509,-9.50265002390617,336.433200069175
738328.59450418164487928152,-0.0123091321553189,-9.34263130588702,336.482436597797
738328.59450427209958434105,0.344655700348928,-8.75179296243171,336.445509201331
738328.59450436255428940058,0.713929665008494,-8.23480941190832,336.162399161758
738328.59450445300899446011,0.381583096814885,-8.69024730165512,336.223944822535
738328.59450454334728419781,-0.11078218939787,-9.66266874192531,336.248563086845
738328.59450463380198925734,-0.147709585863826,-9.56419568468276,336.457818333486
738328.59450472425669431686,-0.0861639250872321,-9.49034089175085,336.445509201331
738328.59450481471139937639,-0.0738547929319132,-9.44110436312957,336.383963540554
738328.59450490504968911409,-0.0738547929319132,-9.45341349528489,336.482436597797
738328.59450499550439417362,-0.0861639250872321,-9.41648609881893,336.531673126418
738328.59450508595909923315,-0.11078218939787,-9.42879523097425,336.531673126418
738328.59450517641380429268,-0.0738547929319132,-9.42879523097425,336.445509201331
738328.59450526675209403038,-0.0369273964659566,-9.35494043804234,336.494745729952
738328.59450535720679908991,-0.0615456607765943,-9.42879523097425,336.507054862107
738328.59450544766150414944,-0.0615456607765943,-9.44110436312957,336.556291390728
738328.59450553811620920897,-0.123091321553189,-9.44110436312957,336.531673126418
738328.59450562845449894667,-0.11078218939787,-9.44110436312957,336.457818333486
738328.59450571890920400620,-0.0615456607765943,-9.40417696666361,336.347036144088
738328.59450580936390906572,-0.0492365286212755,-9.3918678345083,336.531673126418
738328.59450589981861412525,-0.0861639250872321,-9.40417696666361,336.445509201331
738328.59450599015690386295,-0.0246182643106377,-9.3303221737317,336.543982258573
738328.59450608061160892248,-0.0615456607765943,-9.45341349528489,336.556291390728
738328.59450617106631398201,-0.0738547929319132,-9.3918678345083,336.445509201331
738328.59450626152101904154,-0.0738547929319132,-9.37955870235298,336.494745729952
738328.59450635185930877924,-0.0738547929319132,-9.37955870235298,336.556291390728
738328.59450644231401383877,-0.0369273964659566,-9.34263130588702,336.507054862107
738328.59450653276871889830,-0.0369273964659566,-9.34263130588702,336.507054862107
738328.59450662322342395782,-0.0246182643106377,-9.3303221737317,336.556291390728
738328.59450671356171369553,-0.0492365286212755,-9.3303221737317,336.556291390728
738328.59450680401641875505,-0.0492365286212755,-9.35494043804234,336.457818333486
738328.59450689447112381458,-0.0492365286212755,-9.31801304157638,336.371654408399
738328.59450698492582887411,-0.0246182643106377,-9.26877651295511,336.470127465641
738328.59450707526411861181,-0.0369273964659566,-9.3303221737317,336.482436597797
738328.59450716571882367134,-0.0492365286212755,-9.31801304157638,336.433200069175
738328.59450725617352873087,-0.0246182643106377,-9.28108564511043,336.519363994263
738328.59450734662823379040,-0.0246182643106377,-9.28108564511043,336.543982258573
738328.59450743696652352810,-0.0369273964659566,-9.28108564511043,336.568600522884
738328.59450752742122858763,-0.0492365286212755,-9.31801304157638,336.482436597797
738328.59450761787593364716,-0.0123091321553189,-9.29339477726574,336.543982258573
738328.59450770833063870668,-0.0246182643106377,-9.31801304157638,336.494745729952
738328.59450779866892844439,-0.0123091321553189,-9.31801304157638,336.482436597797
738328.59450788912363350391,-0.0615456607765943,-9.37955870235298,336.371654408399
738328.59450797957833856344,-0.0369273964659566,-9.40417696666361,336.408581804865
738328.59450807003304362297,-0.0861639250872321,-9.42879523097425,336.408581804865
738328.59450816037133336067,-0.0738547929319132,-9.42879523097425,336.408581804865
738328.59450825082603842020,-0.0738547929319132,-9.44110436312957,336.347036144088
738328.59450834128074347973,-0.0369273964659566,-9.40417696666361,336.42089093702
738328.59450843173544853926,-0.0369273964659566,-9.3918678345083,336.507054862107
738328.59450852207373827696,-0.0738547929319132,-9.44110436312957,336.507054862107
738328.59450861252844333649,-0.0861639250872321,-9.46572262744021,336.42089093702
738328.59450870298314839602,-0.0738547929319132,-9.44110436312957,336.494745729952
738328.59450879343785345554,-0.0738547929319132,-9.45341349528489,336.507054862107
738328.59450888377614319324,-0.0861639250872321,-9.44110436312957,336.42089093702
738328.59450897423084825277,-0.0738547929319132,-9.44110436312957,336.470127465641
738328.59450906468555331230,-0.0369273964659566,-9.45341349528489,336.507054862107
738328.59450915514025837183,-0.0246182643106377,-9.3918678345083,336.482436597797
738328.59450924559496343136,-0.0369273964659566,-9.40417696666361,336.285490483311
738328.59450933593325316906,-0.0246182643106377,-9.37955870235298,336.531673126418
738328.59450942638795822859,-0.0615456607765943,-9.44110436312957,336.494745729952
738328.59450951684266328812,-0.0246182643106377,-9.37955870235298,336.408581804865
738328.59450960729736834764,-0.0615456607765943,-9.41648609881893,336.470127465641
738328.59450969763565808535,-0.0738547929319132,-9.44110436312957,336.531673126418
738328.59450978809036314487,-0.0369273964659566,-9.3918678345083,336.396272672709
738328.59450987854506820440,-0.0369273964659566,-9.40417696666361,336.482436597797
738328.59450996899977326393,-0.0492365286212755,-9.40417696666361,336.531673126418
738328.59451005933806300163,-0.0615456607765943,-9.40417696666361,336.433200069175
738328.59451014979276806116,-0.0615456607765943,-9.46572262744021,336.445509201331
738328.59451024024747312069,-0.0492365286212755,-9.41648609881893,336.457818333486
738328.59451033070217818022,-0.0246182643106377,-9.37955870235298,336.470127465641
738328.59451042104046791792,-0.0861639250872321,-9.45341349528489,336.408581804865
738328.59451051149517297745,-0.0984730572425509,-9.44110436312957,336.396272672709
738328.59451060194987803698,-0.0369273964659566,-9.41648609881893,336.457818333486
738328.59451069240458309650,-0.0738547929319132,-9.45341349528489,336.457818333486
738328.59451078274287283421,-0.0615456607765943,-9.42879523097425,336.396272672709
738328.59451087319757789373,-0.0861639250872321,-9.41648609881893,336.457818333486
738328.59451096365228295326,-0.0861639250872321,-9.49034089175085,336.457818333486
738328.59451105410698801279,-0.0861639250872321,-9.46572262744021,336.457818333486
738328.59451114444527775049,-0.0615456607765943,-9.3918678345083,336.408581804865
738328.59451123489998281002,-0.0861639250872321,-9.47803175959553,336.470127465641
738328.59451132535468786955,-0.0615456607765943,-9.42879523097425,336.470127465641
738328.59451141580939292908,-0.0738547929319132,-9.42879523097425,336.396272672709
738328.59451150614768266678,-0.0861639250872321,-9.44110436312957,336.383963540554
738328.59451159660238772631,-0.0738547929319132,-9.45341349528489,336.445509201331
738328.59451168705709278584,-0.0984730572425509,-9.46572262744021,336.470127465641
738328.59451177751179784536,-0.0615456607765943,-9.41648609881893,336.408581804865
738328.59451186785008758307,-0.0861639250872321,-9.44110436312957,336.408581804865
738328.59451195830479264259,-0.0738547929319132,-9.45341349528489,336.42089093702
738328.59451204875949770212,-0.0738547929319132,-9.42879523097425,336.445509201331
738328.59451213921420276165,-0.0492365286212755,-9.41648609881893,336.457818333486
738328.59451222955249249935,-0.0615456607765943,-9.45341349528489,336.42089093702
738328.59451232000719755888,-0.0738547929319132,-9.44110436312957,336.445509201331
738328.59451241046190261841,-0.0615456607765943,-9.46572262744021,336.457818333486
738328.59451250091660767794,-0.0123091321553189,-9.41648609881893,336.396272672709
738328.59451259125489741564,0,-9.41648609881893,336.433200069175
738328.59451268170960247517,-0.0123091321553189,-9.42879523097425,336.137780897448
738328.59451277216430753469,-0.0246182643106377,-9.3918678345083,336.310108747622
738328.59451286261901259422,-0.0246182643106377,-9.42879523097425,336.359345276243
738328.59451295295730233192,0,-9.41648609881893,336.408581804865
738328.59451304341200739145,-0.0615456607765943,-9.42879523097425,336.42089093702
738328.59451313386671245098,-0.0615456607765943,-9.42879523097425,336.445509201331
738328.59451322432141751051,-0.11078218939787,-9.46572262744021,336.383963540554
738328.59451331465970724821,-0.123091321553189,-9.49034089175085,336.494745729952
738328.59451340511441230774,-0.0861639250872321,-9.45341349528489,336.519363994263
738328.59451349556911736727,-0.0984730572425509,-9.44110436312957,336.507054862107
738328.59451358602382242680,-0.0738547929319132,-9.44110436312957,336.494745729952
738328.59451367636211216450,-0.0615456607765943,-9.42879523097425,336.543982258573
738328.59451376681681722403,-0.0984730572425509,-9.49034089175085,336.494745729952
738328.59451385727152228355,0,-9.36724957019766,336.470127465641
738328.59451394772622734308,0.258491775261696,-8.8748842839849,336.556291390728
738328.59451403806451708078,0.701620532853175,-8.27173680837428,336.199326558224
738328.59451412851922214031,0.418510493280842,-8.66562903734448,336.150090029603
738328.59451421897392719984,-0.11078218939787,-9.55188655252744,336.322417879777
738328.59451430942863225937,-0.196946114485102,-9.5888139489934,336.494745729952
738328.59451439988333731890,-0.0861639250872321,-9.47803175959553,336.470127465641
738328.59451449022162705660,-0.0738547929319132,-9.45341349528489,336.42089093702
738328.59451458067633211613,-0.0615456607765943,-9.41648609881893,336.494745729952
738328.59451467113103717566,-0.0246182643106377,-9.40417696666361,336.556291390728
738328.59451476158574223518,-0.0123091321553189,-9.37955870235298,336.470127465641
738328.59451485192403197289,-0.0861639250872321,-9.42879523097425,336.494745729952
738328.59451494237873703241,-0.135400453708508,-9.49034089175085,336.556291390728
738328.59451503283344209194,-0.0984730572425509,-9.44110436312957,336.494745729952
738328.59451512328814715147,-0.0861639250872321,-9.40417696666361,336.482436597797
738328.59451521362643688917,-0.0861639250872321,-9.47803175959553,336.507054862107
738328.59451530408114194870,-0.0615456607765943,-9.3918678345083,336.507054862107
738328.59451539453584700823,-0.0492365286212755,-9.3918678345083,336.433200069175
738328.59451548499055206776,-0.0861639250872321,-9.41648609881893,336.507054862107
738328.59451557532884180546,-0.0615456607765943,-9.3918678345083,336.507054862107
738328.59451566578354686499,-0.0369273964659566,-9.37955870235298,336.433200069175
738328.59451575623825192451,-0.0861639250872321,-9.40417696666361,336.507054862107
738328.59451584669295698404,-0.0861639250872321,-9.42879523097425,336.507054862107
738328.59451593703124672174,-0.0738547929319132,-9.42879523097425,336.482436597797
738328.59451602748595178127,-0.0492365286212755,-9.36724957019766,336.494745729952
738328.59451611794065684080,-0.0492365286212755,-9.40417696666361,336.494745729952
738328.59451620839536190033,-0.0492365286212755,-9.37955870235298,336.285490483311
738328.59451629873365163803,-0.0123091321553189,-9.3303221737317,336.322417879777
738328.59451638918835669756,0.0123091321553189,-9.29339477726574,336.433200069175
738328.59451647964306175709,-0.0492365286212755,-9.35494043804234,336.433200069175
738328.59451657009776681662,-0.0492365286212755,-9.35494043804234,336.433200069175
738328.59451666043605655432,-0.0492365286212755,-9.35494043804234,336.433200069175
738328.59451675089076161385,-0.0492365286212755,-9.31801304157638,336.507054862107
738328.59451684134546667337,-0.0369273964659566,-9.3303221737317,336.482436597797
738328.59451693180017173290,-0.0123091321553189,-9.29339477726574,336.42089093702
738328.59451702213846147060,-0.0246182643106377,-9.30570390942106,336.457818333486
738328.59451711259316653013,-0.0492365286212755,-9.29339477726574,336.470127465641
738328.59451720304787158966,-0.0246182643106377,-9.29339477726574,336.433200069175
738328.59451729350257664919,0.0369273964659566,-9.25646738079979,336.457818333486
738328.59451738384086638689,-0.0246182643106377,-9.31801304157638,336.507054862107
738328.59451747429557144642,-0.0615456607765943,-9.3918678345083,336.531673126418
738328.59451756475027650595,-0.0738547929319132,-9.3918678345083,336.408581804865
738328.59451765520498156548,-0.0615456607765943,-9.40417696666361,336.408581804865
738328.59451774554327130318,-0.0246182643106377,-9.40417696666361,336.470127465641
738328.59451783599797636271,-0.0492365286212755,-9.3918678345083,336.470127465641
738328.59451792645268142223,-0.0492365286212755,-9.41648609881893,336.433200069175
738328.59451801690738648176,-0.0738547929319132,-9.44110436312957,336.470127465641
738328.59451810724567621946,-0.0369273964659566,-9.41648609881893,336.482436597797
738328.59451819770038127899,-0.0615456607765943,-9.40417696666361,336.482436597797
738328.59451828815508633852,-0.0984730572425509,-9.53957742037212,336.445509201331
738328.59451837860979139805,-0.0615456607765943,-9.40417696666361,336.482436597797
738328.59451846894808113575,-0.0492365286212755,-9.42879523097425,336.470127465641
738328.59451855940278619528,-0.0861639250872321,-9.44110436312957,336.470127465641
738328.59451864985749125481,-0.0738547929319132,-9.44110436312957,336.408581804865
738328.59451874031219631433,-0.0123091321553189,-9.36724957019766,336.482436597797
738328.59451883065048605204,-0.0369273964659566,-9.44110436312957,336.457818333486
738328.59451892110519111156,-0.0738547929319132,-9.44110436312957,336.383963540554
738328.59451901155989617109,-0.0246182643106377,-9.40417696666361,336.457818333486
738328.59451910201460123062,-0.0492365286212755,-9.41648609881893,336.470127465641
738328.59451919235289096832,-0.0492365286212755,-9.41648609881893,336.433200069175
738328.59451928280759602785,-0.0369273964659566,-9.40417696666361,336.408581804865
738328.59451937326230108738,-0.0492365286212755,-9.42879523097425,336.383963540554
738328.59451946371700614691,-0.0369273964659566,-9.3918678345083,336.383963540554
738328.59451955405529588461,-0.0123091321553189,-9.44110436312957,336.359345276243
738328.59451964451000094414,-0.0492365286212755,-9.41648609881893,336.396272672709
738328.59451973496470600367,-0.0615456607765943,-9.40417696666361,336.260872219001
738328.59451982541941106319,-0.0738547929319132,-9.45341349528489,336.310108747622
738328.59451991587411612272,-0.0246182643106377,-9.31801304157638,336.482436597797
738328.59452000621240586042,-0.0738547929319132,-9.47803175959553,336.482436597797
738328.59452009666711091995,-0.0492365286212755,-9.46572262744021,336.470127465641
738328.59452018712181597948,-0.0738547929319132,-9.3303221737317,336.482436597797
738328.59452027757652103901,-0.0492365286212755,-9.51495915606148,336.482436597797
738328.59452036791481077671,-0.0369273964659566,-9.45341349528489,336.482436597797
738328.59452045836951583624,-0.0369273964659566,-9.3918678345083,336.457818333486
738328.59452054882422089577,-0.0861639250872321,-9.41648609881893,336.482436597797
738328.59452063927892595530,-0.0738547929319132,-9.50265002390617,336.445509201331
738328.59452072961721569300,-0.0738547929319132,-9.37955870235298,336.457818333486
738328.59452082007192075253,-0.0615456607765943,-9.44110436312957,336.396272672709
738328.59452091052662581205,-0.0738547929319132,-9.46572262744021,336.457818333486
738328.59452100098133087158,-0.0738547929319132,-9.3918678345083,336.42089093702
738328.59452109131962060928,-0.0492365286212755,-9.51495915606148,336.396272672709
738328.59452118177432566881,-0.0615456607765943,-9.40417696666361,336.433200069175
738328.59452127222903072834,-0.0615456607765943,-9.44110436312957,336.470127465641
738328.59452136268373578787,-0.0246182643106377,-9.40417696666361,336.347036144088
738328.59452145302202552557,-0.123091321553189,-9.49034089175085,336.408581804865
738328.59452154347673058510,-0.0738547929319132,-9.42879523097425,336.543982258573
738328.59452163393143564463,-0.0738547929319132,-9.40417696666361,336.507054862107
738328.59452172438614070415,-0.0984730572425509,-9.53957742037212,336.543982258573
738328.59452181472443044186,-0.0738547929319132,-9.40417696666361,336.482436597797
738328.59452190517913550138,-0.0984730572425509,-9.49034089175085,336.408581804865
738328.59452199563384056091,-0.0738547929319132,-9.3918678345083,336.470127465641
738328.59452208608854562044,-0.0369273964659566,-9.49034089175085,336.531673126418
738328.59452217642683535814,-0.0246182643106377,-9.37955870235298,336.507054862107
738328.59452226688154041767,0.0123091321553189,-9.36724957019766,336.445509201331
738328.59452235733624547720,-0.0123091321553189,-9.46572262744021,336.297799615467
738328.59452244779095053673,-0.0246182643106377,-9.3918678345083,336.371654408399
738328.59452253812924027443,-0.0369273964659566,-9.40417696666361,336.383963540554
738328.59452262858394533396,-0.0369273964659566,-9.40417696666361,336.371654408399
738328.59452271903865039349,-0.0492365286212755,-9.41648609881893,336.396272672709
738328.59452280949335545301,-0.0492365286212755,-9.42879523097425,336.507054862107
738328.59452289983164519072,-0.0615456607765943,-9.45341349528489,336.531673126418
738328.59452299028635025024,-0.11078218939787,-9.44110436312957,336.457818333486
738328.59452308074105530977,-0.0615456607765943,-9.40417696666361,336.543982258573
738328.59452317119576036930,-0.0492365286212755,-9.42879523097425,336.531673126418
738328.59452326153405010700,-0.123091321553189,-9.35494043804234,336.322417879777
738328.59452335198875516653,-0.123091321553189,-9.65035960976999,336.396272672709
738328.59452344244346022606,-0.11078218939787,-9.3918678345083,336.556291390728
738328.59452353289816528559,-0.0984730572425509,-9.42879523097425,336.531673126418
738328.59452362323645502329,-0.0738547929319132,-9.49034089175085,336.482436597797
738328.59452371369116008282,0.0492365286212755,-9.15799432355724,336.519363994263
738328.59452380414586514235,0.492365286212755,-8.4809920550147,336.260872219001
738328.59452389460057020187,0.76316619362977,-8.11171809035513,336.014689575894
738328.59452398493885993958,0.209255246640421,-8.78872035889767,336.187017426069
738328.59452407539356499910,-0.258491775261696,-9.76114179916786,336.223944822535
738328.59452416584827005863,-0.233873510951058,-9.53957742037212,336.408581804865
738328.59452425630297511816,-0.0615456607765943,-9.44110436312957,336.433200069175
738328.59452434664126485586,-0.0984730572425509,-9.45341349528489,336.494745729952
738328.59452443709596991539,-0.11078218939787,-9.41648609881893,336.445509201331
738328.59452452755067497492,-0.0984730572425509,-9.50265002390617,336.507054862107
738328.59452461800538003445,-0.0492365286212755,-9.34263130588702,336.593218787194
738328.59452470834366977215,-0.0615456607765943,-9.3918678345083,336.494745729952
738328.59452479879837483168,-0.135400453708508,-9.41648609881893,336.531673126418
738328.59452488925307989120,-0.135400453708508,-9.49034089175085,336.543982258573
738328.59452497970778495073,-0.0984730572425509,-9.3303221737317,336.507054862107
738328.59452507016249001026,-0.0738547929319132,-9.45341349528489,336.494745729952
738328.59452516050077974796,-0.0984730572425509,-9.53957742037212,336.531673126418
738328.59452525095548480749,-0.0615456607765943,-9.30570390942106,336.556291390728
738328.59452534141018986702,-0.0492365286212755,-9.37955870235298,336.519363994263
738328.59452543186489492655,-0.160018718019145,-9.40417696666361,336.482436597797
738328.59452552220318466425,-0.0984730572425509,-9.50265002390617,336.470127465641
738328.59452561265788972378,-0.0861639250872321,-9.40417696666361,336.482436597797
738328.59452570311259478331,-0.0615456607765943,-9.30570390942106,336.470127465641
738328.59452579356729984283,-0.0984730572425509,-9.53957742037212,336.494745729952
738328.59452588390558958054,-0.0861639250872321,-9.31801304157638,336.470127465641
738328.59452597436029464006,-0.0861639250872321,-9.36724957019766,336.482436597797
738328.59452606481499969959,-0.0738547929319132,-9.40417696666361,336.556291390728
738328.59452615526970475912,-0.0615456607765943,-9.29339477726574,336.60552791935
738328.59452624560799449682,0.0123091321553189,-9.23184911648915,336.519363994263
738328.59452633606269955635,0.0246182643106377,-9.45341349528489,336.457818333486
738328.59452642651740461588,-0.123091321553189,-9.34263130588702,336.470127465641
738328.59452651697210967541,-0.0984730572425509,-9.36724957019766,336.507054862107
738328.59452660731039941311,-0.0861639250872321,-9.28108564511043,336.507054862107
738328.59452669776510447264,-0.0738547929319132,-9.26877651295511,336.445509201331
738328.59452678821980953217,-0.0615456607765943,-9.34263130588702,336.396272672709
738328.59452687867451459169,-0.0492365286212755,-9.35494043804234,336.445509201331
738328.59452696901280432940,-0.0492365286212755,-9.28108564511043,336.494745729952
738328.59452705946750938892,0,-9.25646738079979,336.580909655039
738328.59452714992221444845,-0.0369273964659566,-9.26877651295511,336.543982258573
738328.59452724037691950798,-0.123091321553189,-9.42879523097425,336.556291390728
738328.59452733071520924568,-0.0861639250872321,-9.46572262744021,336.519363994263
738328.59452742116991430521,-0.0738547929319132,-9.37955870235298,336.543982258573
738328.59452751162461936474,-0.0738547929319132,-9.41648609881893,336.593218787194
738328.59452760207932442427,-0.0738547929319132,-9.41648609881893,336.470127465641
738328.59452769241761416197,-0.0738547929319132,-9.3918678345083,336.556291390728
738328.59452778287231922150,-0.0861639250872321,-9.45341349528489,336.593218787194
738328.59452787332702428102,-0.0861639250872321,-9.47803175959553,336.580909655039
738328.59452796378172934055,-0.11078218939787,-9.50265002390617,336.396272672709
738328.59452805412001907825,-0.0861639250872321,-9.44110436312957,336.531673126418
738328.59452814457472413778,-0.0492365286212755,-9.37955870235298,336.593218787194
738328.59452823502942919731,-0.11078218939787,-9.5272682882168,336.543982258573
738328.59452832548413425684,-0.11078218939787,-9.45341349528489,336.531673126418
738328.59452841582242399454,-0.0369273964659566,-9.3918678345083,336.568600522884
738328.59452850627712905407,-0.123091321553189,-9.49034089175085,336.556291390728
738328.59452859673183411360,-0.11078218939787,-9.44110436312957,336.507054862107
738328.59452868718653917313,-0.0861639250872321,-9.50265002390617,336.42089093702
738328.59452877752482891083,-0.0738547929319132,-9.45341349528489,336.42089093702
738328.59452886797953397036,-0.0738547929319132,-9.36724957019766,336.470127465641
738328.59452895843423902988,-0.0738547929319132,-9.49034089175085,336.433200069175
738328.59452904888894408941,-0.0738547929319132,-9.46572262744021,336.470127465641
738328.59452913922723382711,-0.0615456607765943,-9.3918678345083,336.408581804865
738328.59452922968193888664,-0.0615456607765943,-9.41648609881893,336.42089093702
738328.59452932013664394617,-0.0615456607765943,-9.41648609881893,336.383963540554
738328.59452941059134900570,-0.0738547929319132,-9.41648609881893,336.482436597797
738328.59452950092963874340,-0.0615456607765943,-9.42879523097425,336.470127465641
738328.59452959138434380293,-0.0615456607765943,-9.46572262744021,336.482436597797
738328.59452968183904886246,-0.0615456607765943,-9.42879523097425,336.445509201331
738328.59452977229375392199,-0.0738547929319132,-9.40417696666361,336.470127465641
738328.59452986263204365969,-0.0615456607765943,-9.49034089175085,336.433200069175
738328.59452995308674871922,-0.0615456607765943,-9.42879523097425,336.543982258573
738328.59453004354145377874,-0.0738547929319132,-9.41648609881893,336.470127465641
738328.59453013399615883827,-0.0738547929319132,-9.44110436312957,336.482436597797
738328.59453022445086389780,-0.0738547929319132,-9.49034089175085,336.470127465641
738328.59453031478915363550,-0.0861639250872321,-9.47803175959553,336.383963540554
738328.59453040524385869503,-0.0738547929319132,-9.42879523097425,336.334727011933
738328.59453049569856375456,-0.0861639250872321,-9.41648609881893,336.482436597797
738328.59453058615326881409,-0.0738547929319132,-9.47803175959553,336.494745729952
738328.59453067649155855179,-0.0738547929319132,-9.49034089175085,336.433200069175
738328.59453076694626361132,-0.0861639250872321,-9.45341349528489,336.42089093702
738328.59453085740096867085,-0.0861639250872321,-9.3918678345083,336.433200069175
738328.59453094785567373037,-0.0861639250872321,-9.53957742037212,336.445509201331
738328.59453103819396346807,-0.0738547929319132,-9.47803175959553,336.507054862107
738328.59453112864866852760,-0.0861639250872321,-9.45341349528489,336.482436597797
738328.59453121910337358713,-0.0984730572425509,-9.46572262744021,336.519363994263
738328.59453130955807864666,-0.0984730572425509,-9.42879523097425,336.543982258573
738328.59453139989636838436,-0.0861639250872321,-9.49034089175085,336.445509201331
738328.59453149035107344389,-0.0861639250872321,-9.41648609881893,336.531673126418
738328.59453158080577850342,-0.0861639250872321,-9.49034089175085,336.531673126418
738328.59453167126048356295,-0.0861639250872321,-9.49034089175085,336.531673126418
738328.59453176159877330065,-0.0615456607765943,-9.40417696666361,336.531673126418
738328.59453185205347836018,-0.0246182643106377,-9.3918678345083,336.445509201331
738328.59453194250818341970,-0.0861639250872321,-9.51495915606148,336.531673126418
738328.59453203296288847923,-0.160018718019145,-9.51495915606148,336.543982258573
738328.59453212330117821693,-0.135400453708508,-9.45341349528489,336.433200069175
738328.59453221375588327646,-0.11078218939787,-9.5272682882168,336.507054862107
738328.59453230421058833599,-0.0861639250872321,-9.45341349528489,336.433200069175
738328.59453239466529339552,-0.0738547929319132,-9.51495915606148,336.445509201331
738328.59453248500358313322,-0.0615456607765943,-9.45341349528489,336.482436597797
738328.59453257545828819275,-0.0369273964659566,-9.42879523097425,336.396272672709
738328.59453266591299325228,-0.0246182643106377,-9.42879523097425,336.371654408399
738328.59453275636769831181,-0.0369273964659566,-9.47803175959553,336.445509201331
738328.59453284670598804951,-0.0123091321553189,-9.40417696666361,336.408581804865
738328.59453293716069310904,0,-9.40417696666361,336.445509201331
738328.59453302761539816856,0,-9.37955870235298,336.457818333486
738328.59453311807010322809,-0.135400453708508,-9.55188655252744,336.470127465641
738328.59453320840839296579,-0.11078218939787,-9.51495915606148,336.433200069175
738328.59453329886309802532,-0.11078218939787,-9.49034089175085,336.470127465641
738328.59453338931780308485,-0.11078218939787,-9.46572262744021,336.494745729952
738328.59453347977250814438,-0.0984730572425509,-9.47803175959553,336.494745729952
738328.59453357011079788208,-0.11078218939787,-9.51495915606148,336.507054862107
738328.59453366056550294161,-0.0984730572425509,-9.47803175959553,336.507054862107
738328.59453375102020800114,-0.0984730572425509,-9.45341349528489,336.531673126418
738328.59453384147491306067,-0.0738547929319132,-9.49034089175085,336.383963540554
738328.59453393181320279837,0.0123091321553189,-9.41648609881893,336.371654408399
738328.59453402226790785789,0.184636982329783,-8.97335734122746,336.568600522884
738328.59453411272261291742,0.640074872076581,-8.25942767621896,336.21163569038
738328.59453420317731797695,0.504674418368074,-8.34559160130619,336.174708293914
738328.59453429351560771465,0,-9.29339477726574,336.310108747622
738328.59453438397031277418,-0.196946114485102,-9.68728700623595,336.482436597797
738328.59453447442501783371,-0.0861639250872321,-9.46572262744021,336.494745729952
738328.59453456487972289324,-0.0738547929319132,-9.42879523097425,336.482436597797
738328.59453465521801263094,-0.0984730572425509,-9.45341349528489,336.519363994263
738328.59453474567271769047,-0.0861639250872321,-9.5272682882168,336.543982258573
738328.59453483612742275000,-0.0984730572425509,-9.42879523097425,336.543982258573
738328.59453492658212780952,-0.0984730572425509,-9.45341349528489,336.494745729952
738328.59453501692041754723,-0.0738547929319132,-9.45341349528489,336.556291390728
738328.59453510737512260675,-0.0861639250872321,-9.46572262744021,336.519363994263
738328.59453519782982766628,-0.0861639250872321,-9.46572262744021,336.408581804865
738328.59453528828453272581,-0.0861639250872321,-9.46572262744021,336.433200069175
738328.59453537873923778534,-0.0738547929319132,-9.45341349528489,336.433200069175
738328.59453546907752752304,-0.0369273964659566,-9.41648609881893,336.445509201331
738328.59453555953223258257,-0.0492365286212755,-9.42879523097425,336.433200069175
738328.59453564998693764210,-0.0369273964659566,-9.41648609881893,336.482436597797
738328.59453574044164270163,-0.123091321553189,-9.49034089175085,336.531673126418
738328.59453583077993243933,-0.11078218939787,-9.47803175959553,336.543982258573
738328.59453592123463749886,-0.0984730572425509,-9.46572262744021,336.457818333486
738328.59453601168934255838,-0.0492365286212755,-9.41648609881893,336.556291390728
738328.59453610214404761791,-0.0492365286212755,-9.41648609881893,336.556291390728
738328.59453619248233735561,-0.0738547929319132,-9.44110436312957,336.457818333486
738328.59453628293704241514,-0.0738547929319132,-9.42879523097425,336.507054862107
738328.59453637339174747467,-0.0492365286212755,-9.40417696666361,336.556291390728
738328.59453646384645253420,-0.0369273964659566,-9.37955870235298,336.556291390728
738328.59453655418474227190,-0.0492365286212755,-9.3918678345083,336.531673126418
738328.59453664463944733143,-0.0492365286212755,-9.37955870235298,336.580909655039
738328.59453673509415239096,-0.0246182643106377,-9.35494043804234,336.568600522884
738328.59453682554885745049,0,-9.3303221737317,336.531673126418
738328.59453691588714718819,-0.0246182643106377,-9.34263130588702,336.556291390728
738328.59453700634185224771,-0.0492365286212755,-9.36724957019766,336.60552791935
738328.59453709679655730724,0,-9.30570390942106,336.519363994263
738328.59453718725126236677,0.0123091321553189,-9.29339477726574,336.531673126418
738328.59453727758955210447,-0.0738547929319132,-9.37955870235298,336.543982258573
738328.59453736804425716400,-0.0369273964659566,-9.34263130588702,336.371654408399
738328.59453745849896222353,-0.0369273964659566,-9.36724957019766,336.334727011933
738328.59453754895366728306,-0.0492365286212755,-9.3918678345083,336.408581804865
738328.59453763929195702076,-0.0492365286212755,-9.41648609881893,336.408581804865
738328.59453772974666208029,-0.0492365286212755,-9.41648609881893,336.494745729952
738328.59453782020136713982,-0.0492365286212755,-9.42879523097425,336.531673126418
738328.59453791065607219934,-0.0492365286212755,-9.44110436312957,336.494745729952
738328.59453800099436193705,-0.0369273964659566,-9.42879523097425,336.494745729952
738328.59453809144906699657,-0.0369273964659566,-9.44110436312957,336.531673126418
738328.59453818190377205610,-0.0738547929319132,-9.46572262744021,336.519363994263
738328.59453827235847711563,-0.0615456607765943,-9.46572262744021,336.457818333486
738328.59453836269676685333,-0.0984730572425509,-9.50265002390617,336.519363994263
738328.59453845315147191286,-0.11078218939787,-9.51495915606148,336.531673126418
738328.59453854360617697239,-0.0984730572425509,-9.50265002390617,336.408581804865
738328.59453863406088203192,-0.0738547929319132,-9.46572262744021,336.470127465641
738328.59453872439917176962,-0.0369273964659566,-9.42879523097425,336.383963540554
738328.59453881485387682915,-0.0492365286212755,-9.42879523097425,336.396272672709
738328.59453890530858188868,-0.0492365286212755,-9.46572262744021,336.408581804865
738328.59453899576328694820,-0.0984730572425509,-9.50265002390617,336.42089093702
738328.59453908610157668591,-0.0738547929319132,-9.47803175959553,336.494745729952
738328.59453917655628174543,-0.0738547929319132,-9.47803175959553,336.507054862107
738328.59453926701098680496,-0.0492365286212755,-9.44110436312957,336.519363994263
738328.59453935746569186449,-0.0738547929319132,-9.47803175959553,336.334727011933
738328.59453944780398160219,-0.0492365286212755,-9.44110436312957,336.457818333486
738328.59453953825868666172,-0.0492365286212755,-9.45341349528489,336.507054862107
738328.59453962871339172125,-0.0369273964659566,-9.42879523097425,336.507054862107
738328.59453971916809678078,-0.11078218939787,-9.47803175959553,336.433200069175
738328.59453980950638651848,-0.0861639250872321,-9.46572262744021,336.482436597797
738328.59453989996109157801,-0.0615456607765943,-9.44110436312957,336.543982258573
738328.59453999041579663754,-0.0492365286212755,-9.42879523097425,336.519363994263
738328.59454008087050169706,-0.0492365286212755,-9.46572262744021,336.519363994263
738328.59454017120879143476,-0.0984730572425509,-9.51495915606148,336.507054862107
738328.59454026166349649429,-0.0984730572425509,-9.47803175959553,336.482436597797
738328.59454035211820155382,-0.0861639250872321,-9.47803175959553,336.445509201331
738328.59454044257290661335,-0.0861639250872321,-9.47803175959553,336.470127465641
738328.59454053291119635105,-0.0738547929319132,-9.47803175959553,336.470127465641
738328.59454062336590141058,-0.0861639250872321,-9.46572262744021,336.470127465641
738328.59454071382060647011,-0.0861639250872321,-9.49034089175085,336.433200069175
738328.59454080427531152964,-0.0738547929319132,-9.46572262744021,336.470127465641
738328.59454089473001658916,-0.0984730572425509,-9.49034089175085,336.445509201331
738328.59454098506830632687,-0.0984730572425509,-9.51495915606148,336.297799615467
738328.59454107552301138639,-0.11078218939787,-9.51495915606148,336.42089093702
738328.59454116597771644592,-0.123091321553189,-9.50265002390617,336.457818333486
738328.59454125643242150545,-0.11078218939787,-9.50265002390617,336.457818333486
738328.59454134677071124315,-0.0615456607765943,-9.44110436312957,336.383963540554
738328.59454143722541630268,-0.0861639250872321,-9.45341349528489,336.457818333486
738328.59454152768012136221,-0.0861639250872321,-9.46572262744021,336.470127465641
738328.59454161813482642174,-0.135400453708508,-9.5272682882168,336.445509201331
738328.59454170847311615944,-0.123091321553189,-9.50265002390617,336.457818333486
738328.59454179892782121897,-0.11078218939787,-9.50265002390617,336.470127465641
738328.59454188938252627850,-0.135400453708508,-9.5272682882168,336.482436597797
738328.59454197983723133802,-0.135400453708508,-9.56419568468276,336.433200069175
738328.59454207017552107573,-0.0492365286212755,-9.40417696666361,336.457818333486
738328.59454216063022613525,-0.0861639250872321,-9.44110436312957,336.433200069175
738328.59454225108493119478,-0.11078218939787,-9.47803175959553,336.359345276243
738328.59454234153963625431,-0.147709585863826,-9.5272682882168,336.445509201331
738328.59454243187792599201,-0.0984730572425509,-9.47803175959553,336.408581804865
738328.59454252233263105154,-0.0738547929319132,-9.45341349528489,336.408581804865
738328.59454261278733611107,-0.11078218939787,-9.47803175959553,336.383963540554
738328.59454270324204117060,-0.0861639250872321,-9.44110436312957,336.433200069175
738328.59454279358033090830,-0.0615456607765943,-9.53957742037212,336.445509201331
738328.59454288403503596783,-0.0246182643106377,-9.45341349528489,336.371654408399
738328.59454297448974102736,-0.0738547929319132,-9.44110436312957,336.396272672709
738328.59454306494444608688,-0.0861639250872321,-9.42879523097425,336.371654408399
738328.59454315528273582458,-0.0738547929319132,-9.45341349528489,336.433200069175
738328.59454324573744088411,0.0123091321553189,-9.34263130588702,336.408581804865
738328.59454333619214594364,-0.0246182643106377,-9.37955870235298,336.383963540554
738328.59454342664685100317,-0.123091321553189,-9.47803175959553,336.470127465641
738328.59454351698514074087,-0.196946114485102,-9.5272682882168,336.507054862107
738328.59454360743984580040,-0.147709585863826,-9.46572262744021,336.519363994263
738328.59454369789455085993,-0.160018718019145,-9.51495915606148,336.507054862107
738328.59454378834925591946,-0.160018718019145,-9.50265002390617,336.470127465641
738328.59454387868754565716,-0.11078218939787,-9.45341349528489,336.457818333486
738328.59454396914225071669,-0.123091321553189,-9.42879523097425,336.408581804865
738328.59454405959695577621,-0.0984730572425509,-9.46572262744021,336.408581804865
738328.59454415005166083574,-0.11078218939787,-9.46572262744021,336.519363994263
738328.59454424038995057344,-0.11078218939787,-9.45341349528489,336.617837051505
738328.59454433084465563297,0.246182643106377,-8.82564775536363,336.482436597797
738328.59454442129936069250,0.677002268542538,-8.18557288328705,335.965453047273
738328.59454451175406575203,0.381583096814885,-8.57946511225725,336.076235236671
