time_dn,ecg_projection_ll_ra_mV,ecg_projection_la_ra_mV,ecg_projection_vx_rl_mV
738245.49055325996596366167,0.590838343455306,-1.53864151941486,338.685771253599
738245.49055335042066872120,0.615456607765943,-1.53864151941486,338.661152989288
738245.49055344087537378073,0.615456607765943,-1.53864151941486,338.648843857133
738245.49055353144649416208,0.701620532853175,-1.44016846217231,338.624225592822
738245.49055362190119922161,0.677002268542538,-1.48940499079358,338.587298196356
738245.49055371235590428114,0.566220079144668,-1.5632597837255,338.599607328511
738245.49055380292702466249,0.664693136387219,-1.47709585863826,338.673462121443
738245.49055389338172972202,0.664693136387219,-1.48940499079358,338.636534724977
738245.49055398383643478155,0.566220079144668,-1.5632597837255,338.673462121443
738245.49055407440755516291,0.750857061474451,-1.39093193355103,338.636534724977
738245.49055416486226022243,0.492365286212755,-1.62480544450209,338.648843857133
738245.49055425543338060379,0.43081962543616,-1.67404197312337,338.661152989288
738245.49055434588808566332,0.504674418368074,-1.61249631234677,338.698080385754
738245.49055443634279072285,0.566220079144668,-1.55095065157018,338.698080385754
738245.49055452691391110420,0.516983550523392,-1.58787804803613,338.73500778222
738245.49055461736861616373,0.516983550523392,-1.57556891588082,338.747316914375
738245.49055470782332122326,0.529292682678711,-1.5632597837255,338.661152989288
738245.49055479839444160461,0.664693136387219,-1.44016846217231,338.73500778222
738245.49055488884914666414,0.590838343455306,-1.51402325510422,338.722698650065
738245.49055497930385172367,0.566220079144668,-1.55095065157018,338.747316914375
738245.49055506987497210503,0.529292682678711,-1.58787804803613,338.685771253599
738245.49055516032967716455,0.566220079144668,-1.5017141229489,338.73500778222
738245.49055525078438222408,0.960112308114872,-0.689311400697857,338.858099103773
738245.49055534135550260544,1.08320362966806,0.0492365286212755,338.833480839462
738245.49055543181020766497,1.57556891588082,0.615456607765943,338.931953896705
738245.49055552238132804632,1.19398581906593,-0.750857061474451,338.513443403424
738245.49055561283603310585,0.837020986561683,-1.77251503036592,338.254951628162
738245.49055570329073816538,0.689311400697857,-1.61249631234677,338.562679932045
738245.49055579386185854673,0.640074872076581,-1.52633238725954,338.624225592822
738245.49055588431656360626,0.677002268542538,-1.42785933001699,338.73500778222
738245.49055597477126866579,0.590838343455306,-1.51402325510422,338.673462121443
738245.49055606534238904715,0.701620532853175,-1.37862280139571,338.722698650065
738245.49055615579709410667,0.54160181483403,-1.55095065157018,338.673462121443
738245.49055624625179916620,0.553910946989349,-1.51402325510422,338.624225592822
738245.49055633682291954756,0.43081962543616,-1.61249631234677,338.685771253599
738245.49055642727762460709,0.615456607765943,-1.42785933001699,338.685771253599
738245.49055651773232966661,0.566220079144668,-1.47709585863826,338.673462121443
738245.49055660830345004797,0.504674418368074,-1.52633238725954,338.710389517909
738245.49055669875815510750,0.566220079144668,-1.45247759432763,338.759626046531
738245.49055678921286016703,0.590838343455306,-1.41555019786167,338.685771253599
738245.49055687978398054838,0.627765739921262,-1.37862280139571,338.710389517909
738245.49055697023868560791,0.627765739921262,-1.37862280139571,338.685771253599
738245.49055706080980598927,0.6523840042319,-1.34169540492976,338.759626046531
738245.49055715126451104879,0.553910946989349,-1.41555019786167,338.722698650065
738245.49055724171921610832,0.76316619362977,-1.19398581906593,338.73500778222
738245.49055733229033648968,0.640074872076581,-1.3047680084638,338.784244310841
738245.49055742274504154921,0.529292682678711,-1.40324106570635,338.771935178686
738245.49055751319974660873,0.701620532853175,-1.19398581906593,338.796553442997
738245.49055760377086699009,0.640074872076581,-1.21860408337657,338.858099103773
738245.49055769422557204962,0.677002268542538,-1.15705842259997,338.858099103773
738245.49055778468027710915,0.713929665008494,-1.08320362966806,338.858099103773
738245.49055787525139749050,0.726238797163813,-1.0462762332021,338.931953896705
738245.49055796570610255003,0.76316619362977,-1.00934883673615,338.981190425326
738245.49055805616080760956,0.837020986561683,-0.923184911648915,338.870408235928
738245.49055814673192799091,0.87394838302764,-0.910875779493596,338.870408235928
738245.49055823718663305044,0.615456607765943,-1.18167668691061,338.833480839462
738245.49055832764133810997,0.76316619362977,-1.05858536535742,338.833480839462
738245.49055841821245849133,0.640074872076581,-1.25553147984252,338.833480839462
738245.49055850866716355085,0.664693136387219,-1.29245887630848,338.771935178686
738245.49055859923828393221,0.738547929319132,-1.24322234768721,338.722698650065
738245.49055868969298899174,0.553910946989349,-1.47709585863826,338.73500778222
738245.49055878014769405127,0.590838343455306,-1.47709585863826,338.476516006958
738245.49055887071881443262,0.6523840042319,-1.40324106570635,338.538061667735
738245.49055896117351949215,0.54160181483403,-1.55095065157018,338.636534724977
738245.49055905162822455168,0.54160181483403,-1.53864151941486,338.661152989288
738245.49055914219934493303,0.603147475610625,-1.46478672648295,338.73500778222
738245.49055923265404999256,0.578529211299987,-1.48940499079358,338.710389517909
738245.49055932310875505209,0.54160181483403,-1.52633238725954,338.759626046531
738245.49055941367987543344,0.615456607765943,-1.46478672648295,338.759626046531
738245.49055950413458049297,0.590838343455306,-1.48940499079358,338.636534724977
738245.49055959458928555250,0.516983550523392,-1.5632597837255,338.747316914375
738245.49055968516040593386,0.516983550523392,-1.55095065157018,338.73500778222
738245.49055977561511099339,0.553910946989349,-1.51402325510422,338.759626046531
738245.49055986606981605291,0.590838343455306,-1.48940499079358,338.722698650065
738245.49055995664093643427,0.689311400697857,-1.37862280139571,338.673462121443
738245.49056004709564149380,0.566220079144668,-1.51402325510422,338.648843857133
738245.49056013766676187515,0.640074872076581,-1.44016846217231,338.636534724977
738245.49056022812146693468,0.516983550523392,-1.5632597837255,338.661152989288
738245.49056031857617199421,0.553910946989349,-1.51402325510422,338.661152989288
738245.49056040914729237556,0.640074872076581,-1.45247759432763,338.722698650065
738245.49056049960199743509,0.516983550523392,-1.57556891588082,338.747316914375
738245.49056059005670249462,0.590838343455306,-1.48940499079358,338.722698650065
738245.49056068062782287598,0.553910946989349,-1.52633238725954,338.698080385754
738245.49056077108252793550,0.6523840042319,-1.41555019786167,338.673462121443
738245.49056086153723299503,0.627765739921262,-1.45247759432763,338.661152989288
738245.49056095210835337639,0.553910946989349,-1.52633238725954,338.673462121443
738245.49056104256305843592,0.603147475610625,-1.48940499079358,338.698080385754
738245.49056113301776349545,0.627765739921262,-1.46478672648295,338.73500778222
738245.49056122358888387680,0.701620532853175,-1.39093193355103,338.673462121443
738245.49056131404358893633,0.418510493280842,-1.67404197312337,338.685771253599
738245.49056140449829399586,0.566220079144668,-1.52633238725954,338.661152989288
738245.49056149506941437721,0.664693136387219,-1.45247759432763,338.698080385754
738245.49056158552411943674,0.615456607765943,-1.48940499079358,338.685771253599
738245.49056167609523981810,0.566220079144668,-1.57556891588082,338.710389517909
738245.49056176654994487762,0.627765739921262,-1.51402325510422,338.636534724977
738245.49056185700464993715,0.750857061474451,-1.39093193355103,338.599607328511
738245.49056194757577031851,0.677002268542538,-1.45247759432763,338.661152989288
738245.49056203803047537804,0.640074872076581,-1.48940499079358,338.648843857133
738245.49056212848518043756,0.627765739921262,-1.51402325510422,338.648843857133
738245.49056221905630081892,0.677002268542538,-1.45247759432763,338.611916460667
738245.49056230951100587845,0.640074872076581,-1.47709585863826,338.501134271269
738245.49056239996571093798,0.578529211299987,-1.53864151941486,338.538061667735
738245.49056249053683131933,0.615456607765943,-1.48940499079358,338.698080385754
738245.49056258099153637886,0.6523840042319,-1.45247759432763,338.661152989288
738245.49056267144624143839,0.677002268542538,-1.41555019786167,338.661152989288
738245.49056276201736181974,0.529292682678711,-1.57556891588082,338.673462121443
738245.49056285247206687927,0.529292682678711,-1.57556891588082,338.722698650065
738245.49056294304318726063,0.787784457940408,-1.31707714061912,338.710389517909
738245.49056303349789232016,0.418510493280842,-1.68635110527868,338.747316914375
738245.49056312395259737968,0.54160181483403,-1.55095065157018,338.759626046531
738245.49056321452371776104,0.590838343455306,-1.5017141229489,338.722698650065
738245.49056330497842282057,0.578529211299987,-1.52633238725954,338.747316914375
738245.49056339543312788010,0.6523840042319,-1.46478672648295,338.673462121443
738245.49056348600424826145,0.849330118717002,-0.923184911648915,338.759626046531
738245.49056357645895332098,1.31707714061912,0.196946114485102,338.981190425326
738245.49056366691365838051,1.698660237434,0.87394838302764,338.931953896705
738245.49056375748477876186,1.24322234768721,-0.356964832504247,338.587298196356
738245.49056384793948382139,0.947803175959553,-1.64942370881273,338.218024231697
738245.49056393839418888092,0.800093590095726,-1.58787804803613,338.488825139114
738245.49056402896530926228,0.824711854406364,-1.39093193355103,338.636534724977
738245.49056411942001432180,0.627765739921262,-1.5017141229489,338.73500778222
738245.49056420987471938133,0.701620532853175,-1.41555019786167,338.673462121443
738245.49056430044583976269,0.701620532853175,-1.40324106570635,338.710389517909
738245.49056439090054482222,0.566220079144668,-1.51402325510422,338.747316914375
738245.49056448147166520357,0.677002268542538,-1.40324106570635,338.710389517909
738245.49056457192637026310,0.6523840042319,-1.42785933001699,338.722698650065
738245.49056466238107532263,0.787784457940408,-1.3047680084638,338.784244310841
738245.49056475295219570398,0.664693136387219,-1.41555019786167,338.784244310841
738245.49056484340690076351,0.627765739921262,-1.44016846217231,338.747316914375
738245.49056493386160582304,0.6523840042319,-1.41555019786167,338.661152989288
738245.49056502443272620440,0.738547929319132,-1.32938627277444,338.648843857133
738245.49056511488743126392,0.677002268542538,-1.39093193355103,338.698080385754
738245.49056520534213632345,0.800093590095726,-1.21860408337657,338.710389517909
738245.49056529591325670481,0.775475325785089,-1.24322234768721,338.710389517909
738245.49056538636796176434,0.664693136387219,-1.35400453708508,338.747316914375
738245.49056547682266682386,0.701620532853175,-1.29245887630848,338.747316914375
738245.49056556739378720522,0.812402722251045,-1.18167668691061,338.759626046531
738245.49056565784849226475,0.664693136387219,-1.29245887630848,338.808862575152
738245.49056574830319732428,0.861639250872321,-1.08320362966806,338.808862575152
738245.49056583887431770563,0.738547929319132,-1.16936755475529,338.685771253599
738245.49056592932902276516,0.861639250872321,-1.03396710104678,338.784244310841
738245.49056601990014314651,1.14474929044465,-0.701620532853175,338.907335632394
738245.49056611035484820604,0.640074872076581,-1.16936755475529,338.907335632394
738245.49056620080955326557,0.787784457940408,-1.00934883673615,338.91964476455
738245.49056629138067364693,1.0462762332021,-0.750857061474451,338.882717368084
738245.49056638183537870646,0.910875779493596,-0.898566647338277,338.821171707307
738245.49056647229008376598,0.76316619362977,-1.05858536535742,338.845789971618
738245.49056656286120414734,0.824711854406364,-1.02165796889147,338.833480839462
738245.49056665331590920687,0.997039704580828,-0.910875779493596,338.747316914375
738245.49056674377061426640,0.738547929319132,-1.23091321553189,338.722698650065
738245.49056683434173464775,0.787784457940408,-1.23091321553189,338.685771253599
738245.49056692479643970728,0.775475325785089,-1.28014974415316,338.624225592822
738245.49056701525114476681,1.05858536535742,-1.03396710104678,338.661152989288
738245.49056710582226514816,0.566220079144668,-1.5632597837255,338.673462121443
738245.49056719627697020769,0.6523840042319,-1.48940499079358,338.599607328511
738245.49056728673167526722,0.76316619362977,-1.36631366924039,338.648843857133
738245.49056737730279564857,0.603147475610625,-1.51402325510422,338.661152989288
738245.49056746775750070810,0.812402722251045,-1.34169540492976,338.710389517909
738245.49056755832862108946,0.627765739921262,-1.51402325510422,338.722698650065
738245.49056764878332614899,0.775475325785089,-1.39093193355103,338.636534724977
738245.49056773923803120852,0.849330118717002,-1.32938627277444,338.587298196356
738245.49056782980915158987,0.603147475610625,-1.55095065157018,338.722698650065
738245.49056792026385664940,0.627765739921262,-1.5017141229489,338.73500778222
738245.49056801071856170893,0.689311400697857,-1.45247759432763,338.698080385754
738245.49056810128968209028,0.76316619362977,-1.40324106570635,338.661152989288
738245.49056819174438714981,0.726238797163813,-1.42785933001699,338.698080385754
738245.49056828219909220934,0.849330118717002,-1.3047680084638,338.73500778222
738245.49056837277021259069,0.677002268542538,-1.47709585863826,338.648843857133
738245.49056846322491765022,0.738547929319132,-1.41555019786167,338.73500778222
738245.49056855367962270975,0.824711854406364,-1.31707714061912,338.759626046531
738245.49056864425074309111,0.701620532853175,-1.46478672648295,338.710389517909
738245.49056873470544815063,0.677002268542538,-1.47709585863826,338.698080385754
738245.49056882527656853199,0.713929665008494,-1.44016846217231,338.710389517909
738245.49056891573127359152,0.726238797163813,-1.41555019786167,338.73500778222
738245.49056900618597865105,0.837020986561683,-1.31707714061912,338.673462121443
738245.49056909675709903240,0.6523840042319,-1.52633238725954,338.722698650065
738245.49056918721180409193,0.824711854406364,-1.34169540492976,338.599607328511
738245.49056927766650915146,0.677002268542538,-1.5017141229489,338.685771253599
738245.49056936823762953281,0.701620532853175,-1.46478672648295,338.501134271269
738245.49056945869233459234,0.824711854406364,-1.35400453708508,338.513443403424
738245.49056954914703965187,0.640074872076581,-1.53864151941486,338.636534724977
738245.49056963971816003323,0.726238797163813,-1.47709585863826,338.636534724977
738245.49056973017286509275,0.861639250872321,-1.34169540492976,338.624225592822
738245.49056982062757015228,0.750857061474451,-1.45247759432763,338.636534724977
738245.49056991119869053364,0.689311400697857,-1.51402325510422,338.624225592822
738245.49057000165339559317,0.824711854406364,-1.37862280139571,338.624225592822
738245.49057009210810065269,1.13244015828934,-1.08320362966806,338.611916460667
738245.49057018267922103405,0.566220079144668,-1.64942370881273,338.673462121443
738245.49057027313392609358,0.726238797163813,-1.47709585863826,338.685771253599
738245.49057036370504647493,0.787784457940408,-1.42785933001699,338.698080385754
738245.49057045415975153446,0.800093590095726,-1.41555019786167,338.698080385754
738245.49057054461445659399,0.800093590095726,-1.37862280139571,338.648843857133
738245.49057063518557697535,0.713929665008494,-1.48940499079358,338.685771253599
738245.49057072564028203487,0.837020986561683,-1.36631366924039,338.698080385754
738245.49057081609498709440,0.87394838302764,-1.32938627277444,338.587298196356
738245.49057090666610747576,0.677002268542538,-1.51402325510422,338.685771253599
738245.49057099712081253529,0.627765739921262,-1.57556891588082,338.710389517909
738245.49057108757551759481,0.701620532853175,-1.46478672648295,338.661152989288
738245.49057117814663797617,0.738547929319132,-1.44016846217231,338.611916460667
738245.49057126860134303570,0.750857061474451,-1.44016846217231,338.661152989288
738245.49057135905604809523,0.824711854406364,-1.37862280139571,338.636534724977
738245.49057144962716847658,1.03396710104678,-1.09551276182338,338.673462121443
738245.49057154008187353611,0.997039704580828,-0.603147475610625,338.870408235928
738245.49057163053657859564,1.46478672648295,0.455437889746798,339.018117821792
738245.49057172110769897699,1.88329721976379,0.837020986561683,338.895026500239
738245.49057181156240403652,1.26784061199784,-0.947803175959553,338.390352081871
738245.49057190213352441788,1.05858536535742,-1.61249631234677,338.267260760318
738245.49057199258822947741,0.947803175959553,-1.41555019786167,338.501134271269
738245.49057208304293453693,0.787784457940408,-1.46478672648295,338.611916460667
738245.49057217361405491829,0.923184911648915,-1.28014974415316,338.698080385754
738245.49057226406875997782,0.775475325785089,-1.44016846217231,338.710389517909
738245.49057235452346503735,0.701620532853175,-1.48940499079358,338.698080385754
738245.49057244509458541870,0.87394838302764,-1.3047680084638,338.710389517909
738245.49057253554929047823,0.87394838302764,-1.31707714061912,338.710389517909
738245.49057262600399553776,0.701620532853175,-1.46478672648295,338.673462121443
738245.49057271657511591911,0.849330118717002,-1.31707714061912,338.771935178686
738245.49057280702982097864,0.849330118717002,-1.29245887630848,338.759626046531
738245.49057289748452603817,0.787784457940408,-1.37862280139571,338.574989064201
738245.49057298805564641953,0.837020986561683,-1.31707714061912,338.599607328511
738245.49057307851035147905,0.87394838302764,-1.25553147984252,338.747316914375
738245.49057316896505653858,0.984730572425509,-1.13244015828934,338.73500778222
738245.49057325953617691994,0.775475325785089,-1.34169540492976,338.759626046531
738245.49057334999088197947,0.837020986561683,-1.28014974415316,338.784244310841
738245.49057344056200236082,0.984730572425509,-1.1078218939787,338.771935178686
738245.49057353101670742035,0.910875779493596,-1.18167668691061,338.722698650065
738245.49057362147141247988,0.87394838302764,-1.20629495122125,338.796553442997
738245.49057371204253286123,1.02165796889147,-1.02165796889147,338.821171707307
738245.49057380249723792076,0.997039704580828,-1.02165796889147,338.759626046531
738245.49057389295194298029,0.898566647338277,-1.09551276182338,338.771935178686
738245.49057398352306336164,1.13244015828934,-0.812402722251045,338.808862575152
738245.49057407397776842117,0.923184911648915,-0.984730572425509,338.808862575152
738245.49057416443247348070,0.984730572425509,-0.898566647338277,338.858099103773
738245.49057425500359386206,1.0462762332021,-0.837020986561683,338.845789971618
738245.49057434545829892159,1.07089449751274,-0.812402722251045,338.907335632394
738245.49057443591300398111,1.00934883673615,-0.886257515182958,338.931953896705
738245.49057452648412436247,1.07089449751274,-0.837020986561683,338.882717368084
738245.49057461693882942200,1.03396710104678,-0.910875779493596,338.771935178686
738245.49057470739353448153,1.03396710104678,-0.984730572425509,338.759626046531
738245.49057479796465486288,1.13244015828934,-0.935494043804234,338.759626046531
738245.49057488841935992241,0.923184911648915,-1.20629495122125,338.698080385754
738245.49057497899048030376,0.910875779493596,-1.25553147984252,338.648843857133
738245.49057506944518536329,0.898566647338277,-1.29245887630848,338.673462121443
738245.49057515989989042282,0.861639250872321,-1.34169540492976,338.624225592822
738245.49057525047101080418,0.837020986561683,-1.37862280139571,338.661152989288
738245.49057534092571586370,0.837020986561683,-1.39093193355103,338.673462121443
738245.49057543138042092323,0.923184911648915,-1.3047680084638,338.673462121443
738245.49057552195154130459,0.824711854406364,-1.41555019786167,338.685771253599
738245.49057561240624636412,0.960112308114872,-1.29245887630848,338.574989064201
738245.49057570286095142365,0.972421440270191,-1.26784061199784,338.673462121443
738245.49057579343207180500,0.800093590095726,-1.45247759432763,338.673462121443
738245.49057588388677686453,0.947803175959553,-1.29245887630848,338.673462121443
738245.49057597434148192406,0.886257515182958,-1.35400453708508,338.611916460667
738245.49057606491260230541,0.910875779493596,-1.34169540492976,338.673462121443
738245.49057615536730736494,0.837020986561683,-1.39093193355103,338.698080385754
738245.49057624593842774630,0.849330118717002,-1.39093193355103,338.636534724977
738245.49057633639313280582,0.935494043804234,-1.3047680084638,338.710389517909
738245.49057642684783786535,0.947803175959553,-1.3047680084638,338.661152989288
738245.49057651741895824671,0.849330118717002,-1.39093193355103,338.476516006958
738245.49057660787366330624,0.960112308114872,-1.28014974415316,338.648843857133
738245.49057669832836836576,0.837020986561683,-1.41555019786167,338.648843857133
738245.49057678889948874712,0.861639250872321,-1.40324106570635,338.698080385754
738245.49057687935419380665,0.984730572425509,-1.26784061199784,338.636534724977
738245.49057696980889886618,0.910875779493596,-1.34169540492976,338.710389517909
738245.49057706038001924753,0.837020986561683,-1.42785933001699,338.673462121443
738245.49057715083472430706,0.947803175959553,-1.3047680084638,338.55037079989
738245.49057724128942936659,0.910875779493596,-1.36631366924039,338.587298196356
738245.49057733186054974794,0.87394838302764,-1.40324106570635,338.574989064201
738245.49057742231525480747,0.923184911648915,-1.37862280139571,338.525752535579
738245.49057751276995986700,0.947803175959553,-1.31707714061912,338.574989064201
738245.49057760334108024836,1.00934883673615,-1.29245887630848,338.611916460667
738245.49057769379578530788,0.861639250872321,-1.40324106570635,338.624225592822
738245.49057778436690568924,0.960112308114872,-1.29245887630848,338.648843857133
738245.49057787482161074877,1.02165796889147,-1.26784061199784,338.648843857133
738245.49057796527631580830,0.984730572425509,-1.3047680084638,338.673462121443
738245.49057805584743618965,0.960112308114872,-1.34169540492976,338.710389517909
738245.49057814630214124918,0.984730572425509,-1.3047680084638,338.648843857133
738245.49057823675684630871,0.960112308114872,-1.3047680084638,338.685771253599
738245.49057832732796669006,0.812402722251045,-1.47709585863826,338.698080385754
738245.49057841778267174959,0.87394838302764,-1.40324106570635,338.624225592822
738245.49057850823737680912,0.984730572425509,-1.29245887630848,338.636534724977
738245.49057859880849719048,0.837020986561683,-1.42785933001699,338.55037079989
738245.49057868926320225000,0.861639250872321,-1.41555019786167,338.611916460667
738245.49057877971790730953,0.972421440270191,-1.29245887630848,338.624225592822
738245.49057887028902769089,0.910875779493596,-1.36631366924039,338.587298196356
738245.49057896074373275042,0.861639250872321,-1.41555019786167,338.599607328511
738245.49057905119843780994,0.861639250872321,-1.41555019786167,338.611916460667
738245.49057914176955819130,0.935494043804234,-1.35400453708508,338.599607328511
738245.49057923222426325083,1.05858536535742,-1.03396710104678,338.648843857133
738245.49057932279538363218,1.41555019786167,-0.0492365286212755,338.931953896705
738245.49057941325008869171,1.79713329467655,0.812402722251045,339.055045218258
738245.49057950370479375124,1.77251503036592,0.393892228970204,338.808862575152
738245.49057959427591413260,1.32938627277444,-1.28014974415316,338.242642496007
738245.49057968473061919212,1.14474929044465,-1.48940499079358,338.291879024628
738245.49057977518532425165,1.02165796889147,-1.37862280139571,338.513443403424
738245.49057986575644463301,0.997039704580828,-1.31707714061912,338.55037079989
738245.49057995621114969254,0.935494043804234,-1.34169540492976,338.587298196356
738245.49058004666585475206,0.923184911648915,-1.34169540492976,338.451897742648
738245.49058013723697513342,0.960112308114872,-1.3047680084638,338.661152989288
738245.49058022769168019295,0.972421440270191,-1.28014974415316,338.673462121443
738245.49058031814638525248,0.947803175959553,-1.3047680084638,338.685771253599
738245.49058040871750563383,1.0462762332021,-1.20629495122125,338.636534724977
738245.49058049917221069336,0.935494043804234,-1.3047680084638,338.648843857133
738245.49058058962691575289,0.923184911648915,-1.31707714061912,338.722698650065
738245.49058068019803613424,0.947803175959553,-1.26784061199784,338.747316914375
738245.49058077065274119377,1.05858536535742,-1.14474929044465,338.710389517909
738245.49058086122386157513,0.935494043804234,-1.29245887630848,338.673462121443
738245.49058095167856663465,0.960112308114872,-1.23091321553189,338.661152989288
738245.49058104213327169418,1.00934883673615,-1.16936755475529,338.661152989288
738245.49058113270439207554,1.00934883673615,-1.15705842259997,338.661152989288
738245.49058122315909713507,1.03396710104678,-1.1078218939787,338.673462121443
738245.49058131361380219460,1.14474929044465,-0.997039704580828,338.747316914375
738245.49058140418492257595,1.00934883673615,-1.12013102613402,338.796553442997
738245.49058149463962763548,1.02165796889147,-1.07089449751274,338.796553442997
738245.49058158509433269501,1.13244015828934,-0.923184911648915,338.833480839462
738245.49058167566545307636,1.0462762332021,-0.997039704580828,338.833480839462
738245.49058176612015813589,1.09551276182338,-0.910875779493596,338.833480839462
738245.49058185657486319542,1.12013102613402,-0.861639250872321,338.882717368084
738245.49058194714598357677,1.13244015828934,-0.837020986561683,338.845789971618
738245.49058203760068863630,1.21860408337657,-0.738547929319132,338.858099103773
738245.49058212817180901766,1.13244015828934,-0.812402722251045,338.833480839462
738245.49058221862651407719,1.21860408337657,-0.738547929319132,338.821171707307
738245.49058230908121913671,1.13244015828934,-0.849330118717002,338.808862575152
738245.49058239965233951807,1.09551276182338,-0.935494043804234,338.771935178686
738245.49058249010704457760,1.07089449751274,-1.03396710104678,338.747316914375
738245.49058258056174963713,1.0462762332021,-1.1078218939787,338.747316914375
738245.49058267113287001848,1.0462762332021,-1.15705842259997,338.661152989288
738245.49058276158757507801,1.00934883673615,-1.21860408337657,338.611916460667
738245.49058285204228013754,0.972421440270191,-1.26784061199784,338.661152989288
738245.49058294261340051889,1.07089449751274,-1.20629495122125,338.624225592822
738245.49058303306810557842,0.935494043804234,-1.34169540492976,338.624225592822
738245.49058312352281063795,0.923184911648915,-1.36631366924039,338.661152989288
738245.49058321409393101931,0.935494043804234,-1.35400453708508,338.698080385754
738245.49058330454863607883,0.947803175959553,-1.34169540492976,338.574989064201
738245.49058339500334113836,0.960112308114872,-1.32938627277444,338.624225592822
738245.49058348557446151972,1.02165796889147,-1.26784061199784,338.427279478337
738245.49058357602916657925,0.935494043804234,-1.34169540492976,338.599607328511
738245.49058366660028696060,0.935494043804234,-1.34169540492976,338.673462121443
738245.49058375705499202013,0.984730572425509,-1.3047680084638,338.661152989288
738245.49058384750969707966,0.997039704580828,-1.29245887630848,338.685771253599
738245.49058393808081746101,0.960112308114872,-1.32938627277444,338.661152989288
738245.49058402853552252054,0.898566647338277,-1.35400453708508,338.636534724977
738245.49058411899022758007,0.960112308114872,-1.32938627277444,338.661152989288
738245.49058420956134796143,0.984730572425509,-1.3047680084638,338.661152989288
738245.49058430001605302095,0.935494043804234,-1.36631366924039,338.722698650065
738245.49058439047075808048,0.935494043804234,-1.34169540492976,338.698080385754
738245.49058448104187846184,0.984730572425509,-1.3047680084638,338.624225592822
738245.49058457149658352137,0.972421440270191,-1.31707714061912,338.685771253599
738245.49058466195128858089,0.960112308114872,-1.32938627277444,338.698080385754
738245.49058475252240896225,0.984730572425509,-1.31707714061912,338.673462121443
738245.49058484297711402178,0.984730572425509,-1.32938627277444,338.73500778222
738245.49058493343181908131,1.00934883673615,-1.3047680084638,338.685771253599
738245.49058502400293946266,0.972421440270191,-1.34169540492976,338.648843857133
738245.49058511445764452219,0.984730572425509,-1.32938627277444,338.685771253599
738245.49058520502876490355,1.1078218939787,-1.19398581906593,338.685771253599
738245.49058529548346996307,0.997039704580828,-1.32938627277444,338.698080385754
738245.49058538593817502260,1.03396710104678,-1.29245887630848,338.673462121443
738245.49058547650929540396,1.02165796889147,-1.29245887630848,338.648843857133
738245.49058556696400046349,1.00934883673615,-1.3047680084638,338.685771253599
738245.49058565741870552301,0.997039704580828,-1.3047680084638,338.710389517909
738245.49058574798982590437,0.997039704580828,-1.31707714061912,338.698080385754
738245.49058583844453096390,0.972421440270191,-1.34169540492976,338.685771253599
738245.49058592889923602343,0.997039704580828,-1.3047680084638,338.759626046531
738245.49058601947035640478,1.00934883673615,-1.31707714061912,338.636534724977
738245.49058610992506146431,1.02165796889147,-1.3047680084638,338.574989064201
738245.49058620037976652384,1.02165796889147,-1.28014974415316,338.624225592822
738245.49058629095088690519,0.960112308114872,-1.32938627277444,338.636534724977
738245.49058638140559196472,0.972421440270191,-1.32938627277444,338.599607328511
738245.49058647186029702425,0.984730572425509,-1.31707714061912,338.685771253599
738245.49058656243141740561,0.997039704580828,-1.3047680084638,338.73500778222
738245.49058665288612246513,1.09551276182338,-1.13244015828934,338.710389517909
738245.49058674345724284649,1.36631366924039,-0.295419171727653,338.895026500239
738245.49058683391194790602,1.7602058982106,0.677002268542538,339.030426953948
738245.49058692436665296555,1.88329721976379,0.726238797163813,338.821171707307
738245.49058701493777334690,1.41555019786167,-0.910875779493596,338.181096835231
738245.49058710539247840643,1.14474929044465,-1.5632597837255,338.181096835231
738245.49058719584718346596,1.05858536535742,-1.36631366924039,338.464206874803
738245.49058728641830384731,1.0462762332021,-1.26784061199784,338.587298196356
738245.49058737687300890684,1.00934883673615,-1.24322234768721,338.636534724977
738245.49058746732771396637,1.00934883673615,-1.24322234768721,338.661152989288
738245.49058755789883434772,0.984730572425509,-1.25553147984252,338.698080385754
738245.49058764835353940725,0.984730572425509,-1.25553147984252,338.624225592822
738245.49058773880824446678,1.03396710104678,-1.21860408337657,338.673462121443
738245.49058782937936484814,0.997039704580828,-1.24322234768721,338.648843857133
738245.49058791983406990767,1.00934883673615,-1.23091321553189,338.73500778222
738245.49058801040519028902,1.0462762332021,-1.18167668691061,338.771935178686
738245.49058810085989534855,0.984730572425509,-1.23091321553189,338.747316914375
738245.49058819131460040808,1.05858536535742,-1.15705842259997,338.698080385754
738245.49058828188572078943,1.02165796889147,-1.19398581906593,338.759626046531
738245.49058837234042584896,1.03396710104678,-1.16936755475529,338.759626046531
738245.49058846279513090849,1.05858536535742,-1.12013102613402,338.673462121443
738245.49058855336625128984,1.05858536535742,-1.12013102613402,338.808862575152
738245.49058864382095634937,1.08320362966806,-1.08320362966806,338.784244310841
738245.49058873427566140890,1.08320362966806,-1.0462762332021,338.747316914375
738245.49058882484678179026,1.1078218939787,-1.02165796889147,338.808862575152
738245.49058891530148684978,1.12013102613402,-0.984730572425509,338.821171707307
738245.49058900575619190931,1.14474929044465,-0.947803175959553,338.882717368084
738245.49058909632731229067,1.13244015828934,-0.910875779493596,338.858099103773
738245.49058918678201735020,1.19398581906593,-0.824711854406364,338.895026500239
738245.49058927723672240973,1.19398581906593,-0.787784457940408,338.91964476455
738245.49058936780784279108,1.18167668691061,-0.750857061474451,338.882717368084
738245.49058945826254785061,1.20629495122125,-0.750857061474451,338.931953896705
738245.49058954883366823196,1.20629495122125,-0.750857061474451,338.91964476455
738245.49058963928837329149,1.23091321553189,-0.738547929319132,338.833480839462
738245.49058972974307835102,1.20629495122125,-0.76316619362977,338.759626046531
738245.49058982031419873238,1.19398581906593,-0.824711854406364,338.771935178686
738245.49058991076890379190,1.15705842259997,-0.947803175959553,338.722698650065
738245.49059000122360885143,1.14474929044465,-1.00934883673615,338.673462121443
738245.49059009179472923279,1.08320362966806,-1.12013102613402,338.722698650065
738245.49059018224943429232,1.07089449751274,-1.16936755475529,338.722698650065
738245.49059027270413935184,1.02165796889147,-1.23091321553189,338.73500778222
738245.49059036327525973320,0.984730572425509,-1.26784061199784,338.698080385754
738245.49059045372996479273,0.997039704580828,-1.25553147984252,338.710389517909
738245.49059054418466985226,0.960112308114872,-1.29245887630848,338.636534724977
738245.49059063475579023361,0.960112308114872,-1.29245887630848,338.562679932045
738245.49059072521049529314,0.972421440270191,-1.29245887630848,338.710389517909
738245.49059081566520035267,0.972421440270191,-1.29245887630848,338.722698650065
738245.49059090623632073402,0.960112308114872,-1.31707714061912,338.636534724977
738245.49059099669102579355,0.947803175959553,-1.3047680084638,338.648843857133
738245.49059108726214617491,0.972421440270191,-1.3047680084638,338.648843857133
738245.49059117771685123444,0.935494043804234,-1.32938627277444,338.636534724977
738245.49059126817155629396,0.935494043804234,-1.3047680084638,338.673462121443
738245.49059135874267667532,0.960112308114872,-1.28014974415316,338.636534724977
738245.49059144919738173485,0.960112308114872,-1.3047680084638,338.636534724977
738245.49059153965208679438,0.935494043804234,-1.31707714061912,338.661152989288
738245.49059163022320717573,0.923184911648915,-1.3047680084638,338.685771253599
738245.49059172067791223526,0.947803175959553,-1.29245887630848,338.73500778222
738245.49059181113261729479,0.935494043804234,-1.3047680084638,338.673462121443
738245.49059190170373767614,0.935494043804234,-1.3047680084638,338.710389517909
738245.49059199215844273567,0.960112308114872,-1.3047680084638,338.611916460667
738245.49059208261314779520,0.960112308114872,-1.3047680084638,338.648843857133
738245.49059217318426817656,0.947803175959553,-1.31707714061912,338.685771253599
738245.49059226363897323608,0.972421440270191,-1.29245887630848,338.673462121443
738245.49059235409367829561,1.03396710104678,-1.24322234768721,338.648843857133
738245.49059244466479867697,1.02165796889147,-1.25553147984252,338.661152989288
738245.49059253511950373650,1.00934883673615,-1.29245887630848,338.685771253599
738245.49059262569062411785,0.997039704580828,-1.26784061199784,338.698080385754
738245.49059271614532917738,0.923184911648915,-1.35400453708508,338.710389517909
738245.49059280660003423691,0.984730572425509,-1.28014974415316,338.747316914375
738245.49059289717115461826,0.972421440270191,-1.29245887630848,338.722698650065
738245.49059298762585967779,0.935494043804234,-1.3047680084638,338.648843857133
738245.49059307808056473732,0.947803175959553,-1.32938627277444,338.759626046531
738245.49059316865168511868,0.947803175959553,-1.31707714061912,338.673462121443
738245.49059325910639017820,0.935494043804234,-1.31707714061912,338.698080385754
738245.49059334956109523773,0.935494043804234,-1.31707714061912,338.759626046531
738245.49059344013221561909,0.935494043804234,-1.31707714061912,338.73500778222
738245.49059353058692067862,0.935494043804234,-1.31707714061912,338.698080385754
738245.49059362104162573814,0.935494043804234,-1.34169540492976,338.710389517909
738245.49059371161274611950,0.935494043804234,-1.3047680084638,338.73500778222
738245.49059380206745117903,0.972421440270191,-1.28014974415316,338.661152989288
738245.49059389252215623856,1.18167668691061,-0.713929665008494,338.882717368084
738245.49059398309327661991,1.53864151941486,0.320037436038291,339.10428174688
738245.49059407354798167944,1.84636982329783,0.849330118717002,338.91964476455
738245.49059416411910206079,1.5632597837255,-0.258491775261696,338.525752535579
738245.49059425457380712032,1.16936755475529,-1.58787804803613,338.353424685405
738245.49059434502851217985,1.05858536535742,-1.45247759432763,338.562679932045
738245.49059443559963256121,1.0462762332021,-1.32938627277444,338.562679932045
738245.49059452605433762074,1.02165796889147,-1.25553147984252,338.611916460667
738245.49059461650904268026,1.00934883673615,-1.25553147984252,338.648843857133
738245.49059470708016306162,0.997039704580828,-1.25553147984252,338.636534724977
738245.49059479753486812115,1.00934883673615,-1.24322234768721,338.661152989288
738245.49059488798957318068,1.03396710104678,-1.20629495122125,338.747316914375
738245.49059497856069356203,1.02165796889147,-1.20629495122125,338.624225592822
738245.49059506901539862156,1.0462762332021,-1.18167668691061,338.673462121443
738245.49059515947010368109,1.02165796889147,-1.16936755475529,338.698080385754
738245.49059525004122406244,1.05858536535742,-1.14474929044465,338.710389517909
738245.49059534049592912197,1.07089449751274,-1.14474929044465,338.710389517909
738245.49059543106704950333,1.05858536535742,-1.14474929044465,338.685771253599
738245.49059552152175456285,1.07089449751274,-1.1078218939787,338.685771253599
738245.49059561197645962238,1.09551276182338,-1.08320362966806,338.747316914375
738245.49059570254758000374,1.09551276182338,-1.0462762332021,338.722698650065
738245.49059579300228506327,1.12013102613402,-1.02165796889147,338.784244310841
738245.49059588345699012280,1.13244015828934,-0.997039704580828,338.73500778222
738245.49059597402811050415,1.1078218939787,-0.997039704580828,338.784244310841
738245.49059606448281556368,1.18167668691061,-0.910875779493596,338.771935178686
738245.49059615493752062321,1.16936755475529,-0.87394838302764,338.845789971618
738245.49059624550864100456,1.20629495122125,-0.812402722251045,338.833480839462
738245.49059633596334606409,1.19398581906593,-0.800093590095726,338.845789971618
738245.49059642641805112362,1.26784061199784,-0.689311400697857,338.931953896705
738245.49059651698917150497,1.25553147984252,-0.664693136387219,338.94426302886
738245.49059660744387656450,1.23091321553189,-0.689311400697857,338.882717368084
738245.49059669789858162403,1.28014974415316,-0.627765739921262,338.907335632394
738245.49059678846970200539,1.28014974415316,-0.6523840042319,338.882717368084
738245.49059687892440706491,1.20629495122125,-0.750857061474451,338.895026500239
738245.49059696949552744627,1.20629495122125,-0.812402722251045,338.845789971618
738245.49059705995023250580,1.21860408337657,-0.861639250872321,338.759626046531
738245.49059715040493756533,1.15705842259997,-0.984730572425509,338.747316914375
738245.49059724097605794668,1.13244015828934,-1.0462762332021,338.722698650065
738245.49059733143076300621,1.08320362966806,-1.12013102613402,338.698080385754
738245.49059742188546806574,1.1078218939787,-1.14474929044465,338.661152989288
738245.49059751245658844709,1.07089449751274,-1.19398581906593,338.698080385754
738245.49059760291129350662,1.05858536535742,-1.21860408337657,338.661152989288
738245.49059769336599856615,1.0462762332021,-1.23091321553189,338.587298196356
738245.49059778393711894751,1.03396710104678,-1.25553147984252,338.648843857133
738245.49059787439182400703,1.05858536535742,-1.23091321553189,338.698080385754
738245.49059796484652906656,1.03396710104678,-1.24322234768721,338.722698650065
738245.49059805541764944792,1.03396710104678,-1.24322234768721,338.648843857133
738245.49059814587235450745,1.07089449751274,-1.21860408337657,338.698080385754
738245.49059823632705956697,1.05858536535742,-1.21860408337657,338.698080385754
738245.49059832689817994833,1.05858536535742,-1.23091321553189,338.710389517909
738245.49059841735288500786,1.08320362966806,-1.20629495122125,338.698080385754
738245.49059850792400538921,1.08320362966806,-1.21860408337657,338.759626046531
738245.49059859837871044874,1.05858536535742,-1.20629495122125,338.698080385754
738245.49059868883341550827,1.07089449751274,-1.19398581906593,338.673462121443
738245.49059877940453588963,1.09551276182338,-1.19398581906593,338.722698650065
738245.49059886985924094915,1.09551276182338,-1.19398581906593,338.624225592822
738245.49059896031394600868,1.09551276182338,-1.19398581906593,338.599607328511
738245.49059905088506639004,1.09551276182338,-1.19398581906593,338.611916460667
738245.49059914133977144957,1.0462762332021,-1.24322234768721,338.624225592822
738245.49059923179447650909,1.05858536535742,-1.25553147984252,338.55037079989
738245.49059932236559689045,1.19398581906593,-1.12013102613402,338.562679932045
738245.49059941282030194998,1.16936755475529,-1.14474929044465,338.538061667735
738245.49059950327500700951,1.15705842259997,-1.16936755475529,338.562679932045
738245.49059959384612739086,1.15705842259997,-1.15705842259997,338.673462121443
738245.49059968430083245039,1.1078218939787,-1.20629495122125,338.636534724977
738245.49059977475553750992,1.1078218939787,-1.20629495122125,338.648843857133
738245.49059986532665789127,1.12013102613402,-1.20629495122125,338.661152989288
738245.49059995578136295080,1.05858536535742,-1.26784061199784,338.685771253599
738245.49060004635248333216,1.09551276182338,-1.23091321553189,338.73500778222
738245.49060013680718839169,1.07089449751274,-1.25553147984252,338.759626046531
738245.49060022726189345121,1.12013102613402,-1.19398581906593,338.73500778222
738245.49060031783301383257,1.09551276182338,-1.21860408337657,338.710389517909
738245.49060040828771889210,1.08320362966806,-1.21860408337657,338.73500778222
738245.49060049874242395163,1.09551276182338,-1.21860408337657,338.673462121443
738245.49060058931354433298,1.08320362966806,-1.23091321553189,338.648843857133
738245.49060067976824939251,1.0462762332021,-1.26784061199784,338.661152989288
738245.49060077022295445204,1.15705842259997,-1.13244015828934,338.661152989288
738245.49060086079407483339,1.44016846217231,-0.418510493280842,338.784244310841
738245.49060095124877989292,1.7602058982106,0.516983550523392,339.005808689637
738245.49060104170348495245,2.10486159855953,0.947803175959553,338.956572161016
738245.49060113227460533381,1.98177027700634,0.516983550523392,338.759626046531
738245.49060122272931039333,1.41555019786167,-1.18167668691061,338.144169438765
738245.49060131330043077469,1.19398581906593,-1.40324106570635,338.439588610492
738245.49060140375513583422,1.15705842259997,-1.25553147984252,338.574989064201
738245.49060149420984089375,1.16936755475529,-1.16936755475529,338.636534724977
738245.49060158478096127510,1.12013102613402,-1.19398581906593,338.636534724977
738245.49060167523566633463,1.15705842259997,-1.14474929044465,338.673462121443
738245.49060176569037139416,1.1078218939787,-1.16936755475529,338.710389517909
738245.49060185626149177551,1.08320362966806,-1.21860408337657,338.73500778222
738245.49060194671619683504,1.15705842259997,-1.13244015828934,338.73500778222
738245.49060203717090189457,1.1078218939787,-1.15705842259997,338.599607328511
738245.49060212774202227592,1.12013102613402,-1.14474929044465,338.73500778222
738245.49060221819672733545,1.12013102613402,-1.13244015828934,338.784244310841
738245.49060230865143239498,1.15705842259997,-1.1078218939787,338.73500778222
738245.49060239922255277634,1.14474929044465,-1.09551276182338,338.73500778222
738245.49060248967725783587,1.16936755475529,-1.07089449751274,338.771935178686
738245.49060258013196289539,1.15705842259997,-1.07089449751274,338.808862575152
738245.49060267070308327675,1.15705842259997,-1.05858536535742,338.759626046531
738245.49060276115778833628,1.20629495122125,-1.00934883673615,338.784244310841
738245.49060285172890871763,1.20629495122125,-0.997039704580828,338.808862575152
738245.49060294218361377716,1.21860408337657,-0.960112308114872,338.673462121443
738245.49060303263831883669,1.23091321553189,-0.935494043804234,338.759626046531
738245.49060312320943921804,1.24322234768721,-0.898566647338277,338.833480839462
738245.49060321366414427757,1.24322234768721,-0.87394838302764,338.858099103773
738245.49060330411884933710,1.26784061199784,-0.812402722251045,338.821171707307
738245.49060339468996971846,1.29245887630848,-0.775475325785089,338.870408235928
738245.49060348514467477798,1.32938627277444,-0.713929665008494,338.907335632394
738245.49060357559937983751,1.29245887630848,-0.738547929319132,338.808862575152
738245.49060366617050021887,1.34169540492976,-0.677002268542538,338.882717368084
738245.49060375662520527840,1.35400453708508,-0.701620532853175,338.895026500239
738245.49060384707991033792,1.32938627277444,-0.726238797163813,338.747316914375
738245.49060393765103071928,1.3047680084638,-0.787784457940408,338.747316914375
738245.49060402810573577881,1.26784061199784,-0.886257515182958,338.710389517909
738245.49060411856044083834,1.21860408337657,-0.997039704580828,338.710389517909
738245.49060420913156121969,1.19398581906593,-1.0462762332021,338.698080385754
738245.49060429958626627922,1.20629495122125,-1.05858536535742,338.661152989288
738245.49060439015738666058,1.16936755475529,-1.13244015828934,338.722698650065
738245.49060448061209172010,1.15705842259997,-1.14474929044465,338.685771253599
738245.49060457106679677963,1.16936755475529,-1.15705842259997,338.611916460667
738245.49060466163791716099,1.14474929044465,-1.18167668691061,338.451897742648
738245.49060475209262222052,1.13244015828934,-1.18167668691061,338.587298196356
738245.49060484254732728004,1.15705842259997,-1.15705842259997,338.648843857133
738245.49060493311844766140,1.15705842259997,-1.16936755475529,338.661152989288
738245.49060502357315272093,1.14474929044465,-1.16936755475529,338.673462121443
738245.49060511402785778046,1.15705842259997,-1.16936755475529,338.648843857133
738245.49060520459897816181,1.15705842259997,-1.16936755475529,338.636534724977
738245.49060529505368322134,1.15705842259997,-1.16936755475529,338.673462121443
738245.49060538550838828087,1.16936755475529,-1.14474929044465,338.747316914375
738245.49060547607950866222,1.16936755475529,-1.14474929044465,338.698080385754
738245.49060556653421372175,1.13244015828934,-1.16936755475529,338.636534724977
738245.49060565698891878128,1.18167668691061,-1.14474929044465,338.698080385754
738245.49060574756003916264,1.16936755475529,-1.15705842259997,338.73500778222
738245.49060583801474422216,1.19398581906593,-1.13244015828934,338.624225592822
738245.49060592858586460352,1.20629495122125,-1.13244015828934,338.710389517909
738245.49060601904056966305,1.18167668691061,-1.15705842259997,338.685771253599
738245.49060610949527472258,1.20629495122125,-1.14474929044465,338.636534724977
738245.49060620006639510393,1.21860408337657,-1.09551276182338,338.685771253599
738245.49060629052110016346,1.23091321553189,-1.1078218939787,338.673462121443
738245.49060638097580522299,1.21860408337657,-1.13244015828934,338.710389517909
738245.49060647154692560434,1.20629495122125,-1.13244015828934,338.710389517909
738245.49060656200163066387,1.24322234768721,-1.09551276182338,338.673462121443
738245.49060665245633572340,1.20629495122125,-1.13244015828934,338.710389517909
738245.49060674302745610476,1.18167668691061,-1.15705842259997,338.73500778222
738245.49060683348216116428,1.15705842259997,-1.16936755475529,338.710389517909
738245.49060692393686622381,1.14474929044465,-1.16936755475529,338.722698650065
738245.49060701450798660517,1.15705842259997,-1.15705842259997,338.673462121443
738245.49060710496269166470,1.16936755475529,-1.16936755475529,338.722698650065
738245.49060719553381204605,1.15705842259997,-1.15705842259997,338.673462121443
738245.49060728598851710558,1.15705842259997,-1.15705842259997,338.574989064201
738245.49060737644322216511,1.15705842259997,-1.16936755475529,338.636534724977
738245.49060746701434254646,1.16936755475529,-1.15705842259997,338.624225592822
738245.49060755746904760599,1.15705842259997,-1.14474929044465,338.648843857133
738245.49060764792375266552,1.21860408337657,-1.13244015828934,338.599607328511
738245.49060773849487304688,1.40324106570635,-0.701620532853175,338.698080385754
738245.49060782894957810640,1.80944242683187,0.356964832504247,338.91964476455
738245.49060791940428316593,2.19102552364676,1.08320362966806,338.895026500239
738245.49060800997540354729,2.01869767347229,0.418510493280842,338.685771253599
738245.49060810043010860682,1.48940499079358,-1.15705842259997,338.291879024628
738245.49060819088481366634,1.3047680084638,-1.23091321553189,338.279569892473
738245.49060828145593404770,1.26784061199784,-1.13244015828934,338.464206874803
738245.49060837191063910723,1.24322234768721,-1.08320362966806,338.636534724977
738245.49060846236534416676,1.21860408337657,-1.1078218939787,338.624225592822
738245.49060855293646454811,1.20629495122125,-1.12013102613402,338.636534724977
738245.49060864339116960764,1.18167668691061,-1.12013102613402,338.710389517909
738245.49060873396228998899,1.20629495122125,-1.09551276182338,338.685771253599
738245.49060882441699504852,1.20629495122125,-1.09551276182338,338.710389517909
738245.49060891487170010805,1.20629495122125,-1.08320362966806,338.722698650065
738245.49060900544282048941,1.20629495122125,-1.07089449751274,338.759626046531
738245.49060909589752554893,1.16936755475529,-1.1078218939787,338.759626046531
738245.49060918635223060846,1.23091321553189,-1.05858536535742,338.661152989288
738245.49060927692335098982,1.23091321553189,-1.02165796889147,338.673462121443
738245.49060936737805604935,1.23091321553189,-1.03396710104678,338.722698650065
738245.49060945783276110888,1.23091321553189,-1.02165796889147,338.722698650065
738245.49060954840388149023,1.23091321553189,-1.00934883673615,338.771935178686
738245.49060963885858654976,1.25553147984252,-0.960112308114872,338.759626046531
738245.49060972931329160929,1.25553147984252,-0.947803175959553,338.710389517909
738245.49060981988441199064,1.23091321553189,-0.972421440270191,338.784244310841
738245.49060991033911705017,1.28014974415316,-0.898566647338277,338.821171707307
738245.49061000079382210970,1.31707714061912,-0.837020986561683,338.759626046531
738245.49061009136494249105,1.31707714061912,-0.800093590095726,338.858099103773
738245.49061018181964755058,1.32938627277444,-0.775475325785089,338.808862575152
738245.49061027239076793194,1.35400453708508,-0.713929665008494,338.882717368084
738245.49061036284547299147,1.36631366924039,-0.689311400697857,338.895026500239
738245.49061045330017805099,1.36631366924039,-0.677002268542538,338.882717368084
738245.49061054387129843235,1.37862280139571,-0.6523840042319,338.858099103773
738245.49061063432600349188,1.37862280139571,-0.664693136387219,338.796553442997
738245.49061072478070855141,1.36631366924039,-0.689311400697857,338.771935178686
738245.49061081535182893276,1.32938627277444,-0.775475325785089,338.722698650065
738245.49061090580653399229,1.34169540492976,-0.812402722251045,338.710389517909
738245.49061099626123905182,1.32938627277444,-0.886257515182958,338.698080385754
738245.49061108683235943317,1.26784061199784,-0.960112308114872,338.710389517909
738245.49061117728706449270,1.25553147984252,-1.02165796889147,338.747316914375
738245.49061126774176955223,1.23091321553189,-1.05858536535742,338.73500778222
738245.49061135831288993359,1.21860408337657,-1.08320362966806,338.710389517909
738245.49061144876759499311,1.20629495122125,-1.1078218939787,338.710389517909
738245.49061153922230005264,1.20629495122125,-1.09551276182338,338.710389517909
738245.49061162979342043400,1.20629495122125,-1.09551276182338,338.710389517909
738245.49061172024812549353,1.20629495122125,-1.09551276182338,338.55037079989
738245.49061181081924587488,1.20629495122125,-1.1078218939787,338.513443403424
738245.49061190127395093441,1.20629495122125,-1.1078218939787,338.673462121443
738245.49061199172865599394,1.21860408337657,-1.09551276182338,338.624225592822
738245.49061208229977637529,1.19398581906593,-1.12013102613402,338.624225592822
738245.49061217275448143482,1.19398581906593,-1.1078218939787,338.611916460667
738245.49061226320918649435,1.24322234768721,-1.05858536535742,338.587298196356
738245.49061235378030687571,1.20629495122125,-1.09551276182338,338.611916460667
738245.49061244423501193523,1.21860408337657,-1.09551276182338,338.661152989288
738245.49061253468971699476,1.21860408337657,-1.08320362966806,338.624225592822
738245.49061262526083737612,1.23091321553189,-1.08320362966806,338.648843857133
738245.49061271571554243565,1.23091321553189,-1.08320362966806,338.624225592822
738245.49061280617024749517,1.23091321553189,-1.09551276182338,338.611916460667
738245.49061289674136787653,1.21860408337657,-1.1078218939787,338.673462121443
738245.49061298719607293606,1.23091321553189,-1.09551276182338,338.698080385754
738245.49061307765077799559,1.25553147984252,-1.08320362966806,338.624225592822
738245.49061316822189837694,1.28014974415316,-1.03396710104678,338.673462121443
738245.49061325867660343647,1.26784061199784,-1.05858536535742,338.698080385754
738245.49061334924772381783,1.26784061199784,-1.05858536535742,338.648843857133
738245.49061343970242887735,1.26784061199784,-1.0462762332021,338.624225592822
738245.49061353015713393688,1.21860408337657,-1.1078218939787,338.636534724977
738245.49061362072825431824,1.23091321553189,-1.08320362966806,338.624225592822
738245.49061371118295937777,1.20629495122125,-1.1078218939787,338.673462121443
738245.49061380163766443729,1.19398581906593,-1.1078218939787,338.636534724977
738245.49061389220878481865,1.21860408337657,-1.09551276182338,338.648843857133
738245.49061398266348987818,1.19398581906593,-1.12013102613402,338.673462121443
738245.49061407311819493771,1.18167668691061,-1.13244015828934,338.661152989288
738245.49061416368931531906,1.21860408337657,-1.1078218939787,338.710389517909
738245.49061425414402037859,1.18167668691061,-1.12013102613402,338.710389517909
738245.49061434459872543812,1.19398581906593,-1.1078218939787,338.710389517909
738245.49061443516984581947,1.18167668691061,-1.12013102613402,338.661152989288
738245.49061452562455087900,1.23091321553189,-1.09551276182338,338.710389517909
738245.49061461619567126036,1.28014974415316,-1.03396710104678,338.698080385754
738245.49061470665037631989,1.52633238725954,-0.393892228970204,338.821171707307
738245.49061479710508137941,1.92022461622974,0.677002268542538,339.055045218258
738245.49061488767620176077,2.27718944873399,1.23091321553189,339.042736086103
738245.49061497813090682030,1.85867895545315,-0.0246182643106377,338.636534724977
738245.49061506858561187983,1.44016846217231,-1.25553147984252,338.353424685405
738245.49061515915673226118,1.35400453708508,-1.12013102613402,338.476516006958
738245.49061524961143732071,1.26784061199784,-1.09551276182338,338.451897742648
738245.49061534006614238024,1.25553147984252,-1.07089449751274,338.414970346182
738245.49061543063726276159,1.24322234768721,-1.08320362966806,338.525752535579
738245.49061552109196782112,1.24322234768721,-1.07089449751274,338.611916460667
738245.49061561154667288065,1.24322234768721,-1.05858536535742,338.698080385754
738245.49061570211779326200,1.23091321553189,-1.05858536535742,338.73500778222
738245.49061579257249832153,1.23091321553189,-1.05858536535742,338.710389517909
738245.49061588302720338106,1.24322234768721,-1.0462762332021,338.747316914375
738245.49061597359832376242,1.24322234768721,-1.0462762332021,338.759626046531
738245.49061606405302882195,1.25553147984252,-1.02165796889147,338.710389517909
738245.49061615462414920330,1.26784061199784,-1.00934883673615,338.759626046531
738245.49061624507885426283,1.24322234768721,-1.00934883673615,338.808862575152
738245.49061633553355932236,1.26784061199784,-0.984730572425509,338.73500778222
738245.49061642610467970371,1.29245887630848,-0.960112308114872,338.771935178686
738245.49061651655938476324,1.29245887630848,-0.947803175959553,338.771935178686
738245.49061660701408982277,1.3047680084638,-0.923184911648915,338.661152989288
738245.49061669758521020412,1.29245887630848,-0.910875779493596,338.710389517909
738245.49061678803991526365,1.3047680084638,-0.898566647338277,338.685771253599
738245.49061687849462032318,1.31707714061912,-0.861639250872321,338.747316914375
738245.49061696906574070454,1.35400453708508,-0.800093590095726,338.796553442997
738245.49061705952044576406,1.35400453708508,-0.76316619362977,338.784244310841
738245.49061714997515082359,1.36631366924039,-0.738547929319132,338.796553442997
738245.49061724054627120495,1.40324106570635,-0.664693136387219,338.808862575152
738245.49061733100097626448,1.39093193355103,-0.664693136387219,338.821171707307
738245.49061742145568132401,1.40324106570635,-0.640074872076581,338.833480839462
738245.49061751202680170536,1.42785933001699,-0.627765739921262,338.833480839462
738245.49061760248150676489,1.42785933001699,-0.640074872076581,338.833480839462
738245.49061769305262714624,1.39093193355103,-0.689311400697857,338.808862575152
738245.49061778350733220577,1.37862280139571,-0.76316619362977,338.73500778222
738245.49061787396203726530,1.34169540492976,-0.849330118717002,338.759626046531
738245.49061796453315764666,1.32938627277444,-0.910875779493596,338.759626046531
738245.49061805498786270618,1.26784061199784,-0.997039704580828,338.624225592822
738245.49061814544256776571,1.29245887630848,-1.00934883673615,338.648843857133
738245.49061823601368814707,1.25553147984252,-1.0462762332021,338.673462121443
738245.49061832646839320660,1.25553147984252,-1.07089449751274,338.636534724977
738245.49061841692309826612,1.24322234768721,-1.07089449751274,338.648843857133
738245.49061850749421864748,1.24322234768721,-1.08320362966806,338.636534724977
738245.49061859794892370701,1.24322234768721,-1.07089449751274,338.710389517909
738245.49061868840362876654,1.23091321553189,-1.09551276182338,338.673462121443
738245.49061877897474914789,1.21860408337657,-1.09551276182338,338.611916460667
738245.49061886942945420742,1.26784061199784,-1.0462762332021,338.55037079989
738245.49061895988415926695,1.21860408337657,-1.09551276182338,338.648843857133
738245.49061905045527964830,1.25553147984252,-1.05858536535742,338.574989064201
738245.49061914090998470783,1.24322234768721,-1.07089449751274,338.611916460667
738245.49061923148110508919,1.24322234768721,-1.07089449751274,338.599607328511
738245.49061932193581014872,1.23091321553189,-1.07089449751274,338.562679932045
738245.49061941239051520824,1.20629495122125,-1.08320362966806,338.611916460667
738245.49061950296163558960,1.25553147984252,-1.07089449751274,338.685771253599
738245.49061959341634064913,1.24322234768721,-1.07089449751274,338.661152989288
738245.49061968387104570866,1.24322234768721,-1.08320362966806,338.673462121443
738245.49061977444216609001,1.25553147984252,-1.08320362966806,338.673462121443
738245.49061986489687114954,1.25553147984252,-1.08320362966806,338.673462121443
738245.49061995535157620907,1.26784061199784,-1.1078218939787,338.611916460667
738245.49062004592269659042,1.26784061199784,-1.08320362966806,338.661152989288
738245.49062013637740164995,1.25553147984252,-1.1078218939787,338.661152989288
738245.49062022683210670948,1.29245887630848,-1.08320362966806,338.611916460667
738245.49062031740322709084,1.28014974415316,-1.07089449751274,338.661152989288
738245.49062040785793215036,1.29245887630848,-1.05858536535742,338.538061667735
738245.49062049842905253172,1.3047680084638,-1.05858536535742,338.562679932045
738245.49062058888375759125,1.3047680084638,-1.0462762332021,338.611916460667
738245.49062067933846265078,1.28014974415316,-1.05858536535742,338.587298196356
738245.49062076990958303213,1.26784061199784,-1.09551276182338,338.599607328511
738245.49062086036428809166,1.23091321553189,-1.1078218939787,338.661152989288
738245.49062095081899315119,1.25553147984252,-1.08320362966806,338.636534724977
738245.49062104139011353254,1.25553147984252,-1.09551276182338,338.685771253599
738245.49062113184481859207,1.25553147984252,-1.1078218939787,338.685771253599
738245.49062122229952365160,1.24322234768721,-1.1078218939787,338.73500778222
738245.49062131287064403296,1.26784061199784,-1.09551276182338,338.710389517909
738245.49062140332534909248,1.26784061199784,-1.08320362966806,338.661152989288
738245.49062149378005415201,1.25553147984252,-1.09551276182338,338.648843857133
738245.49062158435117453337,1.26784061199784,-1.08320362966806,338.636534724977
738245.49062167480587959290,1.25553147984252,-1.08320362966806,338.648843857133
738245.49062176526058465242,1.3047680084638,-1.0462762332021,338.661152989288
738245.49062185583170503378,1.44016846217231,-0.677002268542538,338.747316914375
738245.49062194628641009331,1.84636982329783,0.406201361125523,338.956572161016
738245.49062203685753047466,2.16640725933612,1.14474929044465,339.042736086103
738245.49062212731223553419,2.06793420209357,0.578529211299987,338.845789971618
738245.49062221776694059372,1.55095065157018,-1.07089449751274,338.538061667735
738245.49062230833806097507,1.42785933001699,-1.26784061199784,338.353424685405
738245.49062239879276603460,1.36631366924039,-1.08320362966806,338.439588610492
738245.49062248924747109413,1.31707714061912,-1.0462762332021,338.648843857133
738245.49062257981859147549,1.31707714061912,-1.02165796889147,338.636534724977
738245.49062267027329653502,1.26784061199784,-1.07089449751274,338.624225592822
738245.49062276072800159454,1.29245887630848,-1.0462762332021,338.673462121443
738245.49062285129912197590,1.29245887630848,-1.00934883673615,338.698080385754
738245.49062294175382703543,1.28014974415316,-1.03396710104678,338.673462121443
738245.49062303220853209496,1.28014974415316,-1.02165796889147,338.685771253599
738245.49062312277965247631,1.26784061199784,-1.02165796889147,338.747316914375
738245.49062321323435753584,1.3047680084638,-0.984730572425509,338.710389517909
738245.49062330368906259537,1.29245887630848,-0.984730572425509,338.710389517909
738245.49062339426018297672,1.29245887630848,-0.984730572425509,338.747316914375
738245.49062348471488803625,1.31707714061912,-0.960112308114872,338.747316914375
738245.49062357528600841761,1.31707714061912,-0.935494043804234,338.648843857133
738245.49062366574071347713,1.32938627277444,-0.910875779493596,338.661152989288
738245.49062375619541853666,1.34169540492976,-0.898566647338277,338.673462121443
738245.49062384676653891802,1.36631366924039,-0.861639250872321,338.673462121443
738245.49062393722124397755,1.36631366924039,-0.849330118717002,338.698080385754
738245.49062402767594903708,1.39093193355103,-0.800093590095726,338.796553442997
738245.49062411824706941843,1.39093193355103,-0.775475325785089,338.821171707307
738245.49062420870177447796,1.39093193355103,-0.775475325785089,338.808862575152
738245.49062429915647953749,1.42785933001699,-0.713929665008494,338.870408235928
738245.49062438972759991884,1.44016846217231,-0.6523840042319,338.907335632394
738245.49062448018230497837,1.44016846217231,-0.627765739921262,338.858099103773
738245.49062457063701003790,1.45247759432763,-0.603147475610625,338.907335632394
738245.49062466120813041925,1.47709585863826,-0.566220079144668,338.796553442997
738245.49062475166283547878,1.47709585863826,-0.578529211299987,338.784244310841
738245.49062484211754053831,1.46478672648295,-0.590838343455306,338.784244310841
738245.49062493268866091967,1.46478672648295,-0.640074872076581,338.747316914375
738245.49062502314336597919,1.44016846217231,-0.713929665008494,338.771935178686
738245.49062511371448636055,1.40324106570635,-0.787784457940408,338.698080385754
738245.49062520416919142008,1.36631366924039,-0.87394838302764,338.685771253599
738245.49062529462389647961,1.34169540492976,-0.935494043804234,338.661152989288
738245.49062538519501686096,1.32938627277444,-0.984730572425509,338.673462121443
738245.49062547564972192049,1.3047680084638,-1.00934883673615,338.685771253599
738245.49062556610442698002,1.3047680084638,-1.02165796889147,338.685771253599
738245.49062565667554736137,1.29245887630848,-1.03396710104678,338.661152989288
738245.49062574713025242090,1.31707714061912,-1.02165796889147,338.648843857133
738245.49062583758495748043,1.31707714061912,-1.02165796889147,338.451897742648
738245.49062592815607786179,1.3047680084638,-1.03396710104678,338.587298196356
738245.49062601861078292131,1.3047680084638,-1.03396710104678,338.599607328511
738245.49062610906548798084,1.3047680084638,-1.03396710104678,338.636534724977
738245.49062619963660836220,1.3047680084638,-1.03396710104678,338.636534724977
738245.49062629009131342173,1.3047680084638,-1.03396710104678,338.661152989288
738245.49062638066243380308,1.31707714061912,-1.02165796889147,338.636534724977
738245.49062647111713886261,1.29245887630848,-1.0462762332021,338.648843857133
738245.49062656157184392214,1.3047680084638,-1.03396710104678,338.636534724977
738245.49062665214296430349,1.32938627277444,-1.02165796889147,338.673462121443
738245.49062674259766936302,1.3047680084638,-1.02165796889147,338.624225592822
738245.49062683305237442255,1.31707714061912,-1.02165796889147,338.673462121443
738245.49062692362349480391,1.3047680084638,-1.03396710104678,338.648843857133
738245.49062701407819986343,1.31707714061912,-1.03396710104678,338.648843857133
738245.49062710453290492296,1.3047680084638,-1.03396710104678,338.611916460667
738245.49062719510402530432,1.31707714061912,-1.03396710104678,338.648843857133
738245.49062728555873036385,1.31707714061912,-1.0462762332021,338.636534724977
738245.49062737601343542337,1.31707714061912,-1.03396710104678,338.673462121443
738245.49062746658455580473,1.31707714061912,-1.0462762332021,338.722698650065
738245.49062755703926086426,1.31707714061912,-1.0462762332021,338.599607328511
738245.49062764749396592379,1.3047680084638,-1.05858536535742,338.587298196356
738245.49062773806508630514,1.31707714061912,-1.07089449751274,338.587298196356
738245.49062782851979136467,1.34169540492976,-1.0462762332021,338.55037079989
738245.49062791909091174603,1.31707714061912,-1.05858536535742,338.562679932045
738245.49062800954561680555,1.32938627277444,-1.07089449751274,338.574989064201
738245.49062810000032186508,1.35400453708508,-1.02165796889147,338.685771253599
738245.49062819057144224644,1.39093193355103,-0.997039704580828,338.636534724977
738245.49062828102614730597,1.36631366924039,-1.02165796889147,338.624225592822
738245.49062837148085236549,1.36631366924039,-0.997039704580828,338.648843857133
738245.49062846205197274685,1.35400453708508,-1.03396710104678,338.611916460667
738245.49062855250667780638,1.32938627277444,-1.05858536535742,338.636534724977
738245.49062864296138286591,1.32938627277444,-1.03396710104678,338.685771253599
738245.49062873353250324726,1.3047680084638,-1.0462762332021,338.661152989288
738245.49062882398720830679,1.29245887630848,-1.05858536535742,338.636534724977
738245.49062891444191336632,1.29245887630848,-1.05858536535742,338.624225592822
738245.49062900501303374767,1.3047680084638,-1.0462762332021,338.648843857133
738245.49062909546773880720,1.3047680084638,-1.0462762332021,338.611916460667
738245.49062918592244386673,1.28014974415316,-1.05858536535742,338.611916460667
738245.49062927649356424809,1.29245887630848,-1.07089449751274,338.636534724977
738245.49062936694826930761,1.3047680084638,-1.0462762332021,338.402661214026
738245.49062945751938968897,1.29245887630848,-1.05858536535742,338.538061667735
738245.49062954797409474850,1.36631366924039,-0.997039704580828,338.636534724977
738245.49062963842879980803,1.57556891588082,-0.455437889746798,338.796553442997
738245.49062972899992018938,1.93253374838506,0.603147475610625,339.055045218258
738245.49062981945462524891,2.24026205226803,1.25553147984252,339.018117821792
738245.49062990990933030844,1.96946114485102,0.22156437879574,338.808862575152
738245.49063000048045068979,1.74789676605528,-0.640074872076581,338.402661214026
738245.49063009093515574932,1.5017141229489,-1.18167668691061,338.378042949716
738245.49063018138986080885,1.41555019786167,-1.03396710104678,338.55037079989
738245.49063027196098119020,1.40324106570635,-0.984730572425509,338.599607328511
738245.49063036241568624973,1.36631366924039,-0.984730572425509,338.685771253599
738245.49063045287039130926,1.36631366924039,-0.984730572425509,338.624225592822
738245.49063054344151169062,1.34169540492976,-1.00934883673615,338.611916460667
738245.49063063389621675014,1.36631366924039,-0.997039704580828,338.636534724977
738245.49063072435092180967,1.34169540492976,-0.997039704580828,338.648843857133
738245.49063081492204219103,1.35400453708508,-0.972421440270191,338.636534724977
738245.49063090537674725056,1.34169540492976,-0.972421440270191,338.636534724977
738245.49063099594786763191,1.35400453708508,-0.960112308114872,338.73500778222
738245.49063108640257269144,1.35400453708508,-0.947803175959553,338.710389517909
738245.49063117685727775097,1.37862280139571,-0.935494043804234,338.710389517909
738245.49063126742839813232,1.37862280139571,-0.910875779493596,338.673462121443
738245.49063135788310319185,1.37862280139571,-0.898566647338277,338.685771253599
738245.49063144833780825138,1.39093193355103,-0.886257515182958,338.673462121443
738245.49063153890892863274,1.39093193355103,-0.861639250872321,338.710389517909
738245.49063162936363369226,1.40324106570635,-0.837020986561683,338.771935178686
738245.49063171981833875179,1.41555019786167,-0.812402722251045,338.771935178686
738245.49063181038945913315,1.44016846217231,-0.76316619362977,338.808862575152
738245.49063190084416419268,1.45247759432763,-0.738547929319132,338.747316914375
738245.49063199129886925220,1.44016846217231,-0.726238797163813,338.796553442997
738245.49063208186998963356,1.45247759432763,-0.689311400697857,338.845789971618
738245.49063217232469469309,1.48940499079358,-0.615456607765943,338.796553442997
738245.49063226277939975262,1.48940499079358,-0.590838343455306,338.907335632394
738245.49063235335052013397,1.5017141229489,-0.578529211299987,338.895026500239
738245.49063244380522519350,1.51402325510422,-0.54160181483403,338.870408235928
738245.49063253437634557486,1.51402325510422,-0.553910946989349,338.858099103773
738245.49063262483105063438,1.52633238725954,-0.553910946989349,338.845789971618
738245.49063271528575569391,1.52633238725954,-0.590838343455306,338.845789971618
738245.49063280585687607527,1.48940499079358,-0.664693136387219,338.796553442997
738245.49063289631158113480,1.45247759432763,-0.738547929319132,338.599607328511
738245.49063298676628619432,1.42785933001699,-0.824711854406364,338.538061667735
738245.49063307733740657568,1.40324106570635,-0.898566647338277,338.673462121443
738245.49063316779211163521,1.37862280139571,-0.947803175959553,338.624225592822
738245.49063325824681669474,1.37862280139571,-0.960112308114872,338.661152989288
738245.49063334881793707609,1.35400453708508,-0.984730572425509,338.562679932045
738245.49063343927264213562,1.35400453708508,-1.00934883673615,338.587298196356
738245.49063352972734719515,1.34169540492976,-1.00934883673615,338.574989064201
738245.49063362029846757650,1.37862280139571,-0.984730572425509,338.611916460667
738245.49063371075317263603,1.35400453708508,-0.997039704580828,338.624225592822
738245.49063380132429301739,1.35400453708508,-0.997039704580828,338.611916460667
738245.49063389177899807692,1.36631366924039,-0.997039704580828,338.685771253599
738245.49063398223370313644,1.36631366924039,-0.997039704580828,338.661152989288
738245.49063407280482351780,1.36631366924039,-0.984730572425509,338.611916460667
738245.49063416325952857733,1.36631366924039,-0.997039704580828,338.611916460667
738245.49063425371423363686,1.35400453708508,-0.997039704580828,338.599607328511
738245.49063434428535401821,1.36631366924039,-0.984730572425509,338.611916460667
738245.49063443474005907774,1.36631366924039,-0.984730572425509,338.661152989288
738245.49063452519476413727,1.36631366924039,-1.00934883673615,338.624225592822
738245.49063461576588451862,1.36631366924039,-1.00934883673615,338.55037079989
738245.49063470622058957815,1.41555019786167,-0.960112308114872,338.587298196356
738245.49063479667529463768,1.36631366924039,-0.997039704580828,338.587298196356
738245.49063488724641501904,1.39093193355103,-0.997039704580828,338.525752535579
738245.49063497770112007856,1.37862280139571,-0.997039704580828,338.55037079989
738245.49063506815582513809,1.37862280139571,-0.997039704580828,338.599607328511
738245.49063515872694551945,1.37862280139571,-1.00934883673615,338.599607328511
738245.49063524918165057898,1.36631366924039,-1.00934883673615,338.599607328511
738245.49063533975277096033,1.39093193355103,-0.997039704580828,338.648843857133
738245.49063543020747601986,1.37862280139571,-1.00934883673615,338.648843857133
738245.49063552066218107939,1.37862280139571,-1.00934883673615,338.636534724977
738245.49063561123330146074,1.36631366924039,-1.02165796889147,338.599607328511
738245.49063570168800652027,1.37862280139571,-1.00934883673615,338.636534724977
738245.49063579214271157980,1.36631366924039,-1.02165796889147,338.648843857133
738245.49063588271383196115,1.37862280139571,-1.00934883673615,338.661152989288
738245.49063597316853702068,1.37862280139571,-1.00934883673615,338.599607328511
738245.49063606362324208021,1.36631366924039,-1.02165796889147,338.636534724977
738245.49063615419436246157,1.36631366924039,-1.03396710104678,338.673462121443
738245.49063624464906752110,1.39093193355103,-1.03396710104678,338.587298196356
738245.49063633510377258062,1.37862280139571,-1.03396710104678,338.587298196356
738245.49063642567489296198,1.37862280139571,-1.0462762332021,338.55037079989
738245.49063651612959802151,1.41555019786167,-1.00934883673615,338.488825139114
738245.49063660658430308104,1.45247759432763,-0.960112308114872,338.562679932045
738245.49063669715542346239,1.44016846217231,-0.997039704580828,338.611916460667
738245.49063678761012852192,1.42785933001699,-0.984730572425509,338.661152989288
738245.49063687818124890327,1.41555019786167,-0.984730572425509,338.55037079989
738245.49063696863595396280,1.39093193355103,-1.00934883673615,338.636534724977
738245.49063705909065902233,1.37862280139571,-1.00934883673615,338.673462121443
738245.49063714966177940369,1.36631366924039,-1.02165796889147,338.661152989288
738245.49063724011648446321,1.36631366924039,-1.02165796889147,338.661152989288
738245.49063733057118952274,1.36631366924039,-1.02165796889147,338.673462121443
738245.49063742114230990410,1.34169540492976,-1.03396710104678,338.648843857133
738245.49063751159701496363,1.37862280139571,-1.00934883673615,338.685771253599
738245.49063760205172002316,1.36631366924039,-1.02165796889147,338.710389517909
738245.49063769262284040451,1.35400453708508,-1.03396710104678,338.624225592822
738245.49063778307754546404,1.35400453708508,-1.02165796889147,338.710389517909
738245.49063787353225052357,1.35400453708508,-1.02165796889147,338.698080385754
738245.49063796410337090492,1.37862280139571,-1.00934883673615,338.599607328511
738245.49063805455807596445,1.46478672648295,-0.849330118717002,338.574989064201
738245.49063814501278102398,1.7602058982106,-0.0123091321553189,338.796553442997
738245.49063823558390140533,2.09255246640421,0.947803175959553,338.993499557482
738245.49063832603860646486,2.30180771304463,1.14474929044465,338.870408235928
738245.49063841660972684622,1.84636982329783,-0.480056154057436,338.378042949716
738245.49063850706443190575,1.5632597837255,-1.19398581906593,338.242642496007
738245.49063859751913696527,1.47709585863826,-1.02165796889147,338.513443403424
738245.49063868809025734663,1.44016846217231,-0.972421440270191,338.562679932045
738245.49063877854496240616,1.41555019786167,-0.947803175959553,338.611916460667
738245.49063886899966746569,1.40324106570635,-0.972421440270191,338.636534724977
738245.49063895957078784704,1.39093193355103,-0.972421440270191,338.636534724977
738245.49063905002549290657,1.37862280139571,-0.972421440270191,338.710389517909
738245.49063914048019796610,1.41555019786167,-0.935494043804234,338.685771253599
738245.49063923105131834745,1.37862280139571,-0.947803175959553,338.611916460667
738245.49063932150602340698,1.39093193355103,-0.935494043804234,338.648843857133
738245.49063941196072846651,1.40324106570635,-0.923184911648915,338.722698650065
738245.49063950253184884787,1.39093193355103,-0.910875779493596,338.698080385754
738245.49063959298655390739,1.40324106570635,-0.898566647338277,338.648843857133
738245.49063968355767428875,1.41555019786167,-0.886257515182958,338.698080385754
738245.49063977401237934828,1.40324106570635,-0.898566647338277,338.685771253599
738245.49063986446708440781,1.41555019786167,-0.861639250872321,338.685771253599
738245.49063995503820478916,1.42785933001699,-0.849330118717002,338.599607328511
738245.49064004549290984869,1.44016846217231,-0.824711854406364,338.538061667735
738245.49064013594761490822,1.46478672648295,-0.775475325785089,338.673462121443
738245.49064022651873528957,1.47709585863826,-0.76316619362977,338.685771253599
738245.49064031697344034910,1.45247759432763,-0.76316619362977,338.685771253599
738245.49064040742814540863,1.48940499079358,-0.701620532853175,338.784244310841
738245.49064049799926578999,1.51402325510422,-0.640074872076581,338.808862575152
738245.49064058845397084951,1.53864151941486,-0.603147475610625,338.784244310841
738245.49064067890867590904,1.53864151941486,-0.566220079144668,338.895026500239
738245.49064076947979629040,1.53864151941486,-0.529292682678711,338.882717368084
738245.49064085993450134993,1.52633238725954,-0.553910946989349,338.882717368084
738245.49064095038920640945,1.5632597837255,-0.504674418368074,338.858099103773
738245.49064104096032679081,1.53864151941486,-0.54160181483403,338.858099103773
738245.49064113141503185034,1.5632597837255,-0.553910946989349,338.858099103773
738245.49064122198615223169,1.55095065157018,-0.603147475610625,338.747316914375
738245.49064131244085729122,1.52633238725954,-0.689311400697857,338.73500778222
738245.49064140289556235075,1.47709585863826,-0.787784457940408,338.722698650065
738245.49064149346668273211,1.45247759432763,-0.837020986561683,338.73500778222
738245.49064158392138779163,1.44016846217231,-0.861639250872321,338.648843857133
738245.49064167437609285116,1.42785933001699,-0.910875779493596,338.673462121443
738245.49064176494721323252,1.40324106570635,-0.947803175959553,338.574989064201
738245.49064185540191829205,1.40324106570635,-0.960112308114872,338.599607328511
738245.49064194585662335157,1.39093193355103,-0.972421440270191,338.673462121443
738245.49064203642774373293,1.39093193355103,-0.972421440270191,338.685771253599
738245.49064212688244879246,1.37862280139571,-0.960112308114872,338.599607328511
738245.49064221733715385199,1.36631366924039,-0.984730572425509,338.661152989288
738245.49064230790827423334,1.41555019786167,-0.947803175959553,338.673462121443
738245.49064239836297929287,1.39093193355103,-0.972421440270191,338.624225592822
738245.49064248881768435240,1.40324106570635,-0.960112308114872,338.636534724977
738245.49064257938880473375,1.40324106570635,-0.960112308114872,338.685771253599
738245.49064266984350979328,1.41555019786167,-0.947803175959553,338.648843857133
738245.49064276041463017464,1.42785933001699,-0.947803175959553,338.611916460667
738245.49064285086933523417,1.39093193355103,-0.972421440270191,338.661152989288
738245.49064294132404029369,1.42785933001699,-0.947803175959553,338.661152989288
738245.49064303189516067505,1.42785933001699,-0.947803175959553,338.599607328511
738245.49064312234986573458,1.40324106570635,-0.960112308114872,338.685771253599
738245.49064321280457079411,1.41555019786167,-0.947803175959553,338.574989064201
738245.49064330337569117546,1.40324106570635,-0.960112308114872,338.624225592822
738245.49064339383039623499,1.41555019786167,-0.960112308114872,338.574989064201
738245.49064348428510129452,1.40324106570635,-0.972421440270191,338.513443403424
738245.49064357485622167587,1.40324106570635,-0.960112308114872,338.402661214026
738245.49064366531092673540,1.41555019786167,-0.960112308114872,338.538061667735
738245.49064375576563179493,1.37862280139571,-0.997039704580828,338.574989064201
738245.49064384633675217628,1.42785933001699,-0.947803175959553,338.538061667735
738245.49064393679145723581,1.41555019786167,-0.960112308114872,338.562679932045
738245.49064402724616229534,1.39093193355103,-0.984730572425509,338.55037079989
738245.49064411781728267670,1.40324106570635,-0.972421440270191,338.55037079989
738245.49064420827198773623,1.40324106570635,-0.972421440270191,338.599607328511
738245.49064429884310811758,1.41555019786167,-0.960112308114872,338.611916460667
738245.49064438929781317711,1.40324106570635,-0.960112308114872,338.648843857133
738245.49064447975251823664,1.39093193355103,-0.984730572425509,338.661152989288
738245.49064457032363861799,1.40324106570635,-0.984730572425509,338.624225592822
738245.49064466077834367752,1.41555019786167,-0.972421440270191,338.636534724977
738245.49064475123304873705,1.40324106570635,-0.984730572425509,338.673462121443
738245.49064484180416911840,1.37862280139571,-1.00934883673615,338.661152989288
738245.49064493225887417793,1.41555019786167,-0.984730572425509,338.599607328511
738245.49064502271357923746,1.41555019786167,-0.997039704580828,338.636534724977
738245.49064511328469961882,1.41555019786167,-0.984730572425509,338.636534724977
738245.49064520373940467834,1.42785933001699,-0.997039704580828,338.525752535579
738245.49064529419410973787,1.45247759432763,-0.960112308114872,338.587298196356
738245.49064538476523011923,1.46478672648295,-0.935494043804234,338.648843857133
738245.49064547521993517876,1.46478672648295,-0.935494043804234,338.624225592822
738245.49064556567464023829,1.46478672648295,-0.947803175959553,338.599607328511
738245.49064565624576061964,1.44016846217231,-0.972421440270191,338.661152989288
738245.49064574670046567917,1.44016846217231,-0.960112308114872,338.673462121443
738245.49064583727158606052,1.40324106570635,-0.984730572425509,338.611916460667
738245.49064592772629112005,1.44016846217231,-0.947803175959553,338.673462121443
738245.49064601818099617958,1.40324106570635,-0.997039704580828,338.673462121443
738245.49064610875211656094,1.39093193355103,-0.997039704580828,338.636534724977
738245.49064619920682162046,1.37862280139571,-1.00934883673615,338.661152989288
738245.49064628966152667999,1.39093193355103,-1.00934883673615,338.673462121443
738245.49064638023264706135,1.39093193355103,-0.984730572425509,338.599607328511
738245.49064647068735212088,1.36631366924039,-1.00934883673615,338.599607328511
738245.49064656114205718040,1.40324106570635,-0.972421440270191,338.636534724977
738245.49064665171317756176,1.37862280139571,-1.00934883673615,338.611916460667
738245.49064674216788262129,1.41555019786167,-0.984730572425509,338.574989064201
738245.49064683262258768082,1.51402325510422,-0.750857061474451,338.611916460667
738245.49064692319370806217,1.87098808760847,0.196946114485102,338.907335632394
738245.49064701364841312170,2.12947986287016,1.02165796889147,338.796553442997
738245.49064710421953350306,2.25257118442335,0.972421440270191,338.722698650065
738245.49064719467423856258,1.79713329467655,-0.689311400697857,338.611916460667
738245.49064728512894362211,1.66173284096805,-1.13244015828934,338.15647857092
738245.49064737570006400347,1.52633238725954,-1.05858536535742,338.353424685405
738245.49064746615476906300,1.47709585863826,-0.972421440270191,338.501134271269
738245.49064755660947412252,1.44016846217231,-0.935494043804234,338.562679932045
738245.49064764718059450388,1.44016846217231,-0.935494043804234,338.562679932045
738245.49064773763529956341,1.44016846217231,-0.923184911648915,338.574989064201
738245.49064782809000462294,1.40324106570635,-0.947803175959553,338.624225592822
738245.49064791866112500429,1.44016846217231,-0.923184911648915,338.648843857133
738245.49064800911583006382,1.41555019786167,-0.935494043804234,338.648843857133
738245.49064809957053512335,1.41555019786167,-0.910875779493596,338.673462121443
738245.49064819014165550470,1.44016846217231,-0.886257515182958,338.636534724977
738245.49064828059636056423,1.40324106570635,-0.910875779493596,338.661152989288
738245.49064837105106562376,1.45247759432763,-0.861639250872321,338.710389517909
738245.49064846162218600512,1.45247759432763,-0.849330118717002,338.685771253599
738245.49064855207689106464,1.45247759432763,-0.861639250872321,338.73500778222
738245.49064864264801144600,1.46478672648295,-0.824711854406364,338.796553442997
738245.49064873310271650553,1.46478672648295,-0.812402722251045,338.673462121443
738245.49064882355742156506,1.47709585863826,-0.787784457940408,338.784244310841
738245.49064891412854194641,1.48940499079358,-0.76316619362977,338.796553442997
738245.49064900458324700594,1.51402325510422,-0.713929665008494,338.771935178686
738245.49064909503795206547,1.51402325510422,-0.701620532853175,338.808862575152
738245.49064918560907244682,1.52633238725954,-0.677002268542538,338.821171707307
738245.49064927606377750635,1.53864151941486,-0.640074872076581,338.858099103773
738245.49064936651848256588,1.55095065157018,-0.590838343455306,338.796553442997
738245.49064945708960294724,1.57556891588082,-0.553910946989349,338.895026500239
738245.49064954754430800676,1.58787804803613,-0.516983550523392,338.907335632394
738245.49064963799901306629,1.57556891588082,-0.504674418368074,338.956572161016
738245.49064972857013344765,1.58787804803613,-0.480056154057436,338.931953896705
738245.49064981902483850718,1.61249631234677,-0.467747021902117,338.833480839462
738245.49064990947954356670,1.60018718019145,-0.504674418368074,338.784244310841
738245.49065000005066394806,1.60018718019145,-0.529292682678711,338.759626046531
738245.49065009050536900759,1.55095065157018,-0.640074872076581,338.759626046531
738245.49065018107648938894,1.52633238725954,-0.713929665008494,338.710389517909
738245.49065027153119444847,1.51402325510422,-0.775475325785089,338.648843857133
738245.49065036198589950800,1.48940499079358,-0.837020986561683,338.648843857133
738245.49065045255701988935,1.44016846217231,-0.910875779493596,338.648843857133
738245.49065054301172494888,1.41555019786167,-0.947803175959553,338.488825139114
738245.49065063346643000841,1.46478672648295,-0.910875779493596,338.587298196356
738245.49065072403755038977,1.44016846217231,-0.935494043804234,338.673462121443
738245.49065081449225544930,1.42785933001699,-0.947803175959553,338.636534724977
738245.49065090494696050882,1.42785933001699,-0.947803175959553,338.599607328511
738245.49065099551808089018,1.41555019786167,-0.972421440270191,338.636534724977
738245.49065108597278594971,1.44016846217231,-0.935494043804234,338.636534724977
738245.49065117642749100924,1.45247759432763,-0.923184911648915,338.599607328511
738245.49065126699861139059,1.44016846217231,-0.947803175959553,338.599607328511
738245.49065135745331645012,1.44016846217231,-0.947803175959553,338.624225592822
738245.49065144790802150965,1.42785933001699,-0.960112308114872,338.661152989288
738245.49065153847914189100,1.44016846217231,-0.935494043804234,338.648843857133
738245.49065162893384695053,1.42785933001699,-0.947803175959553,338.574989064201
738245.49065171950496733189,1.42785933001699,-0.947803175959553,338.624225592822
738245.49065180995967239141,1.46478672648295,-0.923184911648915,338.648843857133
738245.49065190041437745094,1.44016846217231,-0.947803175959553,338.587298196356
738245.49065199098549783230,1.42785933001699,-0.960112308114872,338.574989064201
738245.49065208144020289183,1.44016846217231,-0.935494043804234,338.599607328511
738245.49065217189490795135,1.44016846217231,-0.960112308114872,338.599607328511
738245.49065226246602833271,1.42785933001699,-0.960112308114872,338.574989064201
738245.49065235292073339224,1.42785933001699,-0.972421440270191,338.673462121443
738245.49065244337543845177,1.42785933001699,-0.972421440270191,338.624225592822
738245.49065253394655883312,1.42785933001699,-0.972421440270191,338.611916460667
738245.49065262440126389265,1.44016846217231,-0.947803175959553,338.587298196356
738245.49065271485596895218,1.44016846217231,-0.972421440270191,338.648843857133
738245.49065280542708933353,1.42785933001699,-0.984730572425509,338.636534724977
738245.49065289588179439306,1.44016846217231,-0.972421440270191,338.648843857133
738245.49065298645291477442,1.42785933001699,-0.972421440270191,338.673462121443
738245.49065307690761983395,1.44016846217231,-0.984730572425509,338.648843857133
738245.49065316736232489347,1.42785933001699,-0.984730572425509,338.648843857133
738245.49065325793344527483,1.40324106570635,-0.997039704580828,338.685771253599
738245.49065334838815033436,1.42785933001699,-0.984730572425509,338.698080385754
738245.49065343884285539389,1.45247759432763,-0.960112308114872,338.611916460667
738245.49065352941397577524,1.42785933001699,-0.997039704580828,338.698080385754
738245.49065361986868083477,1.44016846217231,-0.984730572425509,338.648843857133
738245.49065371032338589430,1.41555019786167,-0.997039704580828,338.673462121443
738245.49065380089450627565,1.44016846217231,-0.984730572425509,338.55037079989
738245.49065389134921133518,1.45247759432763,-0.984730572425509,338.685771253599
738245.49065398180391639471,1.42785933001699,-1.00934883673615,338.636534724977
738245.49065407237503677607,1.44016846217231,-0.997039704580828,338.451897742648
738245.49065416282974183559,1.45247759432763,-0.997039704580828,338.513443403424
738245.49065425328444689512,1.46478672648295,-0.960112308114872,338.648843857133
738245.49065434385556727648,1.51402325510422,-0.923184911648915,338.611916460667
738245.49065443431027233601,1.5017141229489,-0.947803175959553,338.538061667735
738245.49065452488139271736,1.48940499079358,-0.947803175959553,338.562679932045
738245.49065461533609777689,1.45247759432763,-0.972421440270191,338.587298196356
738245.49065470579080283642,1.46478672648295,-0.972421440270191,338.611916460667
738245.49065479636192321777,1.44016846217231,-0.984730572425509,338.611916460667
738245.49065488681662827730,1.44016846217231,-0.997039704580828,338.673462121443
738245.49065497727133333683,1.42785933001699,-1.00934883673615,338.55037079989
738245.49065506784245371819,1.42785933001699,-0.997039704580828,338.599607328511
738245.49065515829715877771,1.44016846217231,-0.972421440270191,338.636534724977
738245.49065524875186383724,1.41555019786167,-0.984730572425509,338.611916460667
738245.49065533932298421860,1.44016846217231,-0.984730572425509,338.611916460667
738245.49065542977768927813,1.42785933001699,-0.984730572425509,338.698080385754
738245.49065552023239433765,1.42785933001699,-0.984730572425509,338.624225592822
738245.49065561080351471901,1.41555019786167,-0.997039704580828,338.661152989288
738245.49065570125821977854,1.48940499079358,-0.935494043804234,338.648843857133
738245.49065579171292483807,1.64942370881273,-0.467747021902117,338.73500778222
738245.49065588228404521942,1.98177027700634,0.553910946989349,339.030426953948
738245.49065597273875027895,2.32642597735527,1.24322234768721,339.030426953948
738245.49065606330987066031,2.11717073071485,0.381583096814885,338.624225592822
738245.49065615376457571983,1.7602058982106,-1.0462762332021,338.242642496007
738245.49065624421928077936,1.60018718019145,-1.0462762332021,338.414970346182
738245.49065633479040116072,1.51402325510422,-0.960112308114872,338.513443403424
738245.49065642524510622025,1.5017141229489,-0.923184911648915,338.624225592822
738245.49065651569981127977,1.47709585863826,-0.935494043804234,338.685771253599
738245.49065660627093166113,1.46478672648295,-0.947803175959553,338.685771253599
738245.49065669672563672066,1.45247759432763,-0.935494043804234,338.611916460667
738245.49065678718034178019,1.45247759432763,-0.923184911648915,338.661152989288
738245.49065687775146216154,1.45247759432763,-0.923184911648915,338.673462121443
738245.49065696820616722107,1.44016846217231,-0.935494043804234,338.698080385754
738245.49065705866087228060,1.46478672648295,-0.898566647338277,338.698080385754
738245.49065714923199266195,1.47709585863826,-0.87394838302764,338.747316914375
738245.49065723968669772148,1.47709585863826,-0.87394838302764,338.759626046531
738245.49065733014140278101,1.46478672648295,-0.87394838302764,338.673462121443
738245.49065742071252316236,1.48940499079358,-0.837020986561683,338.710389517909
738245.49065751116722822189,1.48940499079358,-0.849330118717002,338.673462121443
738245.49065760173834860325,1.5017141229489,-0.812402722251045,338.55037079989
738245.49065769219305366278,1.5017141229489,-0.800093590095726,338.574989064201
738245.49065778264775872231,1.48940499079358,-0.775475325785089,338.698080385754
738245.49065787321887910366,1.51402325510422,-0.76316619362977,338.73500778222
738245.49065796367358416319,1.52633238725954,-0.713929665008494,338.784244310841
738245.49065805412828922272,1.5632597837255,-0.664693136387219,338.833480839462
738245.49065814469940960407,1.5632597837255,-0.627765739921262,338.858099103773
738245.49065823515411466360,1.57556891588082,-0.603147475610625,338.821171707307
738245.49065832560881972313,1.57556891588082,-0.54160181483403,338.870408235928
738245.49065841617994010448,1.60018718019145,-0.516983550523392,338.870408235928
738245.49065850663464516401,1.61249631234677,-0.467747021902117,338.956572161016
738245.49065859708935022354,1.62480544450209,-0.467747021902117,338.907335632394
738245.49065868766047060490,1.61249631234677,-0.467747021902117,338.821171707307
738245.49065877811517566442,1.61249631234677,-0.480056154057436,338.833480839462
738245.49065886868629604578,1.60018718019145,-0.504674418368074,338.808862575152
738245.49065895914100110531,1.60018718019145,-0.553910946989349,338.771935178686
738245.49065904959570616484,1.58787804803613,-0.615456607765943,338.722698650065
738245.49065914016682654619,1.53864151941486,-0.726238797163813,338.673462121443
738245.49065923062153160572,1.48940499079358,-0.812402722251045,338.685771253599
738245.49065932107623666525,1.5017141229489,-0.824711854406364,338.747316914375
738245.49065941164735704660,1.46478672648295,-0.886257515182958,338.685771253599
738245.49065950210206210613,1.44016846217231,-0.923184911648915,338.685771253599
738245.49065959255676716566,1.44016846217231,-0.935494043804234,338.661152989288
738245.49065968312788754702,1.45247759432763,-0.923184911648915,338.710389517909
738245.49065977358259260654,1.41555019786167,-0.935494043804234,338.673462121443
738245.49065986403729766607,1.42785933001699,-0.947803175959553,338.599607328511
738245.49065995460841804743,1.42785933001699,-0.947803175959553,338.685771253599
738245.49066004506312310696,1.42785933001699,-0.947803175959553,338.685771253599
738245.49066013551782816648,1.42785933001699,-0.935494043804234,338.624225592822
738245.49066022608894854784,1.42785933001699,-0.947803175959553,338.685771253599
738245.49066031654365360737,1.44016846217231,-0.935494043804234,338.611916460667
738245.49066040711477398872,1.41555019786167,-0.947803175959553,338.611916460667
738245.49066049756947904825,1.44016846217231,-0.910875779493596,338.636534724977
738245.49066058802418410778,1.42785933001699,-0.935494043804234,338.648843857133
738245.49066067859530448914,1.42785933001699,-0.935494043804234,338.661152989288
738245.49066076905000954866,1.42785933001699,-0.935494043804234,338.599607328511
738245.49066085950471460819,1.42785933001699,-0.923184911648915,338.648843857133
738245.49066095007583498955,1.41555019786167,-0.947803175959553,338.661152989288
738245.49066104053054004908,1.42785933001699,-0.935494043804234,338.636534724977
738245.49066113098524510860,1.41555019786167,-0.947803175959553,338.624225592822
738245.49066122155636548996,1.41555019786167,-0.947803175959553,338.55037079989
738245.49066131201107054949,1.42785933001699,-0.935494043804234,338.599607328511
738245.49066140246577560902,1.39093193355103,-0.960112308114872,338.648843857133
738245.49066149303689599037,1.40324106570635,-0.947803175959553,338.673462121443
738245.49066158349160104990,1.40324106570635,-0.947803175959553,338.673462121443
738245.49066167394630610943,1.40324106570635,-0.947803175959553,338.648843857133
738245.49066176451742649078,1.40324106570635,-0.947803175959553,338.710389517909
738245.49066185497213155031,1.39093193355103,-0.960112308114872,338.673462121443
738245.49066194554325193167,1.39093193355103,-0.960112308114872,338.587298196356
738245.49066203599795699120,1.39093193355103,-0.960112308114872,338.661152989288
738245.49066212645266205072,1.39093193355103,-0.972421440270191,338.698080385754
738245.49066221702378243208,1.39093193355103,-0.972421440270191,338.611916460667
738245.49066230747848749161,1.37862280139571,-0.972421440270191,338.648843857133
738245.49066239793319255114,1.37862280139571,-0.972421440270191,338.685771253599
738245.49066248850431293249,1.36631366924039,-0.984730572425509,338.698080385754
738245.49066257895901799202,1.40324106570635,-0.935494043804234,338.636534724977
738245.49066266941372305155,1.40324106570635,-0.935494043804234,338.685771253599
738245.49066275998484343290,1.36631366924039,-0.972421440270191,338.698080385754
738245.49066285043954849243,1.37862280139571,-0.984730572425509,338.698080385754
738245.49066294089425355196,1.39093193355103,-0.972421440270191,338.587298196356
738245.49066303146537393332,1.39093193355103,-0.960112308114872,338.685771253599
738245.49066312192007899284,1.39093193355103,-0.972421440270191,338.673462121443
738245.49066321237478405237,1.39093193355103,-0.960112308114872,338.587298196356
738245.49066330294590443373,1.42785933001699,-0.935494043804234,338.574989064201
738245.49066339340060949326,1.44016846217231,-0.923184911648915,338.661152989288
738245.49066348397172987461,1.45247759432763,-0.898566647338277,338.587298196356
738245.49066357442643493414,1.40324106570635,-0.935494043804234,338.599607328511
738245.49066366488113999367,1.40324106570635,-0.960112308114872,338.648843857133
738245.49066375545226037502,1.37862280139571,-0.960112308114872,338.587298196356
738245.49066384590696543455,1.36631366924039,-0.960112308114872,338.587298196356
738245.49066393636167049408,1.36631366924039,-0.972421440270191,338.624225592822
738245.49066402693279087543,1.35400453708508,-0.972421440270191,338.611916460667
738245.49066411738749593496,1.35400453708508,-0.972421440270191,338.624225592822
738245.49066420784220099449,1.35400453708508,-0.972421440270191,338.611916460667
738245.49066429841332137585,1.32938627277444,-0.972421440270191,338.611916460667
738245.49066438886802643538,1.35400453708508,-0.960112308114872,338.587298196356
738245.49066447932273149490,1.32938627277444,-0.972421440270191,338.599607328511
738245.49066456989385187626,1.31707714061912,-0.972421440270191,338.611916460667
738245.49066466034855693579,1.37862280139571,-0.947803175959553,338.611916460667
738245.49066475080326199532,1.46478672648295,-0.701620532853175,338.538061667735
738245.49066484137438237667,1.80944242683187,0.22156437879574,338.870408235928
738245.49066493182908743620,2.08024333424889,1.0462762332021,339.018117821792
738245.49066502240020781755,2.2156437879574,1.00934883673615,338.845789971618
738245.49066511285491287708,1.7602058982106,-0.677002268542538,338.291879024628
738245.49066520330961793661,1.52633238725954,-1.12013102613402,338.291879024628
738245.49066529388073831797,1.46478672648295,-0.960112308114872,338.501134271269
738245.49066538433544337749,1.39093193355103,-0.923184911648915,338.599607328511
738245.49066547479014843702,1.37862280139571,-0.910875779493596,338.648843857133
738245.49066556536126881838,1.37862280139571,-0.910875779493596,338.661152989288
738245.49066565581597387791,1.36631366924039,-0.910875779493596,338.648843857133
738245.49066574627067893744,1.35400453708508,-0.910875779493596,338.73500778222
738245.49066583684179931879,1.34169540492976,-0.898566647338277,338.710389517909
738245.49066592729650437832,1.35400453708508,-0.898566647338277,338.759626046531
738245.49066601775120943785,1.36631366924039,-0.87394838302764,338.611916460667
738245.49066610832232981920,1.34169540492976,-0.886257515182958,338.636534724977
738245.49066619877703487873,1.35400453708508,-0.87394838302764,338.648843857133
738245.49066628934815526009,1.36631366924039,-0.849330118717002,338.648843857133
738245.49066637980286031961,1.40324106570635,-0.824711854406364,338.661152989288
738245.49066647025756537914,1.37862280139571,-0.824711854406364,338.685771253599
738245.49066656082868576050,1.39093193355103,-0.800093590095726,338.784244310841
738245.49066665128339082003,1.39093193355103,-0.787784457940408,338.710389517909
738245.49066674173809587955,1.40324106570635,-0.76316619362977,338.771935178686
738245.49066683230921626091,1.40324106570635,-0.738547929319132,338.771935178686
738245.49066692276392132044,1.41555019786167,-0.701620532853175,338.833480839462
738245.49066701321862637997,1.42785933001699,-0.664693136387219,338.870408235928
738245.49066710378974676132,1.44016846217231,-0.640074872076581,338.821171707307
738245.49066719424445182085,1.46478672648295,-0.578529211299987,338.895026500239
738245.49066728469915688038,1.48940499079358,-0.529292682678711,338.895026500239
738245.49066737527027726173,1.48940499079358,-0.504674418368074,338.833480839462
738245.49066746572498232126,1.5017141229489,-0.467747021902117,338.956572161016
738245.49066755617968738079,1.51402325510422,-0.43081962543616,338.956572161016
738245.49066764675080776215,1.5017141229489,-0.443128757591479,338.91964476455
738245.49066773720551282167,1.5017141229489,-0.455437889746798,338.907335632394
738245.49066782777663320303,1.5017141229489,-0.492365286212755,338.907335632394
738245.49066791823133826256,1.48940499079358,-0.54160181483403,338.747316914375
738245.49066800868604332209,1.46478672648295,-0.627765739921262,338.710389517909
738245.49066809925716370344,1.42785933001699,-0.713929665008494,338.685771253599
738245.49066818971186876297,1.40324106570635,-0.775475325785089,338.464206874803
738245.49066828016657382250,1.37862280139571,-0.824711854406364,338.562679932045
738245.49066837073769420385,1.35400453708508,-0.87394838302764,338.636534724977
738245.49066846119239926338,1.36631366924039,-0.87394838302764,338.636534724977
738245.49066855164710432291,1.32938627277444,-0.923184911648915,338.648843857133
738245.49066864221822470427,1.31707714061912,-0.935494043804234,338.648843857133
738245.49066873267292976379,1.3047680084638,-0.947803175959553,338.611916460667
738245.49066882312763482332,1.35400453708508,-0.910875779493596,338.599607328511
738245.49066891369875520468,1.34169540492976,-0.910875779493596,338.599607328511
738245.49066900415346026421,1.34169540492976,-0.910875779493596,338.587298196356
738245.49066909460816532373,1.32938627277444,-0.935494043804234,338.587298196356
738245.49066918517928570509,1.34169540492976,-0.910875779493596,338.624225592822
738245.49066927563399076462,1.34169540492976,-0.923184911648915,338.587298196356
738245.49066936620511114597,1.32938627277444,-0.923184911648915,338.599607328511
738245.49066945665981620550,1.34169540492976,-0.910875779493596,338.599607328511
738245.49066954711452126503,1.31707714061912,-0.935494043804234,338.599607328511
738245.49066963768564164639,1.34169540492976,-0.910875779493596,338.587298196356
738245.49066972814034670591,1.35400453708508,-0.910875779493596,338.587298196356
738245.49066981859505176544,1.3047680084638,-0.935494043804234,338.624225592822
738245.49066990916617214680,1.32938627277444,-0.923184911648915,338.673462121443
738245.49066999962087720633,1.34169540492976,-0.910875779493596,338.685771253599
738245.49067009007558226585,1.32938627277444,-0.923184911648915,338.661152989288
738245.49067018064670264721,1.3047680084638,-0.947803175959553,338.611916460667
738245.49067027110140770674,1.35400453708508,-0.910875779493596,338.685771253599
738245.49067036155611276627,1.32938627277444,-0.923184911648915,338.73500778222
738245.49067045212723314762,1.32938627277444,-0.923184911648915,338.673462121443
738245.49067054258193820715,1.31707714061912,-0.947803175959553,338.673462121443
738245.49067063303664326668,1.31707714061912,-0.960112308114872,338.698080385754
738245.49067072360776364803,1.34169540492976,-0.923184911648915,338.722698650065
738245.49067081406246870756,1.31707714061912,-0.935494043804234,338.624225592822
738245.49067090463358908892,1.31707714061912,-0.960112308114872,338.710389517909
738245.49067099508829414845,1.32938627277444,-0.947803175959553,338.673462121443
738245.49067108554299920797,1.32938627277444,-0.947803175959553,338.611916460667
738245.49067117611411958933,1.3047680084638,-0.960112308114872,338.710389517909
738245.49067126656882464886,1.3047680084638,-0.972421440270191,338.722698650065
738245.49067135702352970839,1.31707714061912,-0.960112308114872,338.673462121443
738245.49067144759465008974,1.32938627277444,-0.935494043804234,338.661152989288
738245.49067153804935514927,1.32938627277444,-0.947803175959553,338.710389517909
738245.49067162850406020880,1.31707714061912,-0.960112308114872,338.661152989288
738245.49067171907518059015,1.32938627277444,-0.960112308114872,338.488825139114
738245.49067180952988564968,1.32938627277444,-0.972421440270191,338.513443403424
738245.49067189998459070921,1.32938627277444,-0.960112308114872,338.599607328511
738245.49067199055571109056,1.34169540492976,-0.960112308114872,338.599607328511
738245.49067208101041615009,1.37862280139571,-0.910875779493596,338.587298196356
738245.49067217158153653145,1.39093193355103,-0.910875779493596,338.587298196356
738245.49067226203624159098,1.37862280139571,-0.923184911648915,338.574989064201
738245.49067235249094665051,1.36631366924039,-0.910875779493596,338.587298196356
738245.49067244306206703186,1.35400453708508,-0.923184911648915,338.611916460667
738245.49067253351677209139,1.35400453708508,-0.947803175959553,338.599607328511
738245.49067262397147715092,1.34169540492976,-0.923184911648915,338.648843857133
738245.49067271454259753227,1.32938627277444,-0.960112308114872,338.685771253599
738245.49067280499730259180,1.31707714061912,-0.972421440270191,338.673462121443
738245.49067289545200765133,1.3047680084638,-0.960112308114872,338.648843857133
738245.49067298602312803268,1.31707714061912,-0.960112308114872,338.611916460667
738245.49067307647783309221,1.3047680084638,-0.972421440270191,338.648843857133
738245.49067316693253815174,1.28014974415316,-0.984730572425509,338.673462121443
738245.49067325750365853310,1.35400453708508,-0.910875779493596,338.710389517909
738245.49067334795836359262,1.28014974415316,-0.984730572425509,338.722698650065
738245.49067343841306865215,1.32938627277444,-0.947803175959553,338.599607328511
738245.49067352898418903351,1.45247759432763,-0.689311400697857,338.722698650065
738245.49067361943889409304,1.74789676605528,0.196946114485102,338.956572161016
738245.49067371001001447439,2.05562506993825,1.07089449751274,339.005808689637
738245.49067380046471953392,2.2156437879574,1.0462762332021,338.833480839462
738245.49067389091942459345,1.72327850174464,-0.677002268542538,338.230333363852
738245.49067398149054497480,1.5017141229489,-1.12013102613402,338.279569892473
738245.49067407194525003433,1.40324106570635,-0.997039704580828,338.476516006958
738245.49067416239995509386,1.41555019786167,-0.886257515182958,338.513443403424
738245.49067425297107547522,1.40324106570635,-0.861639250872321,338.587298196356
738245.49067434342578053474,1.35400453708508,-0.910875779493596,338.648843857133
738245.49067443388048559427,1.32938627277444,-0.923184911648915,338.673462121443
738245.49067452445160597563,1.35400453708508,-0.886257515182958,338.722698650065
738245.49067461490631103516,1.32938627277444,-0.910875779493596,338.722698650065
738245.49067470536101609468,1.34169540492976,-0.886257515182958,338.685771253599
738245.49067479593213647604,1.34169540492976,-0.87394838302764,338.73500778222
738245.49067488638684153557,1.35400453708508,-0.861639250872321,338.771935178686
738245.49067497684154659510,1.34169540492976,-0.87394838302764,338.685771253599
738245.49067506741266697645,1.35400453708508,-0.849330118717002,338.759626046531
738245.49067515786737203598,1.36631366924039,-0.837020986561683,338.771935178686
738245.49067524843849241734,1.36631366924039,-0.824711854406364,338.599607328511
738245.49067533889319747686,1.37862280139571,-0.800093590095726,338.648843857133
738245.49067542934790253639,1.37862280139571,-0.787784457940408,338.845789971618
738245.49067551991902291775,1.41555019786167,-0.738547929319132,338.808862575152
738245.49067561037372797728,1.41555019786167,-0.726238797163813,338.833480839462
738245.49067570082843303680,1.42785933001699,-0.701620532853175,338.858099103773
738245.49067579139955341816,1.42785933001699,-0.664693136387219,338.833480839462
738245.49067588185425847769,1.45247759432763,-0.627765739921262,338.882717368084
738245.49067597230896353722,1.46478672648295,-0.578529211299987,338.845789971618
738245.49067606288008391857,1.47709585863826,-0.54160181483403,338.808862575152
738245.49067615333478897810,1.48940499079358,-0.504674418368074,338.858099103773
738245.49067624378949403763,1.5017141229489,-0.467747021902117,338.845789971618
738245.49067633436061441898,1.51402325510422,-0.443128757591479,338.870408235928
738245.49067642481531947851,1.52633238725954,-0.418510493280842,338.931953896705
738245.49067651527002453804,1.52633238725954,-0.443128757591479,338.882717368084
738245.49067660584114491940,1.53864151941486,-0.443128757591479,338.821171707307
738245.49067669629584997892,1.5017141229489,-0.516983550523392,338.784244310841
738245.49067678686697036028,1.5017141229489,-0.578529211299987,338.784244310841
738245.49067687732167541981,1.46478672648295,-0.6523840042319,338.759626046531
738245.49067696777638047934,1.41555019786167,-0.750857061474451,338.698080385754
738245.49067705834750086069,1.42785933001699,-0.812402722251045,338.648843857133
738245.49067714880220592022,1.36631366924039,-0.87394838302764,338.710389517909
738245.49067723925691097975,1.35400453708508,-0.898566647338277,338.648843857133
738245.49067732982803136110,1.37862280139571,-0.898566647338277,338.661152989288
738245.49067742028273642063,1.36631366924039,-0.923184911648915,338.636534724977
738245.49067751073744148016,1.35400453708508,-0.935494043804234,338.648843857133
738245.49067760130856186152,1.36631366924039,-0.923184911648915,338.673462121443
738245.49067769176326692104,1.36631366924039,-0.923184911648915,338.648843857133
738245.49067778221797198057,1.35400453708508,-0.923184911648915,338.685771253599
738245.49067787278909236193,1.35400453708508,-0.935494043804234,338.698080385754
738245.49067796324379742146,1.35400453708508,-0.923184911648915,338.661152989288
738245.49067805381491780281,1.37862280139571,-0.923184911648915,338.673462121443
738245.49067814426962286234,1.35400453708508,-0.923184911648915,338.698080385754
738245.49067823472432792187,1.36631366924039,-0.923184911648915,338.636534724977
738245.49067832529544830322,1.35400453708508,-0.923184911648915,338.648843857133
738245.49067841575015336275,1.36631366924039,-0.923184911648915,338.648843857133
738245.49067850620485842228,1.36631366924039,-0.910875779493596,338.73500778222
738245.49067859677597880363,1.35400453708508,-0.935494043804234,338.73500778222
738245.49067868723068386316,1.36631366924039,-0.923184911648915,338.599607328511
738245.49067877768538892269,1.37862280139571,-0.910875779493596,338.611916460667
738245.49067886825650930405,1.35400453708508,-0.935494043804234,338.562679932045
738245.49067895871121436357,1.37862280139571,-0.923184911648915,338.673462121443
738245.49067904916591942310,1.35400453708508,-0.935494043804234,338.698080385754
738245.49067913973703980446,1.36631366924039,-0.923184911648915,338.648843857133
738245.49067923019174486399,1.34169540492976,-0.960112308114872,338.624225592822
738245.49067932064644992352,1.36631366924039,-0.923184911648915,338.599607328511
738245.49067941121757030487,1.35400453708508,-0.947803175959553,338.624225592822
738245.49067950167227536440,1.35400453708508,-0.947803175959553,338.611916460667
738245.49067959224339574575,1.36631366924039,-0.935494043804234,338.661152989288
738245.49067968269810080528,1.35400453708508,-0.935494043804234,338.698080385754
738245.49067977315280586481,1.35400453708508,-0.960112308114872,338.698080385754
738245.49067986372392624617,1.34169540492976,-0.960112308114872,338.599607328511
738245.49067995417863130569,1.35400453708508,-0.947803175959553,338.624225592822
738245.49068004463333636522,1.34169540492976,-0.960112308114872,338.648843857133
738245.49068013520445674658,1.37862280139571,-0.935494043804234,338.636534724977
738245.49068022565916180611,1.34169540492976,-0.984730572425509,338.624225592822
738245.49068031611386686563,1.37862280139571,-0.960112308114872,338.636534724977
738245.49068040668498724699,1.36631366924039,-0.972421440270191,338.611916460667
738245.49068049713969230652,1.36631366924039,-0.972421440270191,338.587298196356
738245.49068058759439736605,1.40324106570635,-0.947803175959553,338.599607328511
738245.49068067816551774740,1.40324106570635,-0.923184911648915,338.599607328511
738245.49068076862022280693,1.42785933001699,-0.910875779493596,338.624225592822
738245.49068085907492786646,1.44016846217231,-0.935494043804234,338.648843857133
738245.49068094964604824781,1.41555019786167,-0.923184911648915,338.673462121443
738245.49068104010075330734,1.40324106570635,-0.960112308114872,338.685771253599
738245.49068113067187368870,1.37862280139571,-0.947803175959553,338.624225592822
738245.49068122112657874823,1.35400453708508,-0.972421440270191,338.710389517909
738245.49068131158128380775,1.36631366924039,-0.972421440270191,338.648843857133
738245.49068140215240418911,1.36631366924039,-0.972421440270191,338.636534724977
738245.49068149260710924864,1.35400453708508,-0.972421440270191,338.698080385754
738245.49068158306181430817,1.34169540492976,-0.984730572425509,338.698080385754
738245.49068167363293468952,1.36631366924039,-0.960112308114872,338.747316914375
738245.49068176408763974905,1.35400453708508,-0.972421440270191,338.673462121443
738245.49068185454234480858,1.36631366924039,-0.960112308114872,338.673462121443
738245.49068194511346518993,1.34169540492976,-0.984730572425509,338.636534724977
738245.49068203556817024946,1.37862280139571,-0.960112308114872,338.611916460667
738245.49068212602287530899,1.45247759432763,-0.837020986561683,338.624225592822
738245.49068221659399569035,1.68635110527868,-0.123091321553189,338.858099103773
738245.49068230704870074987,2.03100680562761,0.886257515182958,338.981190425326
738245.49068239750340580940,2.28949858088931,1.25553147984252,338.784244310841
738245.49068248807452619076,1.87098808760847,-0.270800907417015,338.451897742648
738245.49068257852923125029,1.61249631234677,-1.15705842259997,338.254951628162
738245.49068266910035163164,1.48940499079358,-0.984730572425509,338.525752535579
738245.49068275955505669117,1.45247759432763,-0.935494043804234,338.636534724977
738245.49068285000976175070,1.44016846217231,-0.886257515182958,338.710389517909
738245.49068294058088213205,1.41555019786167,-0.910875779493596,338.661152989288
738245.49068303103558719158,1.40324106570635,-0.923184911648915,338.698080385754
738245.49068312149029225111,1.40324106570635,-0.910875779493596,338.747316914375
738245.49068321206141263247,1.39093193355103,-0.898566647338277,338.685771253599
738245.49068330251611769199,1.39093193355103,-0.898566647338277,338.73500778222
738245.49068339297082275152,1.42785933001699,-0.861639250872321,338.771935178686
738245.49068348354194313288,1.40324106570635,-0.886257515182958,338.759626046531
738245.49068357399664819241,1.41555019786167,-0.87394838302764,338.710389517909
738245.49068366445135325193,1.42785933001699,-0.849330118717002,338.796553442997
738245.49068375502247363329,1.42785933001699,-0.837020986561683,338.759626046531
738245.49068384547717869282,1.44016846217231,-0.812402722251045,338.722698650065
738245.49068393593188375235,1.45247759432763,-0.812402722251045,338.771935178686
738245.49068402650300413370,1.44016846217231,-0.800093590095726,338.771935178686
738245.49068411695770919323,1.46478672648295,-0.76316619362977,338.722698650065
738245.49068420752882957458,1.48940499079358,-0.726238797163813,338.698080385754
738245.49068429798353463411,1.48940499079358,-0.701620532853175,338.747316914375
738245.49068438843823969364,1.48940499079358,-0.689311400697857,338.747316914375
738245.49068447900936007500,1.51402325510422,-0.615456607765943,338.73500778222
738245.49068456946406513453,1.52633238725954,-0.590838343455306,338.808862575152
738245.49068465991877019405,1.55095065157018,-0.529292682678711,338.845789971618
738245.49068475048989057541,1.5632597837255,-0.492365286212755,338.870408235928
738245.49068484094459563494,1.5632597837255,-0.480056154057436,338.931953896705
738245.49068493139930069447,1.58787804803613,-0.43081962543616,338.968881293171
738245.49068502197042107582,1.58787804803613,-0.43081962543616,338.907335632394
738245.49068511242512613535,1.60018718019145,-0.43081962543616,338.907335632394
738245.49068520287983119488,1.58787804803613,-0.455437889746798,338.858099103773
738245.49068529345095157623,1.5632597837255,-0.529292682678711,338.808862575152
738245.49068538390565663576,1.55095065157018,-0.603147475610625,338.73500778222
738245.49068547447677701712,1.52633238725954,-0.689311400697857,338.698080385754
738245.49068556493148207664,1.48940499079358,-0.76316619362977,338.747316914375
738245.49068565538618713617,1.46478672648295,-0.812402722251045,338.661152989288
738245.49068574595730751753,1.45247759432763,-0.849330118717002,338.673462121443
738245.49068583641201257706,1.42785933001699,-0.898566647338277,338.599607328511
738245.49068592686671763659,1.42785933001699,-0.910875779493596,338.476516006958
738245.49068601743783801794,1.41555019786167,-0.923184911648915,338.698080385754
738245.49068610789254307747,1.41555019786167,-0.923184911648915,338.710389517909
738245.49068619834724813700,1.42785933001699,-0.923184911648915,338.710389517909
738245.49068628891836851835,1.41555019786167,-0.935494043804234,338.661152989288
738245.49068637937307357788,1.41555019786167,-0.947803175959553,338.698080385754
738245.49068646982777863741,1.42785933001699,-0.923184911648915,338.710389517909
738245.49068656039889901876,1.40324106570635,-0.935494043804234,338.648843857133
738245.49068665085360407829,1.41555019786167,-0.947803175959553,338.673462121443
738245.49068674130830913782,1.44016846217231,-0.923184911648915,338.661152989288
738245.49068683187942951918,1.42785933001699,-0.923184911648915,338.661152989288
738245.49068692233413457870,1.44016846217231,-0.923184911648915,338.685771253599
738245.49068701290525496006,1.42785933001699,-0.935494043804234,338.710389517909
738245.49068710335996001959,1.44016846217231,-0.923184911648915,338.722698650065
738245.49068719381466507912,1.42785933001699,-0.923184911648915,338.661152989288
738245.49068728438578546047,1.44016846217231,-0.923184911648915,338.722698650065
738245.49068737484049052000,1.42785933001699,-0.935494043804234,338.710389517909
738245.49068746529519557953,1.42785933001699,-0.935494043804234,338.710389517909
738245.49068755586631596088,1.42785933001699,-0.935494043804234,338.599607328511
738245.49068764632102102041,1.46478672648295,-0.898566647338277,338.599607328511
738245.49068773677572607994,1.41555019786167,-0.947803175959553,338.611916460667
738245.49068782734684646130,1.42785933001699,-0.960112308114872,338.611916460667
738245.49068791780155152082,1.44016846217231,-0.935494043804234,338.587298196356
738245.49068800825625658035,1.42785933001699,-0.935494043804234,338.673462121443
