time_dn,ecg_projection_ll_ra_mV,ecg_projection_la_ra_mV,ecg_projection_vx_rl_mV
738245.54452763090375810862,1.85867895545315,-1.24322234768721,340.249031037324
738245.54452772147487848997,1.55095065157018,-2.33873510951058,339.904375336975
738245.54452781192958354950,1.21860408337657,-3.64350311797438,339.547410504471
738245.54452790250070393085,1.08320362966806,-3.58195745719779,339.744356618956
738245.54452799307182431221,1.0462762332021,-3.49579353211056,339.805902279733
738245.54452808352652937174,1.0462762332021,-3.47117526779992,339.89206620482
738245.54452817409764975309,1.03396710104678,-3.4588661356446,339.904375336975
738245.54452826466877013445,1.02165796889147,-3.4588661356446,339.928993601286
738245.54452835512347519398,1.02165796889147,-3.4588661356446,339.953611865596
738245.54452844569459557533,1.02165796889147,-3.44655700348928,339.978230129907
738245.54452853626571595669,1.02165796889147,-3.44655700348928,339.965920997752
738245.54452862672042101622,1.03396710104678,-3.42193873917865,339.904375336975
738245.54452871729154139757,1.02165796889147,-3.42193873917865,339.830520544043
738245.54452880786266177893,1.02165796889147,-3.40962960702333,339.904375336975
738245.54452889831736683846,1.02165796889147,-3.39732047486801,339.928993601286
738245.54452898888848721981,1.03396710104678,-3.38501134271269,339.990539262062
738245.54452907945960760117,1.0462762332021,-3.36039307840205,339.965920997752
738245.54452916991431266069,1.05858536535742,-3.34808394624673,339.978230129907
738245.54452926048543304205,1.05858536535742,-3.32346568193609,340.052084922839
738245.54452935105655342340,1.07089449751274,-3.29884741762546,340.07670318715
738245.54452944151125848293,1.08320362966806,-3.27422915331482,340.10132145146
738245.54452953208237886429,1.1078218939787,-3.23730175684886,340.10132145146
738245.54452962265349924564,1.12013102613402,-3.20037436038291,340.027466658528
738245.54452971310820430517,1.12013102613402,-3.15113783176163,340.113630583616
738245.54452980367932468653,1.13244015828934,-3.10190130314035,340.187485376548
738245.54452989425044506788,1.14474929044465,-3.08959217098504,340.236721905169
738245.54452998470515012741,1.16936755475529,-3.05266477451908,340.249031037324
738245.54453007527627050877,1.18167668691061,-2.99111911374248,340.187485376548
738245.54453016584739089012,1.20629495122125,-2.97880998158717,340.249031037324
738245.54453025630209594965,1.19398581906593,-2.95419171727653,340.322885830256
738245.54453034687321633101,1.20629495122125,-2.95419171727653,340.187485376548
738245.54453043744433671236,1.20629495122125,-2.96650084943185,340.236721905169
738245.54453052789904177189,1.19398581906593,-3.0034282458978,340.187485376548
738245.54453061847016215324,1.16936755475529,-3.08959217098504,340.138248847926
738245.54453070904128253460,1.12013102613402,-3.18806522822759,340.138248847926
738245.54453079961240291595,1.09551276182338,-3.2619200211595,340.113630583616
738245.54453089006710797548,1.07089449751274,-3.32346568193609,340.052084922839
738245.54453098063822835684,1.05858536535742,-3.38501134271269,339.990539262062
738245.54453107120934873819,1.03396710104678,-3.40962960702333,340.039775790684
738245.54453116166405379772,1.03396710104678,-3.42193873917865,340.039775790684
738245.54453125223517417908,1.02165796889147,-3.44655700348928,339.953611865596
738245.54453134280629456043,1.02165796889147,-3.44655700348928,340.027466658528
738245.54453143326099961996,1.00934883673615,-3.44655700348928,340.052084922839
738245.54453152383212000132,1.00934883673615,-3.4588661356446,339.928993601286
738245.54453161440324038267,1.00934883673615,-3.4588661356446,339.928993601286
738245.54453170485794544220,1.00934883673615,-3.4588661356446,339.89206620482
738245.54453179542906582355,1.00934883673615,-3.4588661356446,339.928993601286
738245.54453188600018620491,1.02165796889147,-3.44655700348928,339.941302733441
738245.54453197645489126444,1.02165796889147,-3.4588661356446,339.904375336975
738245.54453206702601164579,1.00934883673615,-3.4588661356446,340.002848394218
738245.54453215759713202715,1.00934883673615,-3.4588661356446,339.941302733441
738245.54453224805183708668,1.00934883673615,-3.4588661356446,339.818211411888
738245.54453233862295746803,1.02165796889147,-3.44655700348928,339.990539262062
738245.54453242919407784939,1.00934883673615,-3.44655700348928,340.015157526373
738245.54453251964878290892,1.00934883673615,-3.44655700348928,340.015157526373
738245.54453261021990329027,1.02165796889147,-3.4588661356446,339.867447940509
738245.54453270079102367163,1.00934883673615,-3.47117526779992,340.002848394218
738245.54453279124572873116,1.00934883673615,-3.47117526779992,340.027466658528
738245.54453288181684911251,1.00934883673615,-3.47117526779992,339.953611865596
738245.54453297238796949387,1.00934883673615,-3.47117526779992,339.965920997752
738245.54453306284267455339,1.00934883673615,-3.47117526779992,339.990539262062
738245.54453315341379493475,1.00934883673615,-3.48348439995524,340.002848394218
738245.54453324398491531610,1.02165796889147,-3.47117526779992,339.904375336975
738245.54453333443962037563,1.03396710104678,-3.48348439995524,339.965920997752
738245.54453342501074075699,1.02165796889147,-3.49579353211056,339.953611865596
738245.54453351558186113834,1.02165796889147,-3.4588661356446,339.89206620482
738245.54453360603656619787,1.0462762332021,-3.43424787133396,339.978230129907
738245.54453369660768657923,1.05858536535742,-3.40962960702333,339.978230129907
738245.54453378717880696058,1.07089449751274,-3.40962960702333,339.904375336975
738245.54453387763351202011,1.05858536535742,-3.4588661356446,339.879757072665
738245.54453396820463240147,1.03396710104678,-3.43424787133396,339.879757072665
738245.54453405877575278282,1.02165796889147,-3.4588661356446,339.941302733441
738245.54453414923045784235,1.00934883673615,-3.47117526779992,340.002848394218
738245.54453423980157822371,1.00934883673615,-3.5204117964212,339.978230129907
738245.54453433037269860506,0.997039704580828,-3.5204117964212,339.928993601286
738245.54453442082740366459,0.997039704580828,-3.49579353211056,340.027466658528
738245.54453451139852404594,0.984730572425509,-3.50810266426588,340.027466658528
738245.54453460196964442730,0.997039704580828,-3.5204117964212,339.928993601286
738245.54453469242434948683,0.997039704580828,-3.50810266426588,339.978230129907
738245.54453478299546986818,0.997039704580828,-3.50810266426588,340.015157526373
738245.54453487356659024954,0.997039704580828,-3.50810266426588,339.941302733441
738245.54453496402129530907,0.984730572425509,-3.49579353211056,340.039775790684
738245.54453505459241569042,0.972421440270191,-3.49579353211056,340.015157526373
738245.54453514516353607178,1.0462762332021,-3.47117526779992,339.965920997752
738245.54453523561824113131,1.18167668691061,-3.02804651020844,340.089012319305
738245.54453532618936151266,1.51402325510422,-1.99407940916166,340.261340169479
738245.54453541676048189402,1.79713329467655,-1.36631366924039,340.199794508703
738245.54453550721518695354,1.60018718019145,-2.24026205226803,340.125939715771
738245.54453559778630733490,1.36631366924039,-3.13882869960631,339.670501826024
738245.54453568835742771626,1.13244015828934,-3.80352183599353,339.52279224016
738245.54453577881213277578,1.05858536535742,-3.60657572150843,339.633574429558
738245.54453586938325315714,1.05858536535742,-3.50810266426588,339.879757072665
738245.54453595995437353849,1.03396710104678,-3.47117526779992,339.904375336975
738245.54453605040907859802,1.02165796889147,-3.47117526779992,339.928993601286
738245.54453614098019897938,1.03396710104678,-3.48348439995524,339.941302733441
738245.54453623155131936073,1.02165796889147,-3.4588661356446,340.002848394218
738245.54453632200602442026,1.02165796889147,-3.47117526779992,339.965920997752
738245.54453641257714480162,1.02165796889147,-3.44655700348928,339.928993601286
738245.54453650314826518297,1.02165796889147,-3.43424787133396,339.904375336975
738245.54453659360297024250,1.02165796889147,-3.44655700348928,339.953611865596
738245.54453668417409062386,1.0462762332021,-3.39732047486801,339.953611865596
738245.54453677474521100521,1.05858536535742,-3.40962960702333,339.965920997752
738245.54453686519991606474,1.05858536535742,-3.39732047486801,339.990539262062
738245.54453695577103644609,1.08320362966806,-3.34808394624673,339.978230129907
738245.54453704634215682745,1.07089449751274,-3.34808394624673,339.978230129907
738245.54453713679686188698,1.08320362966806,-3.33577481409141,340.052084922839
738245.54453722736798226833,1.09551276182338,-3.27422915331482,340.064394054994
738245.54453731793910264969,1.1078218939787,-3.23730175684886,340.052084922839
738245.54453740839380770922,1.12013102613402,-3.22499262469354,340.064394054994
738245.54453749896492809057,1.13244015828934,-3.20037436038291,340.07670318715
738245.54453758953604847193,1.16936755475529,-3.13882869960631,340.125939715771
738245.54453767999075353146,1.16936755475529,-3.10190130314035,340.199794508703
738245.54453777056187391281,1.20629495122125,-3.02804651020844,340.175176244392
738245.54453786113299429417,1.20629495122125,-2.97880998158717,340.162867112237
738245.54453795158769935369,1.20629495122125,-2.96650084943185,340.249031037324
738245.54453804215881973505,1.21860408337657,-2.94188258512121,340.261340169479
738245.54453813272994011641,1.21860408337657,-2.92957345296589,340.175176244392
738245.54453822318464517593,1.21860408337657,-2.96650084943185,340.162867112237
738245.54453831375576555729,1.20629495122125,-3.01573737805312,340.175176244392
738245.54453840432688593864,1.19398581906593,-3.07728303882972,340.138248847926
738245.54453849478159099817,1.14474929044465,-3.20037436038291,340.089012319305
738245.54453858535271137953,1.12013102613402,-3.27422915331482,340.002848394218
738245.54453867592383176088,1.08320362966806,-3.36039307840205,340.07670318715
738245.54453876637853682041,1.07089449751274,-3.40962960702333,340.027466658528
738245.54453885694965720177,1.07089449751274,-3.44655700348928,339.904375336975
738245.54453894752077758312,1.03396710104678,-3.47117526779992,339.990539262062
738245.54453903797548264265,1.03396710104678,-3.48348439995524,340.002848394218
738245.54453912854660302401,1.0462762332021,-3.47117526779992,339.928993601286
738245.54453921911772340536,1.02165796889147,-3.48348439995524,339.756665751111
738245.54453930957242846489,1.02165796889147,-3.48348439995524,339.842829676199
738245.54453940014354884624,1.03396710104678,-3.48348439995524,340.027466658528
738245.54453949071466922760,1.02165796889147,-3.48348439995524,339.916684469131
738245.54453958116937428713,1.02165796889147,-3.47117526779992,339.965920997752
738245.54453967174049466848,1.0462762332021,-3.47117526779992,339.990539262062
738245.54453976231161504984,1.02165796889147,-3.48348439995524,339.953611865596
738245.54453985276632010937,1.03396710104678,-3.4588661356446,339.953611865596
738245.54453994333744049072,1.0462762332021,-3.44655700348928,340.015157526373
738245.54454003390856087208,1.03396710104678,-3.48348439995524,340.027466658528
738245.54454012436326593161,1.0462762332021,-3.47117526779992,339.916684469131
738245.54454021493438631296,1.0462762332021,-3.4588661356446,339.978230129907
738245.54454030550550669432,1.02165796889147,-3.44655700348928,339.904375336975
738245.54454039596021175385,1.03396710104678,-3.47117526779992,339.928993601286
738245.54454048653133213520,1.02165796889147,-3.44655700348928,339.941302733441
738245.54454057710245251656,1.0462762332021,-3.44655700348928,339.928993601286
738245.54454066755715757608,1.05858536535742,-3.43424787133396,339.941302733441
738245.54454075812827795744,1.03396710104678,-3.4588661356446,339.965920997752
738245.54454084869939833879,1.03396710104678,-3.47117526779992,339.867447940509
738245.54454093915410339832,1.03396710104678,-3.48348439995524,339.879757072665
738245.54454102972522377968,1.05858536535742,-3.43424787133396,339.928993601286
738245.54454112029634416103,1.07089449751274,-3.39732047486801,339.916684469131
738245.54454121075104922056,1.08320362966806,-3.36039307840205,339.818211411888
738245.54454130132216960192,1.08320362966806,-3.39732047486801,339.928993601286
738245.54454139189328998327,1.07089449751274,-3.42193873917865,339.928993601286
738245.54454148234799504280,1.0462762332021,-3.40962960702333,339.965920997752
738245.54454157291911542416,1.0462762332021,-3.42193873917865,340.015157526373
738245.54454166349023580551,1.03396710104678,-3.4588661356446,339.89206620482
738245.54454175394494086504,1.02165796889147,-3.44655700348928,339.928993601286
738245.54454184451606124640,1.02165796889147,-3.4588661356446,339.978230129907
738245.54454193508718162775,1.00934883673615,-3.47117526779992,339.953611865596
738245.54454202554188668728,1.02165796889147,-3.47117526779992,339.990539262062
738245.54454211611300706863,1.00934883673615,-3.43424787133396,339.928993601286
738245.54454220668412744999,0.997039704580828,-3.43424787133396,340.027466658528
738245.54454229713883250952,1.00934883673615,-3.47117526779992,340.039775790684
738245.54454238770995289087,1.00934883673615,-3.47117526779992,339.89206620482
738245.54454247828107327223,0.997039704580828,-3.44655700348928,339.941302733441
738245.54454256873577833176,1.0462762332021,-3.44655700348928,340.002848394218
738245.54454265930689871311,1.13244015828934,-3.2619200211595,340.027466658528
738245.54454274987801909447,1.37862280139571,-2.42489903459782,340.015157526373
738245.54454284033272415400,1.68635110527868,-1.45247759432763,340.212103640858
738245.54454293090384453535,1.88329721976379,-1.23091321553189,340.187485376548
738245.54454302147496491671,1.40324106570635,-2.90495518865525,340.027466658528
738245.54454311192966997623,1.23091321553189,-3.54503006073183,339.645883561714
738245.54454320250079035759,1.08320362966806,-3.61888485366375,339.793593147577
738245.54454329307191073895,1.08320362966806,-3.4588661356446,339.904375336975
738245.54454338352661579847,1.07089449751274,-3.38501134271269,340.002848394218
738245.54454347409773617983,1.05858536535742,-3.38501134271269,340.002848394218
738245.54454356466885656118,1.05858536535742,-3.40962960702333,340.015157526373
738245.54454365512356162071,1.0462762332021,-3.39732047486801,340.052084922839
738245.54454374569468200207,1.0462762332021,-3.36039307840205,340.027466658528
738245.54454383626580238342,1.03396710104678,-3.37270221055737,340.015157526373
738245.54454392672050744295,1.03396710104678,-3.37270221055737,340.089012319305
738245.54454401729162782431,1.03396710104678,-3.32346568193609,340.10132145146
738245.54454410786274820566,1.0462762332021,-3.32346568193609,340.10132145146
738245.54454419831745326519,1.05858536535742,-3.31115654978078,339.89206620482
738245.54454428888857364655,1.08320362966806,-3.29884741762546,340.052084922839
738245.54454437945969402790,1.07089449751274,-3.28653828547014,340.113630583616
738245.54454446991439908743,1.09551276182338,-3.28653828547014,340.07670318715
738245.54454456048551946878,1.1078218939787,-3.24961088900418,340.089012319305
738245.54454465105663985014,1.09551276182338,-3.21268349253822,340.015157526373
738245.54454474151134490967,1.13244015828934,-3.18806522822759,340.002848394218
738245.54454483208246529102,1.12013102613402,-3.15113783176163,340.039775790684
738245.54454492265358567238,1.12013102613402,-3.12651956745099,340.015157526373
738245.54454501310829073191,1.16936755475529,-3.0649739066744,340.039775790684
738245.54454510367941111326,1.18167668691061,-3.02804651020844,340.064394054994
738245.54454519425053149462,1.20629495122125,-2.99111911374248,340.064394054994
738245.54454528470523655415,1.23091321553189,-2.92957345296589,340.138248847926
738245.54454537527635693550,1.21860408337657,-2.89264605649993,340.138248847926
738245.54454546584747731686,1.24322234768721,-2.8680277921893,340.187485376548
738245.54454555630218237638,1.25553147984252,-2.84340952787866,340.175176244392
738245.54454564687330275774,1.24322234768721,-2.8680277921893,340.175176244392
738245.54454573744442313910,1.24322234768721,-2.91726432081057,340.150557980082
738245.54454582789912819862,1.21860408337657,-2.97880998158717,340.138248847926
738245.54454591847024857998,1.16936755475529,-3.07728303882972,340.113630583616
738245.54454600904136896133,1.14474929044465,-3.18806522822759,340.015157526373
738245.54454609949607402086,1.1078218939787,-3.28653828547014,340.039775790684
738245.54454619006719440222,1.08320362966806,-3.32346568193609,339.978230129907
738245.54454628063831478357,1.07089449751274,-3.34808394624673,339.842829676199
738245.54454637120943516493,1.0462762332021,-3.36039307840205,339.928993601286
738245.54454646166414022446,1.03396710104678,-3.40962960702333,339.965920997752
738245.54454655223526060581,1.03396710104678,-3.40962960702333,339.941302733441
738245.54454664280638098717,1.0462762332021,-3.42193873917865,340.002848394218
738245.54454673326108604670,1.03396710104678,-3.42193873917865,339.978230129907
738245.54454682383220642805,1.03396710104678,-3.40962960702333,340.015157526373
738245.54454691440332680941,1.00934883673615,-3.43424787133396,340.039775790684
738245.54454700485803186893,1.0462762332021,-3.42193873917865,339.978230129907
738245.54454709542915225029,1.0462762332021,-3.43424787133396,340.027466658528
738245.54454718600027263165,1.05858536535742,-3.44655700348928,340.039775790684
738245.54454727645497769117,1.03396710104678,-3.40962960702333,340.052084922839
738245.54454736702609807253,1.02165796889147,-3.40962960702333,340.052084922839
738245.54454745759721845388,1.0462762332021,-3.40962960702333,340.027466658528
738245.54454754805192351341,1.02165796889147,-3.40962960702333,340.027466658528
738245.54454763862304389477,1.02165796889147,-3.40962960702333,340.027466658528
738245.54454772919416427612,1.05858536535742,-3.42193873917865,340.039775790684
738245.54454781964886933565,1.0462762332021,-3.39732047486801,340.07670318715
738245.54454791021998971701,1.07089449751274,-3.39732047486801,339.978230129907
738245.54454800079111009836,1.09551276182338,-3.40962960702333,340.002848394218
738245.54454809124581515789,1.07089449751274,-3.43424787133396,339.990539262062
738245.54454818181693553925,1.07089449751274,-3.40962960702333,339.978230129907
738245.54454827238805592060,1.08320362966806,-3.37270221055737,340.015157526373
738245.54454836284276098013,1.1078218939787,-3.39732047486801,339.89206620482
738245.54454845341388136148,1.09551276182338,-3.38501134271269,339.904375336975
738245.54454854398500174284,1.08320362966806,-3.39732047486801,339.941302733441
738245.54454863443970680237,1.07089449751274,-3.39732047486801,339.904375336975
738245.54454872501082718372,1.0462762332021,-3.42193873917865,339.965920997752
738245.54454881558194756508,1.0462762332021,-3.42193873917865,339.978230129907
738245.54454890603665262461,1.07089449751274,-3.42193873917865,339.965920997752
738245.54454899660777300596,1.0462762332021,-3.43424787133396,339.941302733441
738245.54454908717889338732,0.984730572425509,-3.43424787133396,339.978230129907
738245.54454917763359844685,1.00934883673615,-3.44655700348928,340.002848394218
738245.54454926820471882820,0.984730572425509,-3.47117526779992,340.039775790684
738245.54454935877583920956,1.00934883673615,-3.44655700348928,340.002848394218
738245.54454944923054426908,0.997039704580828,-3.44655700348928,339.965920997752
738245.54454953980166465044,1.03396710104678,-3.42193873917865,339.928993601286
738245.54454963037278503180,1.03396710104678,-3.47117526779992,339.965920997752
738245.54454972082749009132,1.05858536535742,-3.44655700348928,339.928993601286
738245.54454981139861047268,1.14474929044465,-3.27422915331482,339.805902279733
738245.54454990196973085403,1.42785933001699,-2.49875382752973,339.990539262062
738245.54454999242443591356,1.72327850174464,-1.55095065157018,340.236721905169
738245.54455008299555629492,1.90791548407442,-1.26784061199784,340.162867112237
738245.54455017356667667627,1.39093193355103,-2.81879126356802,339.904375336975
738245.54455026402138173580,1.12013102613402,-3.72966704306162,339.744356618956
738245.54455035459250211716,1.05858536535742,-3.53272092857652,339.842829676199
738245.54455044516362249851,1.05858536535742,-3.48348439995524,339.916684469131
738245.54455053561832755804,1.05858536535742,-3.42193873917865,339.941302733441
738245.54455062618944793940,1.0462762332021,-3.40962960702333,340.002848394218
738245.54455071676056832075,1.00934883673615,-3.43424787133396,340.002848394218
738245.54455080721527338028,1.05858536535742,-3.42193873917865,340.015157526373
738245.54455089778639376163,1.05858536535742,-3.40962960702333,340.002848394218
738245.54455098835751414299,1.0462762332021,-3.40962960702333,339.978230129907
738245.54455107881221920252,1.05858536535742,-3.39732047486801,340.039775790684
738245.54455116938333958387,1.05858536535742,-3.38501134271269,340.064394054994
738245.54455125995445996523,1.05858536535742,-3.34808394624673,340.07670318715
738245.54455135040916502476,1.07089449751274,-3.36039307840205,340.089012319305
738245.54455144098028540611,1.07089449751274,-3.33577481409141,340.015157526373
738245.54455153155140578747,1.05858536535742,-3.34808394624673,340.10132145146
738245.54455162200611084700,1.07089449751274,-3.32346568193609,340.10132145146
738245.54455171257723122835,1.09551276182338,-3.24961088900418,340.07670318715
738245.54455180314835160971,1.08320362966806,-3.2619200211595,340.07670318715
738245.54455189360305666924,1.13244015828934,-3.22499262469354,340.10132145146
738245.54455198417417705059,1.12013102613402,-3.21268349253822,340.150557980082
738245.54455207474529743195,1.12013102613402,-3.15113783176163,340.113630583616
738245.54455216520000249147,1.15705842259997,-3.07728303882972,340.162867112237
738245.54455225577112287283,1.16936755475529,-3.05266477451908,340.175176244392
738245.54455234634224325418,1.20629495122125,-3.01573737805312,340.162867112237
738245.54455243679694831371,1.19398581906593,-3.0034282458978,340.162867112237
738245.54455252736806869507,1.19398581906593,-2.97880998158717,340.236721905169
738245.54455261793918907642,1.20629495122125,-2.92957345296589,340.273649301635
738245.54455270839389413595,1.19398581906593,-2.91726432081057,340.187485376548
738245.54455279896501451731,1.23091321553189,-2.90495518865525,340.199794508703
738245.54455288953613489866,1.19398581906593,-3.0034282458978,340.175176244392
738245.54455297999083995819,1.21860408337657,-3.05266477451908,340.015157526373
738245.54455307056196033955,1.15705842259997,-3.16344696391695,340.015157526373
738245.54455316113308072090,1.1078218939787,-3.24961088900418,340.07670318715
738245.54455325158778578043,1.0462762332021,-3.33577481409141,339.990539262062
738245.54455334215890616179,1.02165796889147,-3.40962960702333,339.830520544043
738245.54455343273002654314,1.05858536535742,-3.38501134271269,339.842829676199
738245.54455352318473160267,0.984730572425509,-3.43424787133396,339.941302733441
738245.54455361375585198402,0.997039704580828,-3.43424787133396,340.027466658528
738245.54455370432697236538,0.984730572425509,-3.49579353211056,339.904375336975
738245.54455379478167742491,0.997039704580828,-3.47117526779992,339.928993601286
738245.54455388535279780626,0.997039704580828,-3.44655700348928,339.990539262062
738245.54455397592391818762,0.960112308114872,-3.48348439995524,340.07670318715
738245.54455406637862324715,1.02165796889147,-3.44655700348928,339.928993601286
738245.54455415694974362850,0.984730572425509,-3.44655700348928,339.953611865596
738245.54455424752086400986,0.960112308114872,-3.47117526779992,339.978230129907
738245.54455433797556906939,0.960112308114872,-3.47117526779992,340.002848394218
738245.54455442854668945074,0.947803175959553,-3.43424787133396,339.978230129907
738245.54455451911780983210,0.947803175959553,-3.44655700348928,339.916684469131
738245.54455460957251489162,0.960112308114872,-3.50810266426588,339.867447940509
738245.54455470014363527298,1.03396710104678,-3.42193873917865,339.867447940509
738245.54455479071475565434,1.00934883673615,-3.42193873917865,339.916684469131
738245.54455488116946071386,1.00934883673615,-3.43424787133396,339.916684469131
738245.54455497174058109522,1.0462762332021,-3.36039307840205,339.978230129907
738245.54455506231170147657,0.923184911648915,-3.44655700348928,339.953611865596
738245.54455515276640653610,1.02165796889147,-3.4588661356446,339.941302733441
738245.54455524333752691746,1.02165796889147,-3.39732047486801,339.965920997752
738245.54455533390864729881,0.997039704580828,-3.4588661356446,339.978230129907
738245.54455542436335235834,0.923184911648915,-3.4588661356446,339.978230129907
738245.54455551493447273970,0.947803175959553,-3.40962960702333,339.941302733441
738245.54455560550559312105,1.02165796889147,-3.40962960702333,340.027466658528
738245.54455569596029818058,1.08320362966806,-3.29884741762546,340.113630583616
738245.54455578653141856194,1.0462762332021,-3.38501134271269,340.064394054994
738245.54455587710253894329,0.960112308114872,-3.43424787133396,340.039775790684
738245.54455596755724400282,0.923184911648915,-3.47117526779992,340.10132145146
738245.54455605812836438417,0.87394838302764,-3.4588661356446,340.064394054994
738245.54455614869948476553,0.87394838302764,-3.48348439995524,340.015157526373
738245.54455623915418982506,0.861639250872321,-3.44655700348928,340.10132145146
738245.54455632972531020641,0.76316619362977,-3.49579353211056,340.10132145146
738245.54455642029643058777,0.849330118717002,-3.43424787133396,340.039775790684
738245.54455651075113564730,0.837020986561683,-3.43424787133396,339.941302733441
738245.54455660132225602865,0.849330118717002,-3.49579353211056,340.052084922839
738245.54455669189337641001,0.861639250872321,-3.44655700348928,340.064394054994
738245.54455678234808146954,1.07089449751274,-3.15113783176163,340.07670318715
738245.54455687291920185089,1.32938627277444,-2.31411684519995,340.162867112237
738245.54455696349032223225,1.63711457665741,-1.46478672648295,340.273649301635
738245.54455705394502729177,1.68635110527868,-1.46478672648295,340.212103640858
738245.54455714451614767313,1.15705842259997,-3.0649739066744,339.768974883267
738245.54455723508726805449,0.935494043804234,-3.61888485366375,339.744356618956
738245.54455732554197311401,0.886257515182958,-3.49579353211056,339.990539262062
738245.54455741611309349537,0.837020986561683,-3.42193873917865,339.965920997752
738245.54455750668421387672,0.800093590095726,-3.43424787133396,339.941302733441
738245.54455759713891893625,0.812402722251045,-3.43424787133396,339.978230129907
738245.54455768771003931761,0.738547929319132,-3.4588661356446,339.965920997752
738245.54455777828115969896,0.775475325785089,-3.40962960702333,339.928993601286
738245.54455786873586475849,0.800093590095726,-3.44655700348928,339.941302733441
738245.54455795930698513985,0.800093590095726,-3.39732047486801,339.978230129907
738245.54455804987810552120,0.787784457940408,-3.39732047486801,339.941302733441
738245.54455814033281058073,0.775475325785089,-3.38501134271269,339.953611865596
738245.54455823090393096209,0.775475325785089,-3.37270221055737,339.953611865596
738245.54455832147505134344,0.800093590095726,-3.34808394624673,339.953611865596
738245.54455841192975640297,0.787784457940408,-3.34808394624673,339.978230129907
738245.54455850250087678432,0.812402722251045,-3.33577481409141,340.002848394218
738245.54455859307199716568,0.824711854406364,-3.33577481409141,340.015157526373
738245.54455868352670222521,0.824711854406364,-3.31115654978078,340.052084922839
738245.54455877409782260656,0.812402722251045,-3.28653828547014,340.07670318715
738245.54455886466894298792,0.787784457940408,-3.27422915331482,340.052084922839
738245.54455895512364804745,0.812402722251045,-3.21268349253822,340.125939715771
738245.54455904569476842880,0.861639250872321,-3.11421043529567,340.138248847926
738245.54455913626588881016,0.849330118717002,-3.07728303882972,340.07670318715
738245.54455922672059386969,0.837020986561683,-3.02804651020844,340.039775790684
738245.54455931729171425104,0.886257515182958,-2.96650084943185,340.07670318715
738245.54455940786283463240,0.812402722251045,-2.96650084943185,340.064394054994
738245.54455949831753969193,0.787784457940408,-2.94188258512121,340.175176244392
738245.54455958888866007328,0.849330118717002,-2.90495518865525,340.224412773014
738245.54455967945978045464,0.812402722251045,-2.94188258512121,340.224412773014
738245.54455976991448551416,0.775475325785089,-2.94188258512121,340.175176244392
738245.54455986048560589552,0.726238797163813,-3.05266477451908,340.162867112237
738245.54455995105672627687,0.701620532853175,-3.13882869960631,340.138248847926
738245.54456004151143133640,0.701620532853175,-3.18806522822759,340.10132145146
738245.54456013208255171776,0.701620532853175,-3.20037436038291,340.052084922839
738245.54456022265367209911,0.615456607765943,-3.34808394624673,340.113630583616
738245.54456031310837715864,0.603147475610625,-3.38501134271269,340.052084922839
738245.54456040367949754000,0.615456607765943,-3.40962960702333,339.965920997752
738245.54456049425061792135,0.627765739921262,-3.43424787133396,339.842829676199
738245.54456058470532298088,0.553910946989349,-3.48348439995524,339.941302733441
738245.54456067527644336224,0.553910946989349,-3.48348439995524,340.064394054994
738245.54456076584756374359,0.640074872076581,-3.40962960702333,339.990539262062
738245.54456085630226880312,0.627765739921262,-3.42193873917865,339.965920997752
738245.54456094687338918447,0.640074872076581,-3.40962960702333,339.978230129907
738245.54456103744450956583,0.603147475610625,-3.4588661356446,340.002848394218
738245.54456112789921462536,0.627765739921262,-3.48348439995524,340.015157526373
738245.54456121847033500671,0.615456607765943,-3.49579353211056,339.89206620482
738245.54456130904145538807,0.6523840042319,-3.4588661356446,339.941302733441
738245.54456139949616044760,0.627765739921262,-3.47117526779992,339.953611865596
738245.54456149006728082895,0.664693136387219,-3.44655700348928,339.941302733441
738245.54456158063840121031,0.664693136387219,-3.44655700348928,339.990539262062
738245.54456167109310626984,0.6523840042319,-3.47117526779992,339.990539262062
738245.54456176166422665119,0.664693136387219,-3.48348439995524,340.002848394218
738245.54456185223534703255,0.677002268542538,-3.48348439995524,340.015157526373
738245.54456194280646741390,0.664693136387219,-3.47117526779992,339.916684469131
738245.54456203326117247343,0.689311400697857,-3.43424787133396,339.965920997752
738245.54456212383229285479,0.701620532853175,-3.42193873917865,340.015157526373
738245.54456221440341323614,0.701620532853175,-3.43424787133396,339.965920997752
738245.54456230485811829567,0.738547929319132,-3.39732047486801,339.916684469131
738245.54456239542923867702,0.701620532853175,-3.39732047486801,339.867447940509
738245.54456248600035905838,0.664693136387219,-3.40962960702333,340.015157526373
738245.54456257645506411791,0.627765739921262,-3.43424787133396,340.015157526373
738245.54456266702618449926,0.627765739921262,-3.43424787133396,339.978230129907
738245.54456275759730488062,0.603147475610625,-3.43424787133396,339.978230129907
738245.54456284805200994015,0.578529211299987,-3.43424787133396,340.039775790684
738245.54456293862313032150,0.566220079144668,-3.4588661356446,340.027466658528
738245.54456302919425070286,0.578529211299987,-3.4588661356446,339.965920997752
738245.54456311964895576239,0.54160181483403,-3.48348439995524,340.052084922839
738245.54456321022007614374,0.578529211299987,-3.44655700348928,340.039775790684
738245.54456330079119652510,0.553910946989349,-3.4588661356446,339.953611865596
738245.54456339124590158463,0.590838343455306,-3.43424787133396,340.027466658528
738245.54456348181702196598,0.578529211299987,-3.47117526779992,339.990539262062
738245.54456357238814234734,0.701620532853175,-3.33577481409141,339.953611865596
738245.54456366284284740686,0.960112308114872,-2.65877254554888,340.015157526373
738245.54456375341396778822,1.15705842259997,-2.14178899502548,340.138248847926
738245.54456384398508816957,1.53864151941486,-1.36631366924039,340.224412773014
738245.54456393443979322910,1.5632597837255,-1.55095065157018,340.064394054994
738245.54456402501091361046,0.960112308114872,-3.21268349253822,339.572028768782
738245.54456411558203399181,0.713929665008494,-3.63119398581907,339.805902279733
738245.54456420603673905134,0.701620532853175,-3.4588661356446,339.953611865596
738245.54456429660785943270,0.677002268542538,-3.42193873917865,339.941302733441
738245.54456438717897981405,0.640074872076581,-3.42193873917865,340.015157526373
738245.54456447763368487358,0.627765739921262,-3.43424787133396,340.027466658528
738245.54456456820480525494,0.627765739921262,-3.42193873917865,339.953611865596
738245.54456465877592563629,0.627765739921262,-3.40962960702333,340.027466658528
738245.54456474923063069582,0.640074872076581,-3.40962960702333,340.089012319305
738245.54456483980175107718,0.640074872076581,-3.39732047486801,340.064394054994
738245.54456493037287145853,0.640074872076581,-3.38501134271269,340.015157526373
738245.54456502082757651806,0.640074872076581,-3.37270221055737,340.064394054994
738245.54456511139869689941,0.640074872076581,-3.37270221055737,340.052084922839
738245.54456520196981728077,0.640074872076581,-3.37270221055737,339.990539262062
738245.54456529242452234030,0.664693136387219,-3.34808394624673,339.978230129907
738245.54456538299564272165,0.677002268542538,-3.31115654978078,339.916684469131
738245.54456547356676310301,0.689311400697857,-3.31115654978078,339.953611865596
738245.54456556402146816254,0.689311400697857,-3.29884741762546,339.990539262062
738245.54456565459258854389,0.701620532853175,-3.27422915331482,339.965920997752
738245.54456574516370892525,0.701620532853175,-3.23730175684886,340.015157526373
738245.54456583561841398478,0.713929665008494,-3.21268349253822,340.039775790684
738245.54456592618953436613,0.726238797163813,-3.18806522822759,340.052084922839
738245.54456601676065474749,0.750857061474451,-3.13882869960631,340.052084922839
738245.54456610721535980701,0.76316619362977,-3.10190130314035,340.07670318715
738245.54456619778648018837,0.76316619362977,-3.0649739066744,340.125939715771
738245.54456628835760056973,0.800093590095726,-3.01573737805312,340.175176244392
738245.54456637881230562925,0.800093590095726,-3.01573737805312,340.089012319305
738245.54456646938342601061,0.812402722251045,-3.0034282458978,340.10132145146
738245.54456655995454639196,0.824711854406364,-3.0034282458978,340.052084922839
738245.54456665040925145149,0.812402722251045,-3.04035564236376,340.027466658528
738245.54456674098037183285,0.787784457940408,-3.11421043529567,340.015157526373
738245.54456683155149221420,0.775475325785089,-3.18806522822759,339.916684469131
738245.54456692200619727373,0.726238797163813,-3.2619200211595,340.015157526373
738245.54456701257731765509,0.701620532853175,-3.31115654978078,339.990539262062
738245.54456710314843803644,0.689311400697857,-3.36039307840205,339.904375336975
738245.54456719360314309597,0.677002268542538,-3.38501134271269,339.904375336975
738245.54456728417426347733,0.664693136387219,-3.40962960702333,339.904375336975
738245.54456737474538385868,0.677002268542538,-3.42193873917865,339.904375336975
738245.54456746520008891821,0.664693136387219,-3.42193873917865,339.842829676199
738245.54456755577120929956,0.677002268542538,-3.39732047486801,339.756665751111
738245.54456764634232968092,0.677002268542538,-3.40962960702333,339.916684469131
738245.54456773679703474045,0.689311400697857,-3.40962960702333,339.953611865596
738245.54456782736815512180,0.689311400697857,-3.40962960702333,339.965920997752
738245.54456791793927550316,0.677002268542538,-3.40962960702333,340.015157526373
738245.54456800839398056269,0.677002268542538,-3.40962960702333,339.953611865596
738245.54456809896510094404,0.677002268542538,-3.40962960702333,339.990539262062
738245.54456818953622132540,0.677002268542538,-3.42193873917865,340.015157526373
738245.54456827999092638493,0.677002268542538,-3.42193873917865,340.002848394218
738245.54456837056204676628,0.689311400697857,-3.42193873917865,339.941302733441
738245.54456846113316714764,0.689311400697857,-3.40962960702333,340.015157526373
738245.54456855158787220716,0.689311400697857,-3.40962960702333,340.015157526373
738245.54456864215899258852,0.701620532853175,-3.40962960702333,339.928993601286
738245.54456873273011296988,0.701620532853175,-3.40962960702333,340.015157526373
738245.54456882318481802940,0.713929665008494,-3.42193873917865,339.990539262062
738245.54456891375593841076,0.713929665008494,-3.40962960702333,339.916684469131
738245.54456900432705879211,0.701620532853175,-3.43424787133396,339.978230129907
738245.54456909478176385164,0.713929665008494,-3.43424787133396,339.978230129907
738245.54456918535288423300,0.738547929319132,-3.42193873917865,339.941302733441
738245.54456927592400461435,0.750857061474451,-3.39732047486801,339.904375336975
738245.54456936637870967388,0.76316619362977,-3.39732047486801,339.941302733441
738245.54456945694983005524,0.76316619362977,-3.42193873917865,339.953611865596
738245.54456954752095043659,0.76316619362977,-3.39732047486801,339.928993601286
738245.54456963797565549612,0.738547929319132,-3.39732047486801,340.002848394218
738245.54456972854677587748,0.713929665008494,-3.42193873917865,339.89206620482
738245.54456981911789625883,0.701620532853175,-3.43424787133396,339.928993601286
738245.54456990957260131836,0.701620532853175,-3.43424787133396,339.941302733441
738245.54457000014372169971,0.689311400697857,-3.44655700348928,339.965920997752
738245.54457009071484208107,0.677002268542538,-3.44655700348928,340.027466658528
738245.54457018116954714060,0.701620532853175,-3.44655700348928,339.990539262062
738245.54457027174066752195,0.701620532853175,-3.44655700348928,339.904375336975
738245.54457036231178790331,0.677002268542538,-3.44655700348928,340.015157526373
738245.54457045276649296284,0.677002268542538,-3.4588661356446,340.027466658528
738245.54457054333761334419,0.689311400697857,-3.44655700348928,339.978230129907
738245.54457063390873372555,0.677002268542538,-3.4588661356446,339.89206620482
738245.54457072436343878508,0.701620532853175,-3.43424787133396,339.978230129907
738245.54457081493455916643,0.861639250872321,-3.23730175684886,340.002848394218
738245.54457090550567954779,1.29245887630848,-2.3510442416659,340.089012319305
738245.54457099596038460732,1.67404197312337,-1.52633238725954,339.941302733441
738245.54457108653150498867,1.85867895545315,-1.42785933001699,339.953611865596
738245.54457117710262537003,1.52633238725954,-2.06793420209357,339.953611865596
738245.54457126755733042955,0.960112308114872,-3.49579353211056,339.695120090335
738245.54457135812845081091,0.837020986561683,-3.4588661356446,339.842829676199
738245.54457144869957119226,0.787784457940408,-3.44655700348928,339.916684469131
738245.54457153915427625179,0.738547929319132,-3.42193873917865,339.990539262062
738245.54457162972539663315,0.726238797163813,-3.43424787133396,340.002848394218
738245.54457172029651701450,0.726238797163813,-3.43424787133396,339.916684469131
738245.54457181075122207403,0.726238797163813,-3.43424787133396,339.978230129907
738245.54457190132234245539,0.713929665008494,-3.43424787133396,340.015157526373
738245.54457199189346283674,0.713929665008494,-3.42193873917865,339.990539262062
738245.54457208234816789627,0.726238797163813,-3.40962960702333,339.916684469131
738245.54457217291928827763,0.726238797163813,-3.40962960702333,339.941302733441
738245.54457226349040865898,0.738547929319132,-3.39732047486801,339.928993601286
738245.54457235394511371851,0.750857061474451,-3.38501134271269,339.89206620482
738245.54457244451623409986,0.750857061474451,-3.38501134271269,339.941302733441
738245.54457253508735448122,0.750857061474451,-3.38501134271269,339.953611865596
738245.54457262554205954075,0.750857061474451,-3.36039307840205,339.928993601286
738245.54457271611317992210,0.775475325785089,-3.34808394624673,339.978230129907
738245.54457280668430030346,0.787784457940408,-3.33577481409141,340.052084922839
738245.54457289713900536299,0.787784457940408,-3.31115654978078,340.039775790684
738245.54457298771012574434,0.812402722251045,-3.2619200211595,340.064394054994
738245.54457307828124612570,0.812402722251045,-3.24961088900418,340.113630583616
738245.54457316873595118523,0.824711854406364,-3.22499262469354,340.10132145146
738245.54457325930707156658,0.849330118717002,-3.20037436038291,340.064394054994
738245.54457334987819194794,0.849330118717002,-3.16344696391695,340.150557980082
738245.54457344033289700747,0.87394838302764,-3.13882869960631,340.175176244392
738245.54457353090401738882,0.87394838302764,-3.11421043529567,340.10132145146
738245.54457362147513777018,0.886257515182958,-3.08959217098504,340.125939715771
738245.54457371192984282970,0.898566647338277,-3.08959217098504,340.175176244392
738245.54457380250096321106,0.923184911648915,-3.07728303882972,340.113630583616
738245.54457389307208359241,0.935494043804234,-3.11421043529567,340.125939715771
738245.54457398352678865194,0.898566647338277,-3.17575609607227,340.027466658528
738245.54457407409790903330,0.861639250872321,-3.23730175684886,340.052084922839
738245.54457416466902941465,0.837020986561683,-3.28653828547014,340.07670318715
738245.54457425512373447418,0.812402722251045,-3.33577481409141,340.015157526373
738245.54457434569485485554,0.787784457940408,-3.37270221055737,340.027466658528
738245.54457443626597523689,0.787784457940408,-3.39732047486801,340.027466658528
738245.54457452672068029642,0.775475325785089,-3.42193873917865,339.732047486801
738245.54457461729180067778,0.775475325785089,-3.42193873917865,339.89206620482
738245.54457470786292105913,0.775475325785089,-3.42193873917865,339.904375336975
738245.54457479831762611866,0.76316619362977,-3.43424787133396,339.89206620482
738245.54457488888874650002,0.787784457940408,-3.43424787133396,339.89206620482
738245.54457497945986688137,0.787784457940408,-3.43424787133396,339.916684469131
738245.54457506991457194090,0.787784457940408,-3.42193873917865,339.953611865596
738245.54457516048569232225,0.787784457940408,-3.43424787133396,339.953611865596
738245.54457525105681270361,0.812402722251045,-3.43424787133396,339.965920997752
738245.54457534151151776314,0.775475325785089,-3.44655700348928,339.990539262062
738245.54457543208263814449,0.787784457940408,-3.44655700348928,339.928993601286
738245.54457552265375852585,0.812402722251045,-3.43424787133396,339.965920997752
738245.54457561310846358538,0.800093590095726,-3.43424787133396,339.941302733441
738245.54457570367958396673,0.787784457940408,-3.44655700348928,339.965920997752
738245.54457579425070434809,0.787784457940408,-3.43424787133396,339.89206620482
738245.54457588470540940762,0.812402722251045,-3.43424787133396,339.904375336975
738245.54457597527652978897,0.800093590095726,-3.44655700348928,339.928993601286
738245.54457606584765017033,0.824711854406364,-3.43424787133396,339.879757072665
738245.54457615630235522985,0.800093590095726,-3.43424787133396,339.867447940509
738245.54457624687347561121,0.76316619362977,-3.44655700348928,339.916684469131
738245.54457633744459599257,0.787784457940408,-3.44655700348928,339.928993601286
738245.54457642789930105209,0.800093590095726,-3.4588661356446,339.978230129907
738245.54457651847042143345,0.800093590095726,-3.4588661356446,339.978230129907
738245.54457660904154181480,0.812402722251045,-3.44655700348928,340.015157526373
738245.54457669949624687433,0.837020986561683,-3.44655700348928,339.965920997752
738245.54457679006736725569,0.800093590095726,-3.4588661356446,339.89206620482
738245.54457688063848763704,0.824711854406364,-3.4588661356446,339.978230129907
738245.54457697109319269657,0.837020986561683,-3.44655700348928,339.990539262062
738245.54457706166431307793,0.87394838302764,-3.42193873917865,339.990539262062
738245.54457715223543345928,0.861639250872321,-3.43424787133396,339.978230129907
738245.54457724269013851881,0.849330118717002,-3.42193873917865,340.015157526373
738245.54457733326125890017,0.812402722251045,-3.42193873917865,340.015157526373
738245.54457742383237928152,0.812402722251045,-3.4588661356446,339.953611865596
738245.54457751428708434105,0.800093590095726,-3.44655700348928,340.002848394218
738245.54457760485820472240,0.800093590095726,-3.44655700348928,340.064394054994
738245.54457769542932510376,0.787784457940408,-3.4588661356446,339.941302733441
738245.54457778600044548512,0.812402722251045,-3.44655700348928,339.904375336975
738245.54457787645515054464,0.775475325785089,-3.44655700348928,340.052084922839
738245.54457796702627092600,0.787784457940408,-3.4588661356446,340.015157526373
738245.54457805759739130735,0.787784457940408,-3.4588661356446,339.855138808354
738245.54457814805209636688,0.787784457940408,-3.4588661356446,339.904375336975
738245.54457823862321674824,0.787784457940408,-3.47117526779992,340.027466658528
738245.54457832919433712959,0.787784457940408,-3.4588661356446,340.052084922839
738245.54457841964904218912,0.800093590095726,-3.44655700348928,339.941302733441
738245.54457851022016257048,0.935494043804234,-3.27422915331482,340.052084922839
738245.54457860079128295183,1.3047680084638,-2.49875382752973,340.039775790684
738245.54457869124598801136,1.52633238725954,-2.01869767347229,340.113630583616
738245.54457878181710839272,1.89560635191911,-1.40324106570635,340.027466658528
738245.54457887238822877407,1.71096936958932,-1.98177027700634,339.879757072665
738245.54457896284293383360,1.09551276182338,-3.44655700348928,339.682810958179
738245.54457905341405421495,0.923184911648915,-3.49579353211056,339.855138808354
738245.54457914398517459631,0.886257515182958,-3.4588661356446,339.89206620482
738245.54457923443987965584,0.849330118717002,-3.43424787133396,339.916684469131
738245.54457932501100003719,0.849330118717002,-3.42193873917865,340.002848394218
738245.54457941558212041855,0.837020986561683,-3.43424787133396,339.953611865596
738245.54457950603682547808,0.800093590095726,-3.44655700348928,339.978230129907
738245.54457959660794585943,0.837020986561683,-3.42193873917865,340.002848394218
738245.54457968717906624079,0.837020986561683,-3.40962960702333,339.990539262062
738245.54457977763377130032,0.837020986561683,-3.40962960702333,340.027466658528
738245.54457986820489168167,0.824711854406364,-3.40962960702333,340.027466658528
738245.54457995877601206303,0.837020986561683,-3.39732047486801,340.064394054994
738245.54458004923071712255,0.824711854406364,-3.39732047486801,340.10132145146
738245.54458013980183750391,0.849330118717002,-3.37270221055737,339.928993601286
738245.54458023037295788527,0.849330118717002,-3.37270221055737,340.064394054994
738245.54458032082766294479,0.849330118717002,-3.36039307840205,340.07670318715
738245.54458041139878332615,0.87394838302764,-3.33577481409141,340.064394054994
738245.54458050196990370750,0.886257515182958,-3.31115654978078,339.990539262062
738245.54458059242460876703,0.898566647338277,-3.31115654978078,340.015157526373
738245.54458068299572914839,0.910875779493596,-3.28653828547014,340.002848394218
738245.54458077356684952974,0.910875779493596,-3.24961088900418,340.002848394218
738245.54458086402155458927,0.923184911648915,-3.22499262469354,340.027466658528
738245.54458095459267497063,0.935494043804234,-3.18806522822759,340.052084922839
738245.54458104516379535198,0.947803175959553,-3.15113783176163,340.07670318715
738245.54458113561850041151,0.947803175959553,-3.11421043529567,340.039775790684
738245.54458122618962079287,0.984730572425509,-3.08959217098504,340.150557980082
738245.54458131676074117422,0.997039704580828,-3.0649739066744,340.212103640858
738245.54458140721544623375,1.00934883673615,-3.05266477451908,340.113630583616
738245.54458149778656661510,1.02165796889147,-3.0649739066744,340.138248847926
738245.54458158835768699646,1.02165796889147,-3.07728303882972,340.015157526373
738245.54458167881239205599,1.02165796889147,-3.13882869960631,339.941302733441
738245.54458176938351243734,0.984730572425509,-3.21268349253822,340.039775790684
738245.54458185995463281870,0.960112308114872,-3.2619200211595,340.064394054994
738245.54458195040933787823,0.935494043804234,-3.32346568193609,340.039775790684
738245.54458204098045825958,0.898566647338277,-3.36039307840205,340.052084922839
738245.54458213155157864094,0.886257515182958,-3.38501134271269,340.015157526373
738245.54458222200628370047,0.87394838302764,-3.40962960702333,340.052084922839
738245.54458231257740408182,0.87394838302764,-3.40962960702333,340.052084922839
738245.54458240314852446318,0.87394838302764,-3.40962960702333,340.07670318715
738245.54458249360322952271,0.87394838302764,-3.40962960702333,339.978230129907
738245.54458258417434990406,0.886257515182958,-3.42193873917865,340.052084922839
738245.54458267474547028542,0.886257515182958,-3.40962960702333,340.002848394218
738245.54458276520017534494,0.886257515182958,-3.42193873917865,339.953611865596
738245.54458285577129572630,0.886257515182958,-3.40962960702333,339.990539262062
738245.54458294634241610765,0.898566647338277,-3.42193873917865,339.953611865596
738245.54458303679712116718,0.886257515182958,-3.42193873917865,339.978230129907
738245.54458312736824154854,0.886257515182958,-3.42193873917865,339.953611865596
738245.54458321793936192989,0.886257515182958,-3.42193873917865,339.953611865596
738245.54458330839406698942,0.886257515182958,-3.42193873917865,339.953611865596
738245.54458339896518737078,0.898566647338277,-3.42193873917865,339.990539262062
738245.54458348953630775213,0.886257515182958,-3.42193873917865,339.916684469131
738245.54458357999101281166,0.886257515182958,-3.43424787133396,339.990539262062
738245.54458367056213319302,0.898566647338277,-3.40962960702333,339.978230129907
738245.54458376113325357437,0.886257515182958,-3.42193873917865,340.002848394218
738245.54458385158795863390,0.898566647338277,-3.42193873917865,340.015157526373
738245.54458394215907901525,0.886257515182958,-3.42193873917865,340.002848394218
738245.54458403273019939661,0.898566647338277,-3.42193873917865,339.965920997752
738245.54458412318490445614,0.898566647338277,-3.43424787133396,339.953611865596
738245.54458421375602483749,0.886257515182958,-3.43424787133396,339.978230129907
738245.54458430432714521885,0.886257515182958,-3.44655700348928,339.941302733441
738245.54458439478185027838,0.898566647338277,-3.43424787133396,339.990539262062
738245.54458448535297065973,0.898566647338277,-3.44655700348928,339.965920997752
738245.54458457592409104109,0.886257515182958,-3.4588661356446,339.990539262062
738245.54458466637879610062,0.886257515182958,-3.44655700348928,339.928993601286
738245.54458475694991648197,0.898566647338277,-3.44655700348928,339.990539262062
738245.54458484752103686333,0.898566647338277,-3.43424787133396,339.953611865596
738245.54458493797574192286,0.886257515182958,-3.44655700348928,340.027466658528
738245.54458502854686230421,0.886257515182958,-3.44655700348928,340.039775790684
738245.54458511911798268557,0.886257515182958,-3.44655700348928,339.855138808354
738245.54458520957268774509,0.898566647338277,-3.44655700348928,339.867447940509
738245.54458530014380812645,0.886257515182958,-3.4588661356446,339.916684469131
738245.54458539071492850780,0.886257515182958,-3.44655700348928,339.904375336975
738245.54458548116963356733,0.898566647338277,-3.4588661356446,339.916684469131
738245.54458557174075394869,0.898566647338277,-3.4588661356446,339.89206620482
738245.54458566231187433004,0.898566647338277,-3.47117526779992,339.916684469131
738245.54458575276657938957,0.910875779493596,-3.48348439995524,339.953611865596
738245.54458584333769977093,0.910875779493596,-3.47117526779992,340.002848394218
738245.54458593390882015228,0.923184911648915,-3.44655700348928,339.965920997752
738245.54458602436352521181,0.960112308114872,-3.42193873917865,339.953611865596
738245.54458611493464559317,0.960112308114872,-3.42193873917865,339.965920997752
738245.54458620550576597452,0.947803175959553,-3.43424787133396,340.002848394218
738245.54458629596047103405,0.935494043804234,-3.42193873917865,339.953611865596
738245.54458638653159141541,0.935494043804234,-3.43424787133396,340.002848394218
738245.54458647710271179676,0.923184911648915,-3.44655700348928,340.027466658528
738245.54458656755741685629,0.910875779493596,-3.4588661356446,340.039775790684
738245.54458665812853723764,0.898566647338277,-3.47117526779992,339.990539262062
738245.54458674869965761900,0.910875779493596,-3.44655700348928,340.052084922839
738245.54458683915436267853,0.910875779493596,-3.44655700348928,340.039775790684
738245.54458692972548305988,0.898566647338277,-3.4588661356446,339.990539262062
738245.54458702029660344124,0.898566647338277,-3.47117526779992,340.002848394218
738245.54458711075130850077,0.898566647338277,-3.47117526779992,339.904375336975
738245.54458720132242888212,0.898566647338277,-3.4588661356446,339.941302733441
738245.54458729189354926348,0.910875779493596,-3.4588661356446,339.916684469131
738245.54458738234825432301,0.898566647338277,-3.4588661356446,339.941302733441
738245.54458747291937470436,0.910875779493596,-3.4588661356446,339.941302733441
738245.54458756349049508572,1.03396710104678,-3.36039307840205,339.953611865596
738245.54458765394520014524,1.36631366924039,-2.67108167770419,340.039775790684
738245.54458774451632052660,1.7602058982106,-1.74789676605528,340.113630583616
738245.54458783508744090796,2.09255246640421,-1.37862280139571,340.039775790684
738245.54458792554214596748,1.57556891588082,-2.53568122399569,339.756665751111
738245.54458801611326634884,1.1078218939787,-3.60657572150843,339.633574429558
738245.54458810668438673019,1.0462762332021,-3.53272092857652,339.818211411888
738245.54458819713909178972,1.02165796889147,-3.4588661356446,339.842829676199
738245.54458828771021217108,0.997039704580828,-3.44655700348928,339.916684469131
738245.54458837828133255243,0.972421440270191,-3.43424787133396,340.002848394218
738245.54458846873603761196,0.960112308114872,-3.44655700348928,339.990539262062
738245.54458855930715799332,0.947803175959553,-3.44655700348928,340.015157526373
738245.54458864987827837467,0.923184911648915,-3.44655700348928,339.941302733441
738245.54458874033298343420,0.947803175959553,-3.43424787133396,339.879757072665
738245.54458883090410381556,0.947803175959553,-3.42193873917865,339.941302733441
738245.54458892147522419691,0.947803175959553,-3.40962960702333,339.904375336975
738245.54458901192992925644,0.960112308114872,-3.39732047486801,339.941302733441
738245.54458910250104963779,0.960112308114872,-3.39732047486801,339.904375336975
738245.54458919307217001915,0.960112308114872,-3.38501134271269,339.941302733441
738245.54458928352687507868,0.972421440270191,-3.38501134271269,339.978230129907
738245.54458937409799546003,0.984730572425509,-3.37270221055737,339.965920997752
738245.54458946466911584139,0.997039704580828,-3.34808394624673,340.027466658528
738245.54458955512382090092,0.997039704580828,-3.33577481409141,340.064394054994
738245.54458964569494128227,1.00934883673615,-3.31115654978078,340.015157526373
738245.54458973626606166363,1.00934883673615,-3.28653828547014,340.10132145146
738245.54458982672076672316,1.02165796889147,-3.2619200211595,340.089012319305
738245.54458991729188710451,1.03396710104678,-3.23730175684886,340.10132145146
738245.54459000786300748587,1.0462762332021,-3.22499262469354,340.089012319305
738245.54459009831771254539,1.07089449751274,-3.18806522822759,340.138248847926
738245.54459018888883292675,1.07089449751274,-3.15113783176163,340.162867112237
738245.54459027945995330811,1.08320362966806,-3.11421043529567,340.113630583616
738245.54459036991465836763,1.09551276182338,-3.08959217098504,340.175176244392
738245.54459046048577874899,1.09551276182338,-3.08959217098504,340.187485376548
738245.54459055105689913034,1.1078218939787,-3.07728303882972,340.039775790684
738245.54459064151160418987,1.12013102613402,-3.07728303882972,340.150557980082
738245.54459073208272457123,1.13244015828934,-3.11421043529567,340.150557980082
738245.54459082265384495258,1.09551276182338,-3.16344696391695,340.064394054994
738245.54459091310855001211,1.07089449751274,-3.23730175684886,339.965920997752
738245.54459100367967039347,1.0462762332021,-3.28653828547014,340.039775790684
738245.54459109425079077482,1.00934883673615,-3.36039307840205,340.052084922839
738245.54459118470549583435,0.997039704580828,-3.38501134271269,339.978230129907
738245.54459127527661621571,0.997039704580828,-3.42193873917865,339.990539262062
738245.54459136584773659706,0.997039704580828,-3.42193873917865,339.89206620482
738245.54459145630244165659,0.972421440270191,-3.43424787133396,339.916684469131
738245.54459154687356203794,0.972421440270191,-3.44655700348928,339.978230129907
738245.54459163744468241930,0.972421440270191,-3.44655700348928,339.916684469131
738245.54459172789938747883,0.960112308114872,-3.44655700348928,339.928993601286
738245.54459181847050786018,0.947803175959553,-3.44655700348928,339.941302733441
738245.54459190904162824154,0.972421440270191,-3.44655700348928,339.990539262062
738245.54459199949633330107,0.984730572425509,-3.43424787133396,339.941302733441
738245.54459209006745368242,0.984730572425509,-3.44655700348928,339.89206620482
738245.54459218063857406378,0.972421440270191,-3.4588661356446,339.928993601286
738245.54459227109327912331,0.972421440270191,-3.44655700348928,339.842829676199
738245.54459236166439950466,0.972421440270191,-3.44655700348928,339.990539262062
738245.54459245223551988602,0.984730572425509,-3.44655700348928,339.978230129907
738245.54459254269022494555,0.972421440270191,-3.44655700348928,339.941302733441
738245.54459263326134532690,0.972421440270191,-3.44655700348928,339.953611865596
738245.54459272383246570826,0.984730572425509,-3.43424787133396,339.953611865596
738245.54459281428717076778,0.972421440270191,-3.44655700348928,339.990539262062
738245.54459290485829114914,0.972421440270191,-3.44655700348928,340.052084922839
738245.54459299542941153049,0.972421440270191,-3.4588661356446,339.916684469131
738245.54459308588411659002,0.972421440270191,-3.4588661356446,340.015157526373
738245.54459317645523697138,0.960112308114872,-3.4588661356446,340.002848394218
738245.54459326702635735273,0.960112308114872,-3.4588661356446,339.89206620482
738245.54459335759747773409,0.984730572425509,-3.4588661356446,339.965920997752
738245.54459344805218279362,0.972421440270191,-3.47117526779992,339.953611865596
738245.54459353862330317497,0.972421440270191,-3.47117526779992,339.965920997752
738245.54459362919442355633,0.972421440270191,-3.47117526779992,339.965920997752
738245.54459371964912861586,0.972421440270191,-3.47117526779992,340.015157526373
738245.54459381022024899721,0.960112308114872,-3.47117526779992,340.015157526373
738245.54459390079136937857,0.960112308114872,-3.47117526779992,339.990539262062
738245.54459399124607443810,0.972421440270191,-3.47117526779992,340.002848394218
738245.54459408181719481945,0.960112308114872,-3.47117526779992,340.015157526373
738245.54459417238831520081,0.960112308114872,-3.48348439995524,340.015157526373
738245.54459426284302026033,0.947803175959553,-3.48348439995524,339.978230129907
738245.54459435341414064169,0.972421440270191,-3.47117526779992,340.027466658528
738245.54459444398526102304,0.960112308114872,-3.48348439995524,340.027466658528
738245.54459453443996608257,0.972421440270191,-3.48348439995524,340.002848394218
738245.54459462501108646393,0.972421440270191,-3.48348439995524,340.002848394218
738245.54459471558220684528,0.972421440270191,-3.47117526779992,340.002848394218
738245.54459480603691190481,0.972421440270191,-3.48348439995524,340.027466658528
738245.54459489660803228617,0.960112308114872,-3.49579353211056,339.978230129907
738245.54459498717915266752,0.960112308114872,-3.47117526779992,340.027466658528
738245.54459507763385772705,0.972421440270191,-3.47117526779992,340.002848394218
738245.54459516820497810841,0.972421440270191,-3.48348439995524,339.965920997752
738245.54459525877609848976,0.984730572425509,-3.47117526779992,339.965920997752
738245.54459534923080354929,0.972421440270191,-3.48348439995524,339.842829676199
738245.54459543980192393064,0.997039704580828,-3.4588661356446,339.953611865596
738245.54459553037304431200,1.00934883673615,-3.43424787133396,339.990539262062
738245.54459562082774937153,1.02165796889147,-3.43424787133396,339.916684469131
738245.54459571139886975288,1.02165796889147,-3.44655700348928,339.818211411888
738245.54459580196999013424,1.02165796889147,-3.42193873917865,339.830520544043
738245.54459589242469519377,1.00934883673615,-3.44655700348928,340.002848394218
738245.54459598299581557512,0.984730572425509,-3.4588661356446,340.027466658528
738245.54459607356693595648,0.972421440270191,-3.47117526779992,340.039775790684
738245.54459616402164101601,0.972421440270191,-3.48348439995524,339.928993601286
738245.54459625459276139736,0.984730572425509,-3.48348439995524,339.965920997752
738245.54459634516388177872,0.972421440270191,-3.48348439995524,339.990539262062
738245.54459643561858683825,0.960112308114872,-3.48348439995524,339.990539262062
738245.54459652618970721960,0.960112308114872,-3.48348439995524,339.953611865596
738245.54459661676082760096,0.984730572425509,-3.48348439995524,339.953611865596
738245.54459670721553266048,0.972421440270191,-3.48348439995524,339.928993601286
738245.54459679778665304184,0.960112308114872,-3.49579353211056,339.941302733441
738245.54459688835777342319,0.972421440270191,-3.47117526779992,339.953611865596
738245.54459697881247848272,0.997039704580828,-3.48348439995524,339.928993601286
738245.54459706938359886408,1.12013102613402,-3.2619200211595,339.916684469131
738245.54459715995471924543,1.45247759432763,-2.3510442416659,340.212103640858
738245.54459725040942430496,1.79713329467655,-1.55095065157018,340.224412773014
738245.54459734098054468632,1.93253374838506,-1.55095065157018,340.027466658528
738245.54459743155166506767,1.36631366924039,-3.15113783176163,339.916684469131
738245.54459752200637012720,1.18167668691061,-3.66812138228502,339.633574429558
738245.54459761257749050856,1.08320362966806,-3.58195745719779,339.842829676199
738245.54459770314861088991,1.05858536535742,-3.50810266426588,339.855138808354
738245.54459779360331594944,1.03396710104678,-3.4588661356446,339.941302733441
738245.54459788417443633080,1.02165796889147,-3.4588661356446,339.990539262062
738245.54459797474555671215,1.00934883673615,-3.47117526779992,340.002848394218
738245.54459806520026177168,0.984730572425509,-3.4588661356446,340.027466658528
738245.54459815577138215303,0.997039704580828,-3.44655700348928,339.941302733441
738245.54459824634250253439,1.00934883673615,-3.42193873917865,340.039775790684
738245.54459833679720759392,1.00934883673615,-3.42193873917865,340.039775790684
738245.54459842736832797527,0.997039704580828,-3.42193873917865,340.002848394218
738245.54459851793944835663,1.02165796889147,-3.40962960702333,340.039775790684
738245.54459860839415341616,1.03396710104678,-3.38501134271269,340.07670318715
738245.54459869896527379751,1.0462762332021,-3.37270221055737,340.015157526373
738245.54459878953639417887,1.0462762332021,-3.37270221055737,340.027466658528
738245.54459887999109923840,1.05858536535742,-3.34808394624673,340.064394054994
738245.54459897056221961975,1.07089449751274,-3.32346568193609,340.027466658528
738245.54459906113334000111,1.08320362966806,-3.31115654978078,339.990539262062
738245.54459915158804506063,1.08320362966806,-3.27422915331482,339.990539262062
738245.54459924215916544199,1.09551276182338,-3.24961088900418,339.805902279733
738245.54459933273028582335,1.1078218939787,-3.23730175684886,339.818211411888
738245.54459942318499088287,1.13244015828934,-3.18806522822759,340.002848394218
738245.54459951375611126423,1.14474929044465,-3.15113783176163,340.002848394218
738245.54459960432723164558,1.15705842259997,-3.08959217098504,340.089012319305
738245.54459969478193670511,1.16936755475529,-3.0649739066744,340.113630583616
738245.54459978535305708647,1.18167668691061,-3.02804651020844,340.162867112237
738245.54459987592417746782,1.19398581906593,-3.01573737805312,340.089012319305
738245.54459996637888252735,1.19398581906593,-3.0034282458978,340.125939715771
738245.54460005695000290871,1.19398581906593,-3.0034282458978,340.138248847926
738245.54460014752112329006,1.20629495122125,-3.01573737805312,340.113630583616
738245.54460023797582834959,1.19398581906593,-3.0649739066744,340.07670318715
738245.54460032854694873095,1.15705842259997,-3.13882869960631,340.039775790684
738245.54460041911806911230,1.13244015828934,-3.22499262469354,340.015157526373
738245.54460050957277417183,1.1078218939787,-3.29884741762546,339.990539262062
738245.54460060014389455318,1.08320362966806,-3.34808394624673,340.015157526373
738245.54460069071501493454,1.07089449751274,-3.38501134271269,339.941302733441
738245.54460078116971999407,1.05858536535742,-3.42193873917865,339.953611865596
738245.54460087174084037542,1.0462762332021,-3.43424787133396,339.990539262062
738245.54460096231196075678,1.0462762332021,-3.44655700348928,339.978230129907
738245.54460105276666581631,1.03396710104678,-3.4588661356446,340.015157526373
738245.54460114333778619766,1.03396710104678,-3.4588661356446,339.990539262062
738245.54460123390890657902,1.03396710104678,-3.44655700348928,339.941302733441
738245.54460132436361163855,1.0462762332021,-3.4588661356446,339.941302733441
738245.54460141493473201990,1.0462762332021,-3.4588661356446,339.990539262062
738245.54460150550585240126,1.0462762332021,-3.44655700348928,339.965920997752
738245.54460159596055746078,1.0462762332021,-3.4588661356446,339.965920997752
738245.54460168653167784214,1.05858536535742,-3.4588661356446,339.978230129907
738245.54460177710279822350,1.05858536535742,-3.43424787133396,339.978230129907
738245.54460186755750328302,1.05858536535742,-3.43424787133396,339.928993601286
738245.54460195812862366438,1.05858536535742,-3.44655700348928,339.953611865596
738245.54460204869974404573,1.05858536535742,-3.43424787133396,339.965920997752
738245.54460213915444910526,1.05858536535742,-3.43424787133396,340.015157526373
738245.54460222972556948662,1.07089449751274,-3.43424787133396,340.015157526373
738245.54460232029668986797,1.05858536535742,-3.44655700348928,340.015157526373
738245.54460241075139492750,1.07089449751274,-3.44655700348928,339.978230129907
738245.54460250132251530886,1.07089449751274,-3.43424787133396,340.039775790684
738245.54460259189363569021,1.07089449751274,-3.43424787133396,340.015157526373
738245.54460268234834074974,1.05858536535742,-3.44655700348928,339.953611865596
738245.54460277291946113110,1.05858536535742,-3.4588661356446,339.793593147577
738245.54460286349058151245,1.07089449751274,-3.4588661356446,339.941302733441
738245.54460295394528657198,1.05858536535742,-3.4588661356446,339.953611865596
738245.54460304451640695333,1.05858536535742,-3.47117526779992,339.953611865596
738245.54460313508752733469,1.05858536535742,-3.47117526779992,340.039775790684
738245.54460322554223239422,1.07089449751274,-3.47117526779992,340.027466658528
738245.54460331611335277557,1.05858536535742,-3.48348439995524,339.953611865596
738245.54460340668447315693,1.05858536535742,-3.48348439995524,340.002848394218
738245.54460349713917821646,1.07089449751274,-3.47117526779992,340.052084922839
738245.54460358771029859781,1.0462762332021,-3.48348439995524,340.002848394218
738245.54460367828141897917,1.05858536535742,-3.48348439995524,339.990539262062
738245.54460376873612403870,1.05858536535742,-3.48348439995524,340.015157526373
738245.54460385930724442005,1.05858536535742,-3.48348439995524,339.990539262062
738245.54460394987836480141,1.05858536535742,-3.48348439995524,340.015157526373
738245.54460404033306986094,1.07089449751274,-3.48348439995524,340.015157526373
738245.54460413090419024229,1.07089449751274,-3.48348439995524,340.002848394218
738245.54460422147531062365,1.07089449751274,-3.49579353211056,339.965920997752
738245.54460431193001568317,1.07089449751274,-3.48348439995524,339.941302733441
738245.54460440250113606453,1.05858536535742,-3.48348439995524,339.867447940509
738245.54460449307225644588,1.07089449751274,-3.48348439995524,339.879757072665
738245.54460458352696150541,1.07089449751274,-3.49579353211056,339.879757072665
738245.54460467409808188677,1.08320362966806,-3.48348439995524,339.867447940509
738245.54460476466920226812,1.08320362966806,-3.49579353211056,339.830520544043
738245.54460485512390732765,1.09551276182338,-3.47117526779992,339.842829676199
738245.54460494569502770901,1.12013102613402,-3.44655700348928,339.867447940509
738245.54460503626614809036,1.13244015828934,-3.43424787133396,339.855138808354
738245.54460512672085314989,1.12013102613402,-3.4588661356446,339.904375336975
738245.54460521729197353125,1.1078218939787,-3.43424787133396,339.879757072665
738245.54460530786309391260,1.1078218939787,-3.4588661356446,339.953611865596
738245.54460539831779897213,1.09551276182338,-3.4588661356446,339.953611865596
738245.54460548888891935349,1.08320362966806,-3.48348439995524,339.953611865596
738245.54460557946003973484,1.08320362966806,-3.49579353211056,339.904375336975
738245.54460566991474479437,1.09551276182338,-3.47117526779992,339.941302733441
738245.54460576048586517572,1.07089449751274,-3.48348439995524,340.002848394218
738245.54460585105698555708,1.07089449751274,-3.47117526779992,339.953611865596
738245.54460594151169061661,1.07089449751274,-3.48348439995524,339.928993601286
738245.54460603208281099796,1.07089449751274,-3.49579353211056,339.941302733441
738245.54460612265393137932,1.08320362966806,-3.49579353211056,339.941302733441
738245.54460621310863643885,1.08320362966806,-3.48348439995524,339.978230129907
738245.54460630367975682020,1.07089449751274,-3.49579353211056,339.818211411888
738245.54460639425087720156,1.12013102613402,-3.4588661356446,339.855138808354
738245.54460648470558226109,1.32938627277444,-2.96650084943185,340.052084922839
738245.54460657527670264244,1.67404197312337,-1.96946114485102,340.298267565945
738245.54460666584782302380,1.99407940916166,-1.34169540492976,340.175176244392
738245.54460675630252808332,1.7602058982106,-2.12947986287016,339.941302733441
738245.54460684687364846468,1.5017141229489,-3.01573737805312,339.744356618956
738245.54460693744476884604,1.20629495122125,-3.75428530737225,339.70742922249
738245.54460702789947390556,1.14474929044465,-3.55733919288715,339.805902279733
738245.54460711847059428692,1.16936755475529,-3.44655700348928,339.928993601286
738245.54460720904171466827,1.1078218939787,-3.48348439995524,339.990539262062
738245.54460729949641972780,1.07089449751274,-3.50810266426588,339.965920997752
738245.54460739006754010916,1.13244015828934,-3.43424787133396,339.953611865596
738245.54460748063866049051,1.08320362966806,-3.47117526779992,340.002848394218
738245.54460757109336555004,1.1078218939787,-3.44655700348928,339.965920997752
738245.54460766166448593140,1.13244015828934,-3.42193873917865,339.916684469131
738245.54460775223560631275,1.1078218939787,-3.43424787133396,339.928993601286
738245.54460784269031137228,1.09551276182338,-3.42193873917865,339.928993601286
738245.54460793326143175364,1.1078218939787,-3.38501134271269,339.89206620482
738245.54460802383255213499,1.09551276182338,-3.39732047486801,339.928993601286
738245.54460811428725719452,1.13244015828934,-3.37270221055737,339.965920997752
738245.54460820485837757587,1.13244015828934,-3.37270221055737,340.015157526373
738245.54460829542949795723,1.13244015828934,-3.34808394624673,340.002848394218
738245.54460838588420301676,1.15705842259997,-3.31115654978078,339.965920997752
738245.54460847645532339811,1.14474929044465,-3.31115654978078,339.990539262062
738245.54460856702644377947,1.16936755475529,-3.2619200211595,340.027466658528
738245.54460865748114883900,1.18167668691061,-3.24961088900418,339.990539262062
738245.54460874805226922035,1.18167668691061,-3.23730175684886,340.015157526373
738245.54460883862338960171,1.19398581906593,-3.16344696391695,340.052084922839
738245.54460892919450998306,1.23091321553189,-3.12651956745099,340.052084922839
738245.54460901964921504259,1.20629495122125,-3.10190130314035,340.07670318715
738245.54460911022033542395,1.25553147984252,-3.02804651020844,340.125939715771
738245.54460920079145580530,1.24322234768721,-3.02804651020844,340.113630583616
738245.54460929124616086483,1.24322234768721,-3.02804651020844,340.138248847926
738245.54460938181728124619,1.25553147984252,-3.0034282458978,340.113630583616
738245.54460947238840162754,1.25553147984252,-3.0034282458978,340.162867112237
738245.54460956284310668707,1.26784061199784,-3.02804651020844,340.125939715771
738245.54460965341422706842,1.21860408337657,-3.11421043529567,340.027466658528
738245.54460974398534744978,1.19398581906593,-3.21268349253822,340.052084922839
738245.54460983444005250931,1.16936755475529,-3.2619200211595,339.867447940509
738245.54460992501117289066,1.15705842259997,-3.33577481409141,339.879757072665
738245.54461001558229327202,1.13244015828934,-3.34808394624673,339.953611865596
738245.54461010603699833155,1.08320362966806,-3.44655700348928,339.953611865596
738245.54461019660811871290,1.08320362966806,-3.4588661356446,339.941302733441
738245.54461028717923909426,1.09551276182338,-3.43424787133396,340.015157526373
738245.54461037763394415379,1.07089449751274,-3.47117526779992,339.89206620482
738245.54461046820506453514,1.02165796889147,-3.5204117964212,339.941302733441
738245.54461055877618491650,1.09551276182338,-3.47117526779992,339.916684469131
738245.54461064923088997602,1.09551276182338,-3.47117526779992,339.953611865596
738245.54461073980201035738,1.07089449751274,-3.48348439995524,340.002848394218
738245.54461083037313073874,1.07089449751274,-3.48348439995524,339.953611865596
738245.54461092082783579826,1.03396710104678,-3.5204117964212,339.842829676199
738245.54461101139895617962,1.05858536535742,-3.50810266426588,339.879757072665
738245.54461110197007656097,1.1078218939787,-3.44655700348928,339.879757072665
738245.54461119242478162050,1.05858536535742,-3.49579353211056,339.842829676199
738245.54461128299590200186,1.0462762332021,-3.50810266426588,339.904375336975
738245.54461137356702238321,1.05858536535742,-3.48348439995524,339.990539262062
738245.54461146402172744274,1.1078218939787,-3.44655700348928,339.953611865596
738245.54461155459284782410,1.09551276182338,-3.47117526779992,339.965920997752
738245.54461164516396820545,1.05858536535742,-3.50810266426588,339.978230129907
738245.54461173561867326498,1.07089449751274,-3.48348439995524,339.978230129907
738245.54461182618979364634,1.05858536535742,-3.49579353211056,340.002848394218
738245.54461191676091402769,1.05858536535742,-3.50810266426588,339.978230129907
738245.54461200721561908722,1.0462762332021,-3.5204117964212,340.015157526373
738245.54461209778673946857,1.07089449751274,-3.48348439995524,339.990539262062
738245.54461218835785984993,1.07089449751274,-3.48348439995524,340.002848394218
738245.54461227881256490946,1.0462762332021,-3.50810266426588,339.904375336975
738245.54461236938368529081,1.03396710104678,-3.5204117964212,339.990539262062
738245.54461245995480567217,1.05858536535742,-3.5204117964212,339.990539262062
738245.54461255040951073170,1.05858536535742,-3.5204117964212,340.015157526373
738245.54461264098063111305,1.05858536535742,-3.50810266426588,340.002848394218
738245.54461273155175149441,1.07089449751274,-3.50810266426588,339.990539262062
738245.54461282200645655394,1.03396710104678,-3.54503006073183,339.904375336975
738245.54461291257757693529,1.0462762332021,-3.53272092857652,339.904375336975
738245.54461300314869731665,1.05858536535742,-3.50810266426588,339.953611865596
738245.54461309360340237617,1.02165796889147,-3.55733919288715,339.89206620482
738245.54461318417452275753,1.0462762332021,-3.53272092857652,339.916684469131
738245.54461327474564313889,1.05858536535742,-3.50810266426588,339.928993601286
738245.54461336520034819841,1.00934883673615,-3.58195745719779,339.818211411888
738245.54461345577146857977,1.0462762332021,-3.53272092857652,339.805902279733
738245.54461354634258896112,1.0462762332021,-3.54503006073183,339.978230129907
738245.54461363679729402065,1.05858536535742,-3.5204117964212,340.002848394218
738245.54461372736841440201,1.03396710104678,-3.54503006073183,339.879757072665
738245.54461381793953478336,1.0462762332021,-3.54503006073183,339.941302733441
738245.54461390839423984289,1.0462762332021,-3.54503006073183,339.978230129907
738245.54461399896536022425,1.05858536535742,-3.54503006073183,340.002848394218
738245.54461408953648060560,1.0462762332021,-3.56964832504247,339.904375336975
738245.54461417999118566513,1.05858536535742,-3.5204117964212,339.965920997752
738245.54461427056230604649,1.1078218939787,-3.49579353211056,340.002848394218
738245.54461436113342642784,1.12013102613402,-3.49579353211056,339.842829676199
738245.54461445158813148737,1.09551276182338,-3.50810266426588,339.904375336975
738245.54461454215925186872,1.1078218939787,-3.47117526779992,339.953611865596
738245.54461463273037225008,1.09551276182338,-3.49579353211056,339.965920997752
738245.54461472318507730961,1.05858536535742,-3.5204117964212,339.978230129907
738245.54461481375619769096,1.07089449751274,-3.53272092857652,339.904375336975
738245.54461490432731807232,1.05858536535742,-3.53272092857652,339.89206620482
738245.54461499478202313185,1.07089449751274,-3.53272092857652,339.953611865596
738245.54461508535314351320,1.03396710104678,-3.56964832504247,340.002848394218
738245.54461517592426389456,1.07089449751274,-3.5204117964212,340.002848394218
738245.54461526637896895409,1.07089449751274,-3.5204117964212,339.904375336975
738245.54461535695008933544,1.05858536535742,-3.54503006073183,340.002848394218
738245.54461544752120971680,1.0462762332021,-3.54503006073183,340.002848394218
738245.54461553797591477633,1.05858536535742,-3.53272092857652,339.978230129907
738245.54461562854703515768,1.0462762332021,-3.55733919288715,339.978230129907
738245.54461571911815553904,1.1078218939787,-3.49579353211056,339.978230129907
738245.54461580957286059856,1.40324106570635,-2.88033692434461,340.052084922839
738245.54461590014398097992,1.74789676605528,-1.89560635191911,340.187485376548
738245.54461599071510136127,2.06793420209357,-1.29245887630848,340.125939715771
738245.54461608116980642080,1.7602058982106,-2.2156437879574,339.867447940509
738245.54461617174092680216,1.31707714061912,-3.6558122501297,339.608956165248
738245.54461626231204718351,1.20629495122125,-3.72966704306162,339.608956165248
738245.54461635276675224304,1.15705842259997,-3.56964832504247,339.719738354645
738245.54461644333787262440,1.13244015828934,-3.5204117964212,339.818211411888
738245.54461653390899300575,1.07089449751274,-3.54503006073183,339.928993601286
738245.54461662436369806528,1.08320362966806,-3.5204117964212,339.879757072665
738245.54461671493481844664,1.1078218939787,-3.50810266426588,339.904375336975
738245.54461680550593882799,1.1078218939787,-3.50810266426588,339.928993601286
738245.54461689596064388752,1.08320362966806,-3.49579353211056,339.867447940509
738245.54461698653176426888,1.09551276182338,-3.49579353211056,339.867447940509
738245.54461707710288465023,1.09551276182338,-3.48348439995524,340.002848394218
738245.54461716755758970976,1.09551276182338,-3.47117526779992,339.904375336975
738245.54461725812871009111,1.09551276182338,-3.47117526779992,339.990539262062
738245.54461734869983047247,1.09551276182338,-3.4588661356446,340.027466658528
738245.54461743915453553200,1.1078218939787,-3.44655700348928,340.039775790684
738245.54461752972565591335,1.09551276182338,-3.44655700348928,339.978230129907
738245.54461762029677629471,1.13244015828934,-3.38501134271269,340.027466658528
738245.54461771075148135424,1.14474929044465,-3.37270221055737,340.039775790684
738245.54461780132260173559,1.14474929044465,-3.36039307840205,339.965920997752
738245.54461789189372211695,1.15705842259997,-3.32346568193609,340.064394054994
738245.54461798234842717648,1.14474929044465,-3.33577481409141,340.027466658528
738245.54461807291954755783,1.15705842259997,-3.29884741762546,340.07670318715
738245.54461816349066793919,1.20629495122125,-3.23730175684886,340.113630583616
738245.54461825394537299871,1.21860408337657,-3.18806522822759,340.138248847926
738245.54461834451649338007,1.20629495122125,-3.16344696391695,340.07670318715
738245.54461843508761376143,1.23091321553189,-3.12651956745099,340.212103640858
738245.54461852554231882095,1.26784061199784,-3.0649739066744,340.10132145146
738245.54461861611343920231,1.25553147984252,-3.0649739066744,340.125939715771
738245.54461870668455958366,1.25553147984252,-3.07728303882972,340.138248847926
738245.54461879713926464319,1.25553147984252,-3.07728303882972,340.113630583616
738245.54461888771038502455,1.25553147984252,-3.10190130314035,340.138248847926
738245.54461897828150540590,1.23091321553189,-3.16344696391695,340.125939715771
738245.54461906873621046543,1.23091321553189,-3.22499262469354,339.978230129907
738245.54461915930733084679,1.18167668691061,-3.32346568193609,340.027466658528
738245.54461924987845122814,1.16936755475529,-3.38501134271269,340.039775790684
738245.54461934033315628767,1.14474929044465,-3.40962960702333,340.039775790684
738245.54461943090427666903,1.12013102613402,-3.4588661356446,339.990539262062
738245.54461952147539705038,1.08320362966806,-3.50810266426588,340.027466658528
738245.54461961193010210991,1.09551276182338,-3.49579353211056,339.990539262062
738245.54461970250122249126,1.09551276182338,-3.50810266426588,339.990539262062
738245.54461979307234287262,1.09551276182338,-3.5204117964212,340.039775790684
738245.54461988352704793215,1.09551276182338,-3.49579353211056,340.039775790684
738245.54461997409816831350,1.08320362966806,-3.50810266426588,340.027466658528
738245.54462006466928869486,1.09551276182338,-3.50810266426588,339.990539262062
738245.54462015512399375439,1.09551276182338,-3.50810266426588,340.027466658528
738245.54462024569511413574,1.08320362966806,-3.53272092857652,340.039775790684
738245.54462033626623451710,1.1078218939787,-3.50810266426588,339.965920997752
738245.54462042672093957663,1.09551276182338,-3.50810266426588,339.965920997752
738245.54462051729205995798,1.07089449751274,-3.5204117964212,339.904375336975
738245.54462060786318033934,1.1078218939787,-3.50810266426588,340.015157526373
738245.54462069831788539886,1.09551276182338,-3.50810266426588,339.990539262062
738245.54462078888900578022,1.08320362966806,-3.5204117964212,340.039775790684
738245.54462087946012616158,1.1078218939787,-3.49579353211056,340.052084922839
738245.54462096991483122110,1.1078218939787,-3.49579353211056,339.953611865596
738245.54462106048595160246,1.1078218939787,-3.49579353211056,339.867447940509
738245.54462115105707198381,1.09551276182338,-3.50810266426588,339.867447940509
738245.54462124151177704334,1.09551276182338,-3.50810266426588,339.89206620482
738245.54462133208289742470,1.09551276182338,-3.50810266426588,339.89206620482
738245.54462142265401780605,1.09551276182338,-3.50810266426588,339.89206620482
738245.54462151310872286558,1.09551276182338,-3.5204117964212,339.928993601286
738245.54462160367984324694,1.09551276182338,-3.5204117964212,339.953611865596
738245.54462169425096362829,1.1078218939787,-3.48348439995524,339.904375336975
738245.54462178470566868782,1.09551276182338,-3.50810266426588,339.904375336975
738245.54462187527678906918,1.08320362966806,-3.5204117964212,339.965920997752
738245.54462196584790945053,1.07089449751274,-3.5204117964212,339.978230129907
738245.54462205630261451006,1.09551276182338,-3.50810266426588,339.89206620482
738245.54462214687373489141,1.1078218939787,-3.50810266426588,339.965920997752
738245.54462223744485527277,1.08320362966806,-3.55733919288715,339.978230129907
738245.54462232789956033230,1.08320362966806,-3.55733919288715,339.89206620482
738245.54462241847068071365,1.05858536535742,-3.55733919288715,339.904375336975
738245.54462250904180109501,1.09551276182338,-3.53272092857652,339.928993601286
738245.54462259949650615454,1.09551276182338,-3.54503006073183,339.953611865596
738245.54462269006762653589,1.09551276182338,-3.50810266426588,339.990539262062
738245.54462278063874691725,1.09551276182338,-3.5204117964212,339.916684469131
738245.54462287109345197678,1.09551276182338,-3.53272092857652,339.916684469131
738245.54462296166457235813,1.09551276182338,-3.53272092857652,339.916684469131
738245.54462305223569273949,1.09551276182338,-3.54503006073183,339.916684469131
738245.54462314269039779902,1.1078218939787,-3.53272092857652,339.928993601286
738245.54462323326151818037,1.1078218939787,-3.53272092857652,339.990539262062
738245.54462332383263856173,1.09551276182338,-3.55733919288715,339.965920997752
738245.54462341428734362125,1.09551276182338,-3.55733919288715,339.904375336975
738245.54462350485846400261,1.14474929044465,-3.50810266426588,339.990539262062
738245.54462359542958438396,1.15705842259997,-3.5204117964212,339.990539262062
738245.54462368588428944349,1.14474929044465,-3.49579353211056,340.002848394218
738245.54462377645540982485,1.13244015828934,-3.50810266426588,339.941302733441
738245.54462386702653020620,1.13244015828934,-3.53272092857652,339.990539262062
738245.54462395748123526573,1.1078218939787,-3.5204117964212,339.953611865596
738245.54462404805235564709,1.09551276182338,-3.53272092857652,339.756665751111
738245.54462413862347602844,1.09551276182338,-3.53272092857652,340.002848394218
738245.54462422907818108797,1.12013102613402,-3.53272092857652,340.027466658528
738245.54462431964930146933,1.08320362966806,-3.54503006073183,339.941302733441
738245.54462441022042185068,1.1078218939787,-3.53272092857652,339.978230129907
738245.54462450067512691021,1.09551276182338,-3.54503006073183,340.015157526373
738245.54462459124624729156,1.1078218939787,-3.5204117964212,340.027466658528
738245.54462468181736767292,1.08320362966806,-3.56964832504247,339.965920997752
738245.54462477238848805428,1.09551276182338,-3.55733919288715,340.039775790684
738245.54462486284319311380,1.14474929044465,-3.53272092857652,339.990539262062
738245.54462495341431349516,1.31707714061912,-3.15113783176163,339.990539262062
738245.54462504398543387651,1.698660237434,-2.09255246640421,340.28595843379
738245.54462513444013893604,2.04331593778293,-1.34169540492976,340.28595843379
738245.54462522501125931740,1.96946114485102,-1.77251503036592,340.015157526373
738245.54462531558237969875,1.44016846217231,-3.44655700348928,339.633574429558
738245.54462540603708475828,1.21860408337657,-3.68043051444034,339.818211411888
738245.54462549660820513964,1.19398581906593,-3.56964832504247,339.842829676199
738245.54462558717932552099,1.19398581906593,-3.53272092857652,339.830520544043
738245.54462567763403058052,1.14474929044465,-3.54503006073183,339.978230129907
738245.54462576820515096188,1.13244015828934,-3.55733919288715,339.990539262062
738245.54462585877627134323,1.14474929044465,-3.54503006073183,339.928993601286
738245.54462594923097640276,1.12013102613402,-3.54503006073183,339.965920997752
738245.54462603980209678411,1.12013102613402,-3.54503006073183,340.015157526373
738245.54462613037321716547,1.12013102613402,-3.50810266426588,339.953611865596
738245.54462622082792222500,1.13244015828934,-3.54503006073183,339.978230129907
738245.54462631139904260635,1.12013102613402,-3.54503006073183,339.990539262062
738245.54462640197016298771,1.15705842259997,-3.48348439995524,339.941302733441
738245.54462649242486804724,1.12013102613402,-3.49579353211056,339.928993601286
738245.54462658299598842859,1.18167668691061,-3.47117526779992,340.002848394218
738245.54462667356710880995,1.15705842259997,-3.47117526779992,339.965920997752
738245.54462676402181386948,1.15705842259997,-3.4588661356446,339.941302733441
738245.54462685459293425083,1.18167668691061,-3.40962960702333,339.990539262062
738245.54462694516405463219,1.19398581906593,-3.38501134271269,340.002848394218
738245.54462703561875969172,1.18167668691061,-3.34808394624673,340.002848394218
738245.54462712618988007307,1.21860408337657,-3.32346568193609,340.015157526373
738245.54462721676100045443,1.23091321553189,-3.28653828547014,340.07670318715
738245.54462730721570551395,1.23091321553189,-3.2619200211595,340.027466658528
738245.54462739778682589531,1.26784061199784,-3.20037436038291,340.064394054994
738245.54462748835794627666,1.28014974415316,-3.17575609607227,340.07670318715
738245.54462757881265133619,1.3047680084638,-3.13882869960631,339.978230129907
738245.54462766938377171755,1.28014974415316,-3.12651956745099,340.113630583616
738245.54462775995489209890,1.29245887630848,-3.08959217098504,340.125939715771
738245.54462785040959715843,1.31707714061912,-3.05266477451908,340.187485376548
738245.54462794098071753979,1.31707714061912,-3.05266477451908,340.175176244392
738245.54462803155183792114,1.29245887630848,-3.08959217098504,340.052084922839
738245.54462812200654298067,1.28014974415316,-3.13882869960631,340.150557980082
738245.54462821257766336203,1.26784061199784,-3.21268349253822,340.064394054994
738245.54462830314878374338,1.24322234768721,-3.2619200211595,339.965920997752
738245.54462839360348880291,1.23091321553189,-3.34808394624673,340.002848394218
738245.54462848417460918427,1.18167668691061,-3.43424787133396,340.015157526373
738245.54462857474572956562,1.14474929044465,-3.44655700348928,339.978230129907
738245.54462866520043462515,1.16936755475529,-3.44655700348928,339.965920997752
738245.54462875577155500650,1.13244015828934,-3.5204117964212,340.027466658528
738245.54462884634267538786,1.13244015828934,-3.47117526779992,339.978230129907
738245.54462893679738044739,1.13244015828934,-3.47117526779992,339.916684469131
738245.54462902736850082874,1.14474929044465,-3.50810266426588,340.027466658528
738245.54462911793962121010,1.13244015828934,-3.50810266426588,339.965920997752
738245.54462920839432626963,1.14474929044465,-3.50810266426588,339.916684469131
738245.54462929896544665098,1.14474929044465,-3.5204117964212,339.941302733441
738245.54462938953656703234,1.14474929044465,-3.5204117964212,339.990539262062
738245.54462947999127209187,1.12013102613402,-3.50810266426588,339.990539262062
738245.54462957056239247322,1.14474929044465,-3.49579353211056,339.879757072665
738245.54462966113351285458,1.13244015828934,-3.5204117964212,339.89206620482
738245.54462975158821791410,1.14474929044465,-3.49579353211056,339.89206620482
738245.54462984215933829546,1.14474929044465,-3.49579353211056,339.953611865596
738245.54462993273045867682,1.15705842259997,-3.4588661356446,339.953611865596
738245.54463002318516373634,1.15705842259997,-3.5204117964212,339.916684469131
738245.54463011375628411770,1.12013102613402,-3.50810266426588,339.855138808354
738245.54463020432740449905,1.14474929044465,-3.49579353211056,339.978230129907
738245.54463029478210955858,1.14474929044465,-3.49579353211056,339.990539262062
738245.54463038535322993994,1.15705842259997,-3.50810266426588,339.89206620482
738245.54463047592435032129,1.13244015828934,-3.50810266426588,339.928993601286
738245.54463056637905538082,1.13244015828934,-3.50810266426588,339.879757072665
738245.54463065695017576218,1.14474929044465,-3.50810266426588,339.990539262062
738245.54463074752129614353,1.15705842259997,-3.50810266426588,339.928993601286
738245.54463083797600120306,1.13244015828934,-3.5204117964212,339.953611865596
738245.54463092854712158442,1.1078218939787,-3.50810266426588,339.904375336975
738245.54463101911824196577,1.15705842259997,-3.50810266426588,339.732047486801
738245.54463110957294702530,1.13244015828934,-3.53272092857652,339.904375336975
738245.54463120014406740665,1.13244015828934,-3.5204117964212,339.990539262062
738245.54463129071518778801,1.13244015828934,-3.53272092857652,340.027466658528
738245.54463138116989284754,1.13244015828934,-3.50810266426588,339.928993601286
738245.54463147174101322889,1.13244015828934,-3.49579353211056,339.990539262062
738245.54463156231213361025,1.13244015828934,-3.5204117964212,339.941302733441
738245.54463165276683866978,1.13244015828934,-3.4588661356446,339.941302733441
738245.54463174333795905113,1.14474929044465,-3.54503006073183,339.941302733441
738245.54463183390907943249,1.14474929044465,-3.54503006073183,339.89206620482
738245.54463192436378449202,1.12013102613402,-3.54503006073183,339.879757072665
738245.54463201493490487337,1.13244015828934,-3.49579353211056,339.89206620482
738245.54463210550602525473,1.13244015828934,-3.54503006073183,339.867447940509
738245.54463219596073031425,1.14474929044465,-3.53272092857652,339.89206620482
738245.54463228653185069561,1.16936755475529,-3.50810266426588,339.879757072665
738245.54463237710297107697,1.20629495122125,-3.4588661356446,339.941302733441
738245.54463246755767613649,1.18167668691061,-3.48348439995524,339.928993601286
738245.54463255812879651785,1.16936755475529,-3.47117526779992,339.965920997752
738245.54463264869991689920,1.13244015828934,-3.49579353211056,340.015157526373
738245.54463273915462195873,1.13244015828934,-3.5204117964212,339.916684469131
738245.54463282972574234009,1.13244015828934,-3.55733919288715,339.953611865596
738245.54463292029686272144,1.13244015828934,-3.54503006073183,339.941302733441
738245.54463301075156778097,1.12013102613402,-3.5204117964212,340.027466658528
738245.54463310132268816233,1.1078218939787,-3.50810266426588,340.015157526373
738245.54463319189380854368,1.1078218939787,-3.58195745719779,339.965920997752
738245.54463328234851360321,1.14474929044465,-3.49579353211056,339.978230129907
738245.54463337291963398457,1.12013102613402,-3.50810266426588,340.002848394218
738245.54463346349075436592,1.12013102613402,-3.54503006073183,340.027466658528
738245.54463355394545942545,1.12013102613402,-3.53272092857652,339.965920997752
738245.54463364451657980680,1.15705842259997,-3.48348439995524,340.002848394218
738245.54463373508770018816,1.31707714061912,-3.20037436038291,340.089012319305
738245.54463382554240524769,1.66173284096805,-2.16640725933612,340.249031037324
738245.54463391611352562904,1.99407940916166,-1.3047680084638,340.347504094567
738245.54463400668464601040,1.98177027700634,-1.5632597837255,340.07670318715
738245.54463409713935106993,1.48940499079358,-3.27422915331482,339.608956165248
738245.54463418771047145128,1.25553147984252,-3.66812138228502,339.695120090335
738245.54463427828159183264,1.23091321553189,-3.4588661356446,339.793593147577
738245.54463436873629689217,1.21860408337657,-3.4588661356446,339.867447940509
738245.54463445930741727352,1.16936755475529,-3.5204117964212,339.916684469131
738245.54463454987853765488,1.14474929044465,-3.4588661356446,339.732047486801
738245.54463464033324271441,1.15705842259997,-3.4588661356446,339.89206620482
738245.54463473090436309576,1.13244015828934,-3.58195745719779,340.002848394218
738245.54463482147548347712,1.12013102613402,-3.48348439995524,340.015157526373
738245.54463491193018853664,1.14474929044465,-3.43424787133396,339.941302733441
738245.54463500250130891800,1.14474929044465,-3.4588661356446,340.027466658528
738245.54463509307242929935,1.14474929044465,-3.48348439995524,340.027466658528
738245.54463518352713435888,1.16936755475529,-3.40962960702333,339.990539262062
738245.54463527409825474024,1.14474929044465,-3.40962960702333,339.965920997752
738245.54463536466937512159,1.15705842259997,-3.44655700348928,339.965920997752
738245.54463545512408018112,1.19398581906593,-3.39732047486801,339.953611865596
738245.54463554569520056248,1.18167668691061,-3.39732047486801,339.904375336975
738245.54463563626632094383,1.19398581906593,-3.37270221055737,339.990539262062
738245.54463572672102600336,1.20629495122125,-3.29884741762546,339.941302733441
738245.54463581729214638472,1.21860408337657,-3.31115654978078,340.027466658528
738245.54463590786326676607,1.23091321553189,-3.29884741762546,340.002848394218
738245.54463599831797182560,1.24322234768721,-3.20037436038291,340.125939715771
738245.54463608888909220695,1.26784061199784,-3.18806522822759,340.150557980082
738245.54463617946021258831,1.29245887630848,-3.12651956745099,340.150557980082
738245.54463626991491764784,1.29245887630848,-3.07728303882972,340.199794508703
738245.54463636048603802919,1.3047680084638,-3.08959217098504,340.261340169479
738245.54463645105715841055,1.31707714061912,-3.05266477451908,340.212103640858
738245.54463654151186347008,1.31707714061912,-3.01573737805312,340.199794508703
738245.54463663208298385143,1.32938627277444,-2.99111911374248,340.212103640858
738245.54463672265410423279,1.31707714061912,-3.04035564236376,340.187485376548
738245.54463681310880929232,1.32938627277444,-3.04035564236376,340.138248847926
738245.54463690367992967367,1.3047680084638,-3.07728303882972,340.162867112237
738245.54463699425105005503,1.28014974415316,-3.11421043529567,340.150557980082
738245.54463708470575511456,1.26784061199784,-3.2619200211595,340.07670318715
738245.54463717527687549591,1.21860408337657,-3.33577481409141,340.10132145146
738245.54463726584799587727,1.19398581906593,-3.36039307840205,340.039775790684
738245.54463735630270093679,1.18167668691061,-3.40962960702333,340.002848394218
738245.54463744687382131815,1.16936755475529,-3.40962960702333,340.052084922839
738245.54463753744494169950,1.16936755475529,-3.4588661356446,340.064394054994
738245.54463762789964675903,1.16936755475529,-3.47117526779992,340.027466658528
738245.54463771847076714039,1.13244015828934,-3.47117526779992,339.904375336975
738245.54463780904188752174,1.15705842259997,-3.4588661356446,340.002848394218
738245.54463789949659258127,1.15705842259997,-3.48348439995524,340.027466658528
738245.54463799006771296263,1.13244015828934,-3.48348439995524,339.978230129907
738245.54463808063883334398,1.13244015828934,-3.49579353211056,339.805902279733
738245.54463817109353840351,1.16936755475529,-3.4588661356446,339.904375336975
738245.54463826166465878487,1.16936755475529,-3.47117526779992,339.928993601286
738245.54463835223577916622,1.15705842259997,-3.47117526779992,339.842829676199
738245.54463844269048422575,1.15705842259997,-3.4588661356446,339.941302733441
738245.54463853326160460711,1.14474929044465,-3.47117526779992,339.904375336975
738245.54463862383272498846,1.13244015828934,-3.48348439995524,339.904375336975
738245.54463871428743004799,1.15705842259997,-3.4588661356446,339.916684469131
738245.54463880485855042934,1.16936755475529,-3.4588661356446,339.928993601286
738245.54463889542967081070,1.16936755475529,-3.44655700348928,339.928993601286
738245.54463898588437587023,1.15705842259997,-3.4588661356446,339.89206620482
738245.54463907645549625158,1.15705842259997,-3.4588661356446,339.990539262062
738245.54463916702661663294,1.14474929044465,-3.47117526779992,339.953611865596
738245.54463925748132169247,1.15705842259997,-3.44655700348928,339.978230129907
738245.54463934805244207382,1.13244015828934,-3.48348439995524,339.990539262062
738245.54463943862356245518,1.13244015828934,-3.48348439995524,339.965920997752
738245.54463952907826751471,1.16936755475529,-3.43424787133396,339.990539262062
738245.54463961964938789606,1.14474929044465,-3.47117526779992,340.015157526373
738245.54463971022050827742,1.14474929044465,-3.47117526779992,339.904375336975
738245.54463980067521333694,1.15705842259997,-3.4588661356446,340.015157526373
738245.54463989124633371830,1.14474929044465,-3.48348439995524,340.027466658528
738245.54463998181745409966,1.12013102613402,-3.48348439995524,340.039775790684
738245.54464007227215915918,1.15705842259997,-3.47117526779992,339.879757072665
738245.54464016284327954054,1.15705842259997,-3.48348439995524,340.015157526373
738245.54464025341439992189,1.15705842259997,-3.47117526779992,339.990539262062
738245.54464034398552030325,1.14474929044465,-3.49579353211056,339.965920997752
738245.54464043444022536278,1.15705842259997,-3.48348439995524,339.978230129907
738245.54464052501134574413,1.18167668691061,-3.4588661356446,340.002848394218
738245.54464061558246612549,1.19398581906593,-3.44655700348928,340.002848394218
738245.54464070603717118502,1.19398581906593,-3.43424787133396,339.941302733441
738245.54464079660829156637,1.20629495122125,-3.44655700348928,340.027466658528
738245.54464088717941194773,1.19398581906593,-3.42193873917865,340.027466658528
738245.54464097763411700726,1.16936755475529,-3.44655700348928,339.965920997752
738245.54464106820523738861,1.15705842259997,-3.4588661356446,340.027466658528
738245.54464115877635776997,1.18167668691061,-3.47117526779992,340.064394054994
738245.54464124923106282949,1.13244015828934,-3.5204117964212,340.052084922839
738245.54464133980218321085,1.12013102613402,-3.5204117964212,339.990539262062
738245.54464143037330359221,1.14474929044465,-3.49579353211056,340.052084922839
738245.54464152082800865173,1.15705842259997,-3.48348439995524,340.027466658528
738245.54464161139912903309,1.14474929044465,-3.49579353211056,339.867447940509
738245.54464170197024941444,1.13244015828934,-3.50810266426588,339.953611865596
738245.54464179242495447397,1.13244015828934,-3.50810266426588,340.089012319305
738245.54464188299607485533,1.1078218939787,-3.49579353211056,339.965920997752
738245.54464197356719523668,1.18167668691061,-3.49579353211056,340.002848394218
738245.54464206402190029621,1.31707714061912,-3.17575609607227,340.064394054994
738245.54464215459302067757,1.63711457665741,-2.19102552364676,340.224412773014
738245.54464224516414105892,1.94484288054038,-1.36631366924039,340.347504094567
738245.54464233561884611845,1.9571520126957,-1.57556891588082,340.175176244392
738245.54464242618996649981,1.5017141229489,-3.20037436038291,339.904375336975
738245.54464251676108688116,1.35400453708508,-3.60657572150843,339.547410504471
738245.54464260721579194069,1.24322234768721,-3.59426658935311,339.818211411888
738245.54464269778691232204,1.20629495122125,-3.47117526779992,339.941302733441
738245.54464278835803270340,1.19398581906593,-3.43424787133396,339.904375336975
738245.54464287881273776293,1.18167668691061,-3.4588661356446,339.953611865596
738245.54464296938385814428,1.14474929044465,-3.49579353211056,340.015157526373
738245.54464305995497852564,1.16936755475529,-3.4588661356446,339.978230129907
738245.54464315040968358517,1.15705842259997,-3.44655700348928,339.978230129907
738245.54464324098080396652,1.16936755475529,-3.42193873917865,340.027466658528
738245.54464333155192434788,1.15705842259997,-3.44655700348928,339.965920997752
738245.54464342200662940741,1.18167668691061,-3.42193873917865,340.027466658528
738245.54464351257774978876,1.18167668691061,-3.39732047486801,339.978230129907
738245.54464360314887017012,1.19398581906593,-3.38501134271269,339.953611865596
738245.54464369360357522964,1.18167668691061,-3.42193873917865,339.978230129907
738245.54464378417469561100,1.19398581906593,-3.34808394624673,339.978230129907
738245.54464387474581599236,1.19398581906593,-3.37270221055737,340.015157526373
738245.54464396520052105188,1.23091321553189,-3.32346568193609,340.027466658528
738245.54464405577164143324,1.24322234768721,-3.28653828547014,340.027466658528
738245.54464414634276181459,1.24322234768721,-3.27422915331482,340.015157526373
738245.54464423679746687412,1.26784061199784,-3.23730175684886,340.113630583616
738245.54464432736858725548,1.28014974415316,-3.20037436038291,340.125939715771
738245.54464441793970763683,1.29245887630848,-3.17575609607227,340.175176244392
738245.54464450839441269636,1.3047680084638,-3.13882869960631,340.113630583616
738245.54464459896553307772,1.31707714061912,-3.08959217098504,340.199794508703
738245.54464468953665345907,1.34169540492976,-3.04035564236376,340.212103640858
738245.54464477999135851860,1.34169540492976,-3.0034282458978,340.224412773014
738245.54464487056247889996,1.35400453708508,-2.97880998158717,340.249031037324
738245.54464496113359928131,1.37862280139571,-2.95419171727653,340.298267565945
738245.54464505158830434084,1.36631366924039,-2.97880998158717,340.236721905169
738245.54464514215942472219,1.36631366924039,-2.97880998158717,340.039775790684
738245.54464523273054510355,1.34169540492976,-3.04035564236376,340.002848394218
738245.54464532318525016308,1.31707714061912,-3.12651956745099,340.064394054994
738245.54464541375637054443,1.3047680084638,-3.20037436038291,340.064394054994
738245.54464550432749092579,1.25553147984252,-3.29884741762546,340.10132145146
738245.54464559478219598532,1.19398581906593,-3.37270221055737,340.10132145146
738245.54464568535331636667,1.21860408337657,-3.36039307840205,340.039775790684
738245.54464577592443674803,1.19398581906593,-3.42193873917865,340.015157526373
738245.54464586637914180756,1.19398581906593,-3.40962960702333,340.10132145146
738245.54464595695026218891,1.18167668691061,-3.42193873917865,340.089012319305
738245.54464604752138257027,1.19398581906593,-3.43424787133396,339.990539262062
738245.54464613797608762980,1.18167668691061,-3.4588661356446,340.052084922839
738245.54464622854720801115,1.18167668691061,-3.48348439995524,340.039775790684
738245.54464631911832839251,1.18167668691061,-3.44655700348928,340.015157526373
738245.54464640957303345203,1.19398581906593,-3.4588661356446,339.990539262062
738245.54464650014415383339,1.19398581906593,-3.4588661356446,340.015157526373
738245.54464659071527421474,1.18167668691061,-3.44655700348928,340.039775790684
738245.54464668116997927427,1.18167668691061,-3.44655700348928,340.015157526373
738245.54464677174109965563,1.19398581906593,-3.4588661356446,339.941302733441
738245.54464686231222003698,1.20629495122125,-3.43424787133396,340.015157526373
738245.54464695276692509651,1.18167668691061,-3.44655700348928,339.928993601286
738245.54464704333804547787,1.21860408337657,-3.43424787133396,339.941302733441
738245.54464713390916585922,1.18167668691061,-3.44655700348928,340.015157526373
738245.54464722436387091875,1.20629495122125,-3.43424787133396,340.052084922839
738245.54464731493499130011,1.20629495122125,-3.43424787133396,340.052084922839
738245.54464740550611168146,1.18167668691061,-3.4588661356446,339.965920997752
738245.54464749596081674099,1.18167668691061,-3.43424787133396,340.027466658528
738245.54464758653193712234,1.19398581906593,-3.44655700348928,340.07670318715
738245.54464767710305750370,1.19398581906593,-3.4588661356446,339.953611865596
738245.54464776755776256323,1.20629495122125,-3.4588661356446,340.052084922839
738245.54464785812888294458,1.18167668691061,-3.43424787133396,340.07670318715
738245.54464794870000332594,1.18167668691061,-3.47117526779992,340.089012319305
738245.54464803915470838547,1.19398581906593,-3.4588661356446,339.990539262062
738245.54464812972582876682,1.18167668691061,-3.44655700348928,340.027466658528
738245.54464822029694914818,1.19398581906593,-3.48348439995524,339.928993601286
738245.54464831075165420771,1.19398581906593,-3.48348439995524,339.879757072665
738245.54464840132277458906,1.19398581906593,-3.48348439995524,339.928993601286
738245.54464849189389497042,1.19398581906593,-3.49579353211056,339.928993601286
738245.54464858234860002995,1.21860408337657,-3.4588661356446,339.904375336975
738245.54464867291972041130,1.24322234768721,-3.42193873917865,339.818211411888
738245.54464876349084079266,1.24322234768721,-3.4588661356446,339.756665751111
738245.54464885394554585218,1.25553147984252,-3.43424787133396,339.89206620482
738245.54464894451666623354,1.21860408337657,-3.44655700348928,339.928993601286
738245.54464903508778661489,1.21860408337657,-3.47117526779992,339.965920997752
738245.54464912554249167442,1.20629495122125,-3.4588661356446,340.027466658528
738245.54464921611361205578,1.19398581906593,-3.4588661356446,340.089012319305
738245.54464930668473243713,1.18167668691061,-3.48348439995524,339.941302733441
738245.54464939713943749666,1.18167668691061,-3.47117526779992,340.064394054994
738245.54464948771055787802,1.18167668691061,-3.48348439995524,340.064394054994
738245.54464957828167825937,1.16936755475529,-3.48348439995524,339.965920997752
738245.54464966873638331890,1.16936755475529,-3.49579353211056,340.039775790684
738245.54464975930750370026,1.16936755475529,-3.48348439995524,340.07670318715
738245.54464984987862408161,1.16936755475529,-3.47117526779992,340.039775790684
738245.54464994033332914114,1.16936755475529,-3.48348439995524,339.953611865596
738245.54465003090444952250,1.18167668691061,-3.48348439995524,340.039775790684
738245.54465012147556990385,1.26784061199784,-3.32346568193609,340.052084922839
738245.54465021193027496338,1.53864151941486,-2.57260862046164,340.212103640858
738245.54465030250139534473,1.84636982329783,-1.55095065157018,340.445977151809
738245.54465039307251572609,2.06793420209357,-1.21860408337657,340.310576698101
738245.54465048352722078562,1.61249631234677,-2.84340952787866,339.867447940509
738245.54465057409834116697,1.32938627277444,-3.6558122501297,339.608956165248
738245.54465066466946154833,1.25553147984252,-3.5204117964212,339.805902279733
738245.54465075512416660786,1.23091321553189,-3.44655700348928,339.953611865596
738245.54465084569528698921,1.23091321553189,-3.42193873917865,340.027466658528
738245.54465093626640737057,1.20629495122125,-3.49579353211056,340.039775790684
738245.54465102672111243010,1.19398581906593,-3.47117526779992,340.002848394218
738245.54465111729223281145,1.18167668691061,-3.4588661356446,339.941302733441
738245.54465120786335319281,1.20629495122125,-3.44655700348928,339.965920997752
738245.54465129831805825233,1.18167668691061,-3.44655700348928,339.928993601286
738245.54465138888917863369,1.20629495122125,-3.40962960702333,339.928993601286
738245.54465147946029901505,1.20629495122125,-3.39732047486801,340.002848394218
738245.54465156991500407457,1.19398581906593,-3.43424787133396,340.002848394218
738245.54465166048612445593,1.21860408337657,-3.39732047486801,339.978230129907
738245.54465175105724483728,1.23091321553189,-3.38501134271269,340.002848394218
738245.54465184151194989681,1.21860408337657,-3.37270221055737,340.002848394218
738245.54465193208307027817,1.23091321553189,-3.36039307840205,340.064394054994
738245.54465202265419065952,1.28014974415316,-3.28653828547014,340.015157526373
738245.54465211310889571905,1.28014974415316,-3.28653828547014,340.10132145146
738245.54465220368001610041,1.29245887630848,-3.2619200211595,340.039775790684
738245.54465229425113648176,1.31707714061912,-3.22499262469354,339.965920997752
738245.54465238470584154129,1.3047680084638,-3.22499262469354,340.150557980082
738245.54465247527696192265,1.32938627277444,-3.17575609607227,340.212103640858
738245.54465256584808230400,1.34169540492976,-3.12651956745099,340.10132145146
738245.54465265630278736353,1.34169540492976,-3.08959217098504,340.212103640858
738245.54465274687390774488,1.37862280139571,-3.04035564236376,340.261340169479
738245.54465283744502812624,1.39093193355103,-2.99111911374248,340.273649301635
738245.54465292789973318577,1.40324106570635,-2.94188258512121,340.212103640858
738245.54465301847085356712,1.41555019786167,-2.99111911374248,340.261340169479
738245.54465310904197394848,1.40324106570635,-2.99111911374248,340.249031037324
738245.54465319949667900801,1.40324106570635,-2.97880998158717,340.125939715771
738245.54465329006779938936,1.36631366924039,-3.0649739066744,340.162867112237
738245.54465338063891977072,1.35400453708508,-3.17575609607227,340.162867112237
738245.54465347109362483025,1.3047680084638,-3.29884741762546,340.113630583616
738245.54465356166474521160,1.26784061199784,-3.32346568193609,340.052084922839
738245.54465365223586559296,1.25553147984252,-3.37270221055737,340.064394054994
738245.54465374269057065248,1.24322234768721,-3.40962960702333,340.089012319305
738245.54465383326169103384,1.23091321553189,-3.44655700348928,340.064394054994
738245.54465392383281141520,1.23091321553189,-3.43424787133396,340.015157526373
738245.54465401428751647472,1.23091321553189,-3.4588661356446,340.052084922839
738245.54465410485863685608,1.21860408337657,-3.4588661356446,340.07670318715
738245.54465419542975723743,1.23091321553189,-3.44655700348928,339.978230129907
738245.54465428588446229696,1.20629495122125,-3.44655700348928,340.015157526373
738245.54465437645558267832,1.23091321553189,-3.40962960702333,340.015157526373
738245.54465446702670305967,1.20629495122125,-3.50810266426588,339.941302733441
738245.54465455748140811920,1.21860408337657,-3.4588661356446,339.990539262062
738245.54465464805252850056,1.19398581906593,-3.47117526779992,339.990539262062
738245.54465473862364888191,1.25553147984252,-3.43424787133396,339.978230129907
738245.54465482907835394144,1.23091321553189,-3.48348439995524,340.002848394218
738245.54465491964947432280,1.21860408337657,-3.47117526779992,340.002848394218
738245.54465501022059470415,1.23091321553189,-3.44655700348928,340.002848394218
738245.54465510067529976368,1.23091321553189,-3.47117526779992,339.990539262062
738245.54465519124642014503,1.21860408337657,-3.47117526779992,340.015157526373
738245.54465528181754052639,1.21860408337657,-3.48348439995524,340.015157526373
738245.54465537227224558592,1.21860408337657,-3.4588661356446,340.027466658528
738245.54465546284336596727,1.23091321553189,-3.43424787133396,339.990539262062
738245.54465555341448634863,1.21860408337657,-3.49579353211056,340.002848394218
738245.54465564386919140816,1.23091321553189,-3.48348439995524,340.015157526373
738245.54465573444031178951,1.23091321553189,-3.47117526779992,339.978230129907
738245.54465582501143217087,1.24322234768721,-3.4588661356446,339.818211411888
738245.54465591546613723040,1.21860408337657,-3.47117526779992,339.916684469131
738245.54465600603725761175,1.21860408337657,-3.49579353211056,340.002848394218
738245.54465609660837799311,1.21860408337657,-3.48348439995524,340.015157526373
738245.54465618717949837446,1.21860408337657,-3.49579353211056,339.990539262062
738245.54465627763420343399,1.21860408337657,-3.4588661356446,339.916684469131
738245.54465636820532381535,1.23091321553189,-3.48348439995524,339.990539262062
738245.54465645877644419670,1.23091321553189,-3.50810266426588,339.978230129907
738245.54465654923114925623,1.23091321553189,-3.48348439995524,339.904375336975
738245.54465663980226963758,1.25553147984252,-3.48348439995524,339.965920997752
738245.54465673037339001894,1.26784061199784,-3.42193873917865,339.978230129907
738245.54465682082809507847,1.29245887630848,-3.40962960702333,339.953611865596
738245.54465691139921545982,1.28014974415316,-3.4588661356446,339.965920997752
738245.54465700197033584118,1.25553147984252,-3.49579353211056,339.965920997752
738245.54465709242504090071,1.23091321553189,-3.49579353211056,340.002848394218
738245.54465718299616128206,1.21860408337657,-3.49579353211056,339.953611865596
738245.54465727356728166342,1.21860408337657,-3.49579353211056,339.990539262062
738245.54465736402198672295,1.23091321553189,-3.48348439995524,340.002848394218
738245.54465745459310710430,1.21860408337657,-3.49579353211056,339.965920997752
738245.54465754516422748566,1.21860408337657,-3.48348439995524,339.978230129907
738245.54465763561893254519,1.21860408337657,-3.47117526779992,340.015157526373
738245.54465772619005292654,1.21860408337657,-3.53272092857652,340.002848394218
738245.54465781676117330790,1.21860408337657,-3.47117526779992,339.978230129907
738245.54465790721587836742,1.20629495122125,-3.50810266426588,340.002848394218
738245.54465799778699874878,1.20629495122125,-3.5204117964212,340.002848394218
738245.54465808835811913013,1.20629495122125,-3.50810266426588,339.953611865596
738245.54465817881282418966,1.31707714061912,-3.37270221055737,339.965920997752
738245.54465826938394457102,1.55095065157018,-2.68339080985951,340.187485376548
738245.54465835995506495237,1.83406069114251,-1.68635110527868,340.458286283965
738245.54465845040977001190,2.10486159855953,-1.20629495122125,340.384431491033
738245.54465854098089039326,1.74789676605528,-2.57260862046164,339.941302733441
738245.54465863155201077461,1.44016846217231,-3.63119398581907,339.608956165248
738245.54465872200671583414,1.3047680084638,-3.53272092857652,339.818211411888
738245.54465881257783621550,1.28014974415316,-3.48348439995524,339.904375336975
738245.54465890314895659685,1.28014974415316,-3.4588661356446,339.978230129907
738245.54465899360366165638,1.25553147984252,-3.48348439995524,339.990539262062
738245.54465908417478203773,1.23091321553189,-3.49579353211056,339.953611865596
738245.54465917474590241909,1.21860408337657,-3.49579353211056,340.002848394218
738245.54465926520060747862,1.23091321553189,-3.43424787133396,339.768974883267
738245.54465935577172785997,1.25553147984252,-3.40962960702333,339.768974883267
738245.54465944634284824133,1.25553147984252,-3.44655700348928,339.953611865596
738245.54465953679755330086,1.24322234768721,-3.42193873917865,339.978230129907
738245.54465962736867368221,1.28014974415316,-3.43424787133396,339.990539262062
738245.54465971793979406357,1.26784061199784,-3.43424787133396,339.953611865596
738245.54465980839449912310,1.26784061199784,-3.40962960702333,340.027466658528
738245.54465989896561950445,1.26784061199784,-3.40962960702333,340.07670318715
738245.54465998953673988581,1.28014974415316,-3.38501134271269,340.089012319305
738245.54466007999144494534,1.3047680084638,-3.34808394624673,340.039775790684
738245.54466017056256532669,1.32938627277444,-3.32346568193609,340.07670318715
738245.54466026113368570805,1.32938627277444,-3.29884741762546,340.089012319305
738245.54466035158839076757,1.35400453708508,-3.24961088900418,340.064394054994
738245.54466044215951114893,1.36631366924039,-3.18806522822759,340.125939715771
738245.54466053273063153028,1.36631366924039,-3.22499262469354,340.125939715771
738245.54466062318533658981,1.35400453708508,-3.16344696391695,340.125939715771
738245.54466071375645697117,1.41555019786167,-3.08959217098504,340.175176244392
738245.54466080432757735252,1.44016846217231,-3.05266477451908,340.212103640858
738245.54466089478228241205,1.44016846217231,-3.04035564236376,340.187485376548
738245.54466098535340279341,1.44016846217231,-2.99111911374248,340.224412773014
738245.54466107592452317476,1.42785933001699,-3.01573737805312,340.224412773014
738245.54466116637922823429,1.45247759432763,-2.99111911374248,340.199794508703
738245.54466125695034861565,1.44016846217231,-2.99111911374248,340.162867112237
738245.54466134752146899700,1.44016846217231,-3.05266477451908,340.162867112237
738245.54466143797617405653,1.41555019786167,-3.13882869960631,340.039775790684
738245.54466152854729443789,1.36631366924039,-3.22499262469354,340.039775790684
738245.54466161911841481924,1.37862280139571,-3.27422915331482,340.015157526373
738245.54466170957311987877,1.34169540492976,-3.34808394624673,340.027466658528
738245.54466180014424026012,1.3047680084638,-3.40962960702333,340.015157526373
738245.54466189071536064148,1.31707714061912,-3.40962960702333,339.978230129907
738245.54466198117006570101,1.3047680084638,-3.44655700348928,340.015157526373
738245.54466207174118608236,1.28014974415316,-3.44655700348928,340.015157526373
738245.54466216231230646372,1.28014974415316,-3.48348439995524,339.990539262062
738245.54466225276701152325,1.28014974415316,-3.48348439995524,339.941302733441
738245.54466234333813190460,1.28014974415316,-3.47117526779992,339.941302733441
738245.54466243390925228596,1.28014974415316,-3.44655700348928,339.928993601286
738245.54466252436395734549,1.31707714061912,-3.43424787133396,339.904375336975
738245.54466261493507772684,1.29245887630848,-3.48348439995524,339.928993601286
738245.54466270550619810820,1.29245887630848,-3.44655700348928,340.002848394218
738245.54466279596090316772,1.29245887630848,-3.43424787133396,339.744356618956
738245.54466288653202354908,1.31707714061912,-3.49579353211056,339.916684469131
738245.54466297710314393044,1.3047680084638,-3.4588661356446,340.002848394218
738245.54466306755784898996,1.29245887630848,-3.43424787133396,339.978230129907
738245.54466315812896937132,1.3047680084638,-3.43424787133396,339.916684469131
738245.54466324870008975267,1.3047680084638,-3.48348439995524,340.015157526373
