time_dn,ecg_projection_ll_ra_mV,ecg_projection_la_ra_mV,ecg_projection_vx_rl_mV
738335.42639788158703595400,-2.1540981271808,3.90199489323608,342.23080131433
738335.42639797204174101353,-2.2156437879574,3.84044923245949,342.243110446486
738335.42639806249644607306,-2.19102552364676,3.86506749677012,342.23080131433
738335.42639815283473581076,-2.16640725933612,3.88968576108076,342.193873917864
738335.42639824328944087029,-2.20333465580208,3.84044923245949,342.280037842952
738335.42639833374414592981,-2.20333465580208,3.84044923245949,342.304656107262
738335.42639842419885098934,-2.19102552364676,3.86506749677012,342.23080131433
738335.42639851465355604887,-2.17871639149144,3.86506749677012,342.329274371573
738335.42639860510826110840,-2.16640725933612,3.88968576108076,342.292346975107
738335.42639869556296616793,-2.19102552364676,3.86506749677012,342.292346975107
738335.42639878601767122746,-2.17871639149144,3.86506749677012,342.366201768039
738335.42639887635596096516,-2.17871639149144,3.86506749677012,342.316965239418
738335.42639896681066602468,-2.19102552364676,3.85275836461481,342.329274371573
738335.42639905726537108421,-2.20333465580208,3.82814010030417,342.353892635884
738335.42639914772007614374,-2.19102552364676,3.85275836461481,342.341583503728
738335.42639923817478120327,-2.16640725933612,3.86506749677012,342.304656107262
738335.42639932862948626280,-2.20333465580208,3.82814010030417,342.353892635884
738335.42639941908419132233,-2.17871639149144,3.86506749677012,342.341583503728
738335.42639950953889638186,-2.19102552364676,3.84044923245949,342.292346975107
738335.42639959987718611956,-2.20333465580208,3.84044923245949,342.378510900194
738335.42639969033189117908,-2.19102552364676,3.84044923245949,342.353892635884
738335.42639978078659623861,-2.2156437879574,3.82814010030417,342.23080131433
738335.42639987124130129814,-2.17871639149144,3.86506749677012,342.280037842952
738335.42639996169600635767,-2.16640725933612,3.86506749677012,342.341583503728
738335.42640005215071141720,-2.19102552364676,3.86506749677012,342.366201768039
738335.42640014260541647673,-2.20333465580208,3.84044923245949,342.267728710796
738335.42640023306012153625,-2.2156437879574,3.82814010030417,342.316965239418
738335.42640032351482659578,-2.19102552364676,3.86506749677012,342.218492182175
738335.42640041385311633348,-2.20333465580208,3.84044923245949,342.218492182175
738335.42640050430782139301,-2.19102552364676,3.85275836461481,342.218492182175
738335.42640059476252645254,-2.20333465580208,3.84044923245949,342.255419578641
738335.42640068521723151207,-2.19102552364676,3.85275836461481,342.280037842952
738335.42640077567193657160,-2.1540981271808,3.88968576108076,342.267728710796
738335.42640086612664163113,-2.22795292011272,3.81583096814885,342.169255653554
738335.42640095658134669065,-2.20333465580208,3.84044923245949,342.144637389243
738335.42640104703605175018,-2.20333465580208,3.85275836461481,342.304656107262
738335.42640113737434148788,-2.19102552364676,3.85275836461481,342.280037842952
738335.42640122782904654741,-2.16640725933612,3.87737662892544,342.304656107262
738335.42640131828375160694,-2.2156437879574,3.82814010030417,342.341583503728
738335.42640140873845666647,-2.19102552364676,3.86506749677012,342.329274371573
738335.42640149919316172600,-2.17871639149144,3.87737662892544,342.292346975107
738335.42640158964786678553,-2.24026205226803,3.81583096814885,342.316965239418
738335.42640168010257184505,-2.17871639149144,3.87737662892544,342.329274371573
738335.42640177055727690458,-2.1540981271808,3.88968576108076,342.316965239418
738335.42640186089556664228,-2.2156437879574,3.84044923245949,342.267728710796
738335.42640195135027170181,-2.17871639149144,3.87737662892544,342.329274371573
738335.42640204180497676134,-2.20333465580208,3.85275836461481,342.341583503728
738335.42640213225968182087,-2.19102552364676,3.86506749677012,342.243110446486
738335.42640222271438688040,-2.19102552364676,3.85275836461481,342.292346975107
738335.42640231316909193993,-2.19102552364676,3.85275836461481,342.304656107262
738335.42640240362379699945,-2.20333465580208,3.85275836461481,342.292346975107
738335.42640249407850205898,-2.2156437879574,3.84044923245949,342.255419578641
738335.42640258441679179668,-2.16640725933612,3.87737662892544,342.243110446486
738335.42640267487149685621,-2.1540981271808,3.90199489323608,342.23080131433
738335.42640276532620191574,-2.14178899502548,3.90199489323608,342.23080131433
738335.42640285578090697527,-2.12947986287016,3.92661315754672,342.20618305002
738335.42640294623561203480,-2.11717073071485,3.92661315754672,342.218492182175
738335.42640303669031709433,-2.10486159855953,3.92661315754672,342.280037842952
738335.42640312714502215385,-2.14178899502548,3.93892228970204,342.292346975107
738335.42640321759972721338,-2.1540981271808,3.93892228970204,342.353892635884
738335.42640330793801695108,-2.19102552364676,3.87737662892544,342.378510900194
738335.42640339839272201061,-2.16640725933612,3.87737662892544,342.280037842952
738335.42640348884742707014,-2.16640725933612,3.86506749677012,342.329274371573
738335.42640357930213212967,-2.24026205226803,3.80352183599353,342.366201768039
738335.42640366975683718920,-2.22795292011272,3.80352183599353,342.329274371573
738335.42640376021154224873,-2.19102552364676,3.85275836461481,342.353892635884
738335.42640385066624730825,-2.2156437879574,3.82814010030417,342.316965239418
738335.42640394112095236778,-2.16640725933612,3.87737662892544,342.329274371573
738335.42640403145924210548,-2.17871639149144,3.86506749677012,342.378510900194
738335.42640412191394716501,-2.20333465580208,3.84044923245949,342.341583503728
738335.42640421236865222454,-2.22795292011272,3.77890357168289,342.304656107262
738335.42640430282335728407,-2.36335337382122,3.55733919288715,342.366201768039
738335.42640439327806234360,-2.30180771304463,3.66812138228502,342.366201768039
738335.42640448373276740313,-1.93253374838506,4.23434146142969,342.304656107262
738335.42640457418747246265,-1.15705842259997,5.14521724092329,342.156946521399
738335.42640466464217752218,-0.76316619362977,5.82221950946582,341.947691274758
738335.42640475498046725988,-1.21860408337657,5.60065513067009,341.996927803379
738335.42640484543517231941,-1.9571520126957,4.49283323669139,342.083091728467
738335.42640493588987737894,-2.42489903459782,3.54503006073183,342.193873917864
738335.42640502634458243847,-2.47413556321909,3.5204117964212,342.316965239418
738335.42640511679928749800,-2.33873510951058,3.68043051444034,342.243110446486
738335.42640520725399255753,-2.22795292011272,3.79121270383821,342.120019124933
738335.42640529770869761705,-2.14178899502548,3.87737662892544,342.193873917864
738335.42640538816340267658,-2.11717073071485,3.9143040253914,342.243110446486
738335.42640547861810773611,-2.10486159855953,3.88968576108076,342.243110446486
738335.42640556895639747381,-2.10486159855953,3.9143040253914,342.23080131433
738335.42640565941110253334,-2.11717073071485,3.9143040253914,342.243110446486
738335.42640574986580759287,-2.11717073071485,3.9143040253914,342.20618305002
738335.42640584032051265240,-2.00638854131698,4.00046795047863,342.20618305002
738335.42640593077521771193,-2.09255246640421,3.93892228970204,342.20618305002
738335.42640602122992277145,-2.04331593778293,4.00046795047863,342.193873917864
738335.42640611168462783098,-2.04331593778293,3.98815881832331,342.20618305002
738335.42640620213933289051,-2.01869767347229,4.00046795047863,342.218492182175
738335.42640629247762262821,-2.00638854131698,4.02508621478927,342.267728710796
738335.42640638293232768774,-1.98177027700634,4.04970447909991,342.267728710796
738335.42640647338703274727,-1.9571520126957,4.09894100772118,342.243110446486
738335.42640656384173780680,-1.94484288054038,4.1112501398765,342.193873917864
738335.42640665429644286633,-1.93253374838506,4.12355927203182,342.218492182175
738335.42640674475114792585,-1.90791548407442,4.16048666849778,342.23080131433
738335.42640683520585298538,-1.82175155898719,4.24665059358501,342.20618305002
738335.42640692566055804491,-1.85867895545315,4.22203232927437,342.255419578641
738335.42640701599884778261,-1.7602058982106,4.34512365082756,342.218492182175
738335.42640710645355284214,-1.74789676605528,4.35743278298288,342.193873917864
738335.42640719690825790167,-1.66173284096805,4.45590584022543,342.23080131433
738335.42640728736296296120,-1.60018718019145,4.52976063315734,342.218492182175
738335.42640737781766802073,-1.5632597837255,4.5666880296233,342.193873917864
738335.42640746827237308025,-1.52633238725954,4.60361542608926,342.193873917864
738335.42640755872707813978,-1.5017141229489,4.64054282255521,342.193873917864
738335.42640764918178319931,-1.46478672648295,4.67747021902117,342.181564785709
738335.42640773952007293701,-1.51402325510422,4.60361542608926,342.169255653554
738335.42640782997477799654,-1.61249631234677,4.49283323669139,342.20618305002
738335.42640792042948305607,-1.80944242683187,4.27126885789565,342.181564785709
738335.42640801088418811560,-1.84636982329783,4.1727958006531,342.095400860622
738335.42640810133889317513,-1.92022461622974,4.09894100772118,342.243110446486
738335.42640819179359823465,-1.99407940916166,4.01277708263395,342.267728710796
738335.42640828224830329418,-2.05562506993825,3.93892228970204,342.316965239418
738335.42640837270300835371,-2.10486159855953,3.87737662892544,342.280037842952
738335.42640846304129809141,-2.10486159855953,3.88968576108076,342.329274371573
738335.42640855349600315094,-2.08024333424889,3.92661315754672,342.341583503728
738335.42640864395070821047,-2.11717073071485,3.87737662892544,342.292346975107
738335.42640873440541327000,-2.14178899502548,3.86506749677012,342.329274371573
738335.42640882486011832952,-2.10486159855953,3.88968576108076,342.304656107262
738335.42640891531482338905,-2.11717073071485,3.87737662892544,342.243110446486
738335.42640900576952844858,-2.08024333424889,3.92661315754672,342.329274371573
738335.42640909622423350811,-2.12947986287016,3.87737662892544,342.378510900194
738335.42640918656252324581,-2.09255246640421,3.88968576108076,342.353892635884
738335.42640927701722830534,-2.09255246640421,3.88968576108076,342.23080131433
738335.42640936747193336487,-2.10486159855953,3.87737662892544,342.243110446486
738335.42640945792663842440,-2.08024333424889,3.9143040253914,342.218492182175
738335.42640954838134348392,-2.11717073071485,3.87737662892544,342.255419578641
738335.42640963883604854345,-2.11717073071485,3.86506749677012,342.23080131433
738335.42640972929075360298,-2.08024333424889,3.92661315754672,342.23080131433
738335.42640981974545866251,-2.11717073071485,3.87737662892544,342.255419578641
738335.42640991008374840021,-2.09255246640421,3.88968576108076,342.193873917864
738335.42641000053845345974,-2.08024333424889,3.90199489323608,342.255419578641
738335.42641009099315851927,-2.09255246640421,3.90199489323608,342.243110446486
738335.42641018144786357880,-2.11717073071485,3.86506749677012,342.243110446486
738335.42641027190256863832,-2.06793420209357,3.9143040253914,342.280037842952
738335.42641036235727369785,-2.08024333424889,3.9143040253914,342.255419578641
738335.42641045281197875738,-2.11717073071485,3.86506749677012,342.267728710796
738335.42641054326668381691,-2.06793420209357,3.9143040253914,342.304656107262
738335.42641063360497355461,-2.08024333424889,3.90199489323608,342.304656107262
738335.42641072405967861414,-2.09255246640421,3.88968576108076,342.304656107262
738335.42641081451438367367,-2.10486159855953,3.86506749677012,342.304656107262
738335.42641090496908873320,-2.09255246640421,3.88968576108076,342.353892635884
738335.42641099542379379272,-2.12947986287016,3.85275836461481,342.341583503728
738335.42641108587849885225,-2.12947986287016,3.85275836461481,342.366201768039
738335.42641117633320391178,-2.06793420209357,3.9143040253914,342.304656107262
738335.42641126678790897131,-2.06793420209357,3.9143040253914,342.316965239418
738335.42641135724261403084,-2.09255246640421,3.86506749677012,342.341583503728
738335.42641144758090376854,-2.11717073071485,3.85275836461481,342.329274371573
738335.42641153803560882807,-2.06793420209357,3.9143040253914,342.132328257088
738335.42641162849031388760,-2.08024333424889,3.88968576108076,342.366201768039
738335.42641171894501894712,-2.09255246640421,3.87737662892544,342.353892635884
738335.42641180939972400665,-2.09255246640421,3.88968576108076,342.316965239418
738335.42641189985442906618,-2.09255246640421,3.87737662892544,342.329274371573
738335.42641199030913412571,-2.06793420209357,3.9143040253914,342.39082003235
738335.42641208076383918524,-2.10486159855953,3.86506749677012,342.304656107262
738335.42641217110212892294,-2.10486159855953,3.86506749677012,342.316965239418
738335.42641226155683398247,-2.03100680562761,3.93892228970204,342.366201768039
738335.42641235201153904200,-2.10486159855953,3.87737662892544,342.366201768039
738335.42641244246624410152,-2.08024333424889,3.90199489323608,342.292346975107
738335.42641253292094916105,-2.06793420209357,3.90199489323608,342.378510900194
738335.42641262337565422058,-2.09255246640421,3.87737662892544,342.353892635884
738335.42641271383035928011,-2.09255246640421,3.87737662892544,342.267728710796
738335.42641280428506433964,-2.08024333424889,3.90199489323608,342.316965239418
738335.42641289462335407734,-2.08024333424889,3.90199489323608,342.378510900194
738335.42641298507805913687,-2.10486159855953,3.88968576108076,342.316965239418
738335.42641307553276419640,-2.11717073071485,3.85275836461481,342.329274371573
738335.42641316598746925592,-2.01869767347229,3.95123142185736,342.243110446486
738335.42641325644217431545,-2.08024333424889,3.90199489323608,342.304656107262
738335.42641334689687937498,-2.10486159855953,3.87737662892544,342.292346975107
738335.42641343735158443451,-2.10486159855953,3.87737662892544,342.218492182175
738335.42641352780628949404,-2.06793420209357,3.9143040253914,342.329274371573
738335.42641361814457923174,-2.09255246640421,3.88968576108076,342.280037842952
738335.42641370859928429127,-2.08024333424889,3.90199489323608,342.255419578641
738335.42641379905398935080,-2.09255246640421,3.88968576108076,342.243110446486
738335.42641388950869441032,-2.08024333424889,3.88968576108076,342.243110446486
738335.42641397996339946985,-2.06793420209357,3.90199489323608,342.23080131433
738335.42641407041810452938,-2.04331593778293,3.95123142185736,342.304656107262
738335.42641416087280958891,-2.04331593778293,3.93892228970204,342.23080131433
738335.42641425132751464844,-2.00638854131698,3.96354055401268,342.243110446486
738335.42641434166580438614,-2.01869767347229,3.96354055401268,342.20618305002
738335.42641443212050944567,-2.01869767347229,3.96354055401268,342.267728710796
738335.42641452257521450520,-2.05562506993825,3.96354055401268,342.316965239418
738335.42641461302991956472,-2.05562506993825,3.97584968616799,342.316965239418
738335.42641470348462462425,-2.06793420209357,3.95123142185736,342.341583503728
738335.42641479393932968378,-2.10486159855953,3.88968576108076,342.366201768039
738335.42641488439403474331,-2.11717073071485,3.87737662892544,342.243110446486
738335.42641497484873980284,-2.10486159855953,3.88968576108076,342.255419578641
738335.42641506518702954054,-2.10486159855953,3.88968576108076,342.120019124933
738335.42641515564173460007,-2.09255246640421,3.90199489323608,342.366201768039
738335.42641524609643965960,-2.10486159855953,3.90199489323608,342.353892635884
738335.42641533655114471912,-2.11717073071485,3.88968576108076,342.341583503728
738335.42641542700584977865,-2.11717073071485,3.88968576108076,342.316965239418
738335.42641551746055483818,-2.09255246640421,3.90199489323608,342.353892635884
738335.42641560791525989771,-2.17871639149144,3.75428530737225,342.280037842952
738335.42641569836996495724,-2.32642597735527,3.54503006073183,342.427747428816
738335.42641578870825469494,-2.11717073071485,3.87737662892544,342.476983957437
738335.42641587916295975447,-1.63711457665741,4.55437889746798,342.329274371573
738335.42641596961766481400,-0.898566647338277,5.42832728049562,342.095400860622
738335.42641606007236987352,-0.738547929319132,5.94531083101901,341.996927803379
738335.42641615052707493305,-1.44016846217231,5.31754509109775,342.070782596311
738335.42641624098177999258,-2.09255246640421,4.07432274341055,342.156946521399
738335.42641633143648505211,-2.40028077028718,3.49579353211056,342.23080131433
738335.42641642189119011164,-2.3510442416659,3.60657572150843,342.316965239418
738335.42641651222947984934,-2.25257118442335,3.74197617521694,342.304656107262
738335.42641660268418490887,-2.1540981271808,3.84044923245949,342.366201768039
738335.42641669313888996840,-2.10486159855953,3.90199489323608,342.23080131433
738335.42641678359359502792,-2.08024333424889,3.93892228970204,342.255419578641
738335.42641687404830008745,-2.06793420209357,3.93892228970204,342.243110446486
738335.42641696450300514698,-2.04331593778293,3.97584968616799,342.23080131433
738335.42641705495771020651,-1.99407940916166,4.01277708263395,342.20618305002
738335.42641714541241526604,-2.04331593778293,3.96354055401268,342.267728710796
738335.42641723586712032557,-2.00638854131698,4.01277708263395,342.292346975107
738335.42641732620541006327,-1.99407940916166,4.02508621478927,342.218492182175
738335.42641741666011512280,-1.98177027700634,4.03739534694459,342.20618305002
738335.42641750711482018232,-1.98177027700634,4.04970447909991,342.218492182175
738335.42641759756952524185,-1.96946114485102,4.04970447909991,342.193873917864
738335.42641768802423030138,-1.94484288054038,4.08663187556586,342.20618305002
738335.42641777847893536091,-1.92022461622974,4.12355927203182,342.218492182175
738335.42641786893364042044,-1.89560635191911,4.13586840418714,342.23080131433
738335.42641795938834547997,-1.84636982329783,4.19741406496373,342.255419578641
738335.42641804972663521767,-1.87098808760847,4.18510493280842,342.255419578641
738335.42641814018134027719,-1.83406069114251,4.23434146142969,342.23080131433
738335.42641823063604533672,-1.78482416252124,4.28357799005097,342.243110446486
738335.42641832109075039625,-1.7602058982106,4.32050538651692,342.292346975107
738335.42641841154545545578,-1.68635110527868,4.40666931160415,342.267728710796
738335.42641850200016051531,-1.66173284096805,4.45590584022543,342.255419578641
738335.42641859245486557484,-1.63711457665741,4.46821497238075,342.083091728467
738335.42641868290957063437,-1.55095065157018,4.5666880296233,342.218492182175
738335.42641877324786037207,-1.48940499079358,4.64054282255521,342.23080131433
738335.42641886370256543159,-1.46478672648295,4.68977935117649,342.083091728467
738335.42641895415727049112,-1.41555019786167,4.75132501195308,342.120019124933
738335.42641904461197555065,-1.45247759432763,4.70208848333181,342.193873917864
738335.42641913506668061018,-1.53864151941486,4.59130629393394,342.193873917864
738335.42641922552138566971,-1.63711457665741,4.45590584022543,342.181564785709
738335.42641931597609072924,-1.7602058982106,4.3081962543616,342.20618305002
738335.42641940643079578876,-1.85867895545315,4.18510493280842,342.255419578641
738335.42641949676908552647,-1.96946114485102,4.07432274341055,342.329274371573
738335.42641958722379058599,-2.00638854131698,4.03739534694459,342.132328257088
738335.42641967767849564552,-2.04331593778293,4.00046795047863,342.280037842952
738335.42641976813320070505,-2.09255246640421,3.93892228970204,342.267728710796
738335.42641985858790576458,-2.06793420209357,3.97584968616799,342.329274371573
738335.42641994904261082411,-2.06793420209357,3.98815881832331,342.353892635884
738335.42642003949731588364,-2.12947986287016,3.92661315754672,342.292346975107
738335.42642012995202094316,-2.11717073071485,3.92661315754672,342.316965239418
738335.42642022029031068087,-2.11717073071485,3.93892228970204,342.341583503728
738335.42642031074501574039,-2.11717073071485,3.92661315754672,342.39082003235
738335.42642040119972079992,-2.1540981271808,3.90199489323608,342.280037842952
738335.42642049165442585945,-2.14178899502548,3.9143040253914,342.316965239418
738335.42642058210913091898,-2.09255246640421,3.96354055401268,342.39082003235
738335.42642067256383597851,-2.10486159855953,3.93892228970204,342.353892635884
738335.42642076301854103804,-2.11717073071485,3.95123142185736,342.280037842952
738335.42642085347324609756,-2.16640725933612,3.88968576108076,342.341583503728
738335.42642094381153583527,-2.08024333424889,3.97584968616799,342.378510900194
738335.42642103426624089479,-2.12947986287016,3.92661315754672,342.366201768039
738335.42642112472094595432,-2.10486159855953,3.95123142185736,342.304656107262
738335.42642121517565101385,-2.11717073071485,3.93892228970204,342.341583503728
738335.42642130563035607338,-2.11717073071485,3.95123142185736,342.292346975107
738335.42642139608506113291,-2.10486159855953,3.96354055401268,342.255419578641
738335.42642148653976619244,-2.10486159855953,3.96354055401268,342.267728710796
738335.42642157699447125196,-2.10486159855953,3.96354055401268,342.20618305002
738335.42642166733276098967,-2.10486159855953,3.97584968616799,342.20618305002
738335.42642175778746604919,-2.12947986287016,3.93892228970204,342.255419578641
738335.42642184824217110872,-2.16640725933612,3.9143040253914,342.292346975107
738335.42642193869687616825,-2.06793420209357,4.00046795047863,342.255419578641
738335.42642202915158122778,-2.14178899502548,3.92661315754672,342.070782596311
738335.42642211960628628731,-2.12947986287016,3.92661315754672,342.181564785709
738335.42642221006099134684,-2.09255246640421,3.97584968616799,342.292346975107
738335.42642230051569640636,-2.10486159855953,3.96354055401268,342.292346975107
738335.42642239085398614407,-2.16640725933612,3.90199489323608,342.23080131433
738335.42642248130869120359,-2.10486159855953,3.95123142185736,342.292346975107
738335.42642257176339626312,-2.11717073071485,3.93892228970204,342.280037842952
738335.42642266221810132265,-2.1540981271808,3.90199489323608,342.304656107262
738335.42642275267280638218,-2.12947986287016,3.93892228970204,342.378510900194
738335.42642284312751144171,-2.11717073071485,3.95123142185736,342.341583503728
738335.42642293358221650124,-2.11717073071485,3.95123142185736,342.292346975107
738335.42642302403692156076,-2.14178899502548,3.9143040253914,342.304656107262
738335.42642311449162662029,-2.11717073071485,3.9143040253914,342.304656107262
738335.42642320482991635799,-2.12947986287016,3.92661315754672,342.341583503728
738335.42642329528462141752,-2.14178899502548,3.90199489323608,342.255419578641
738335.42642338573932647705,-2.14178899502548,3.9143040253914,342.292346975107
738335.42642347619403153658,-2.06793420209357,3.97584968616799,342.255419578641
738335.42642356664873659611,-2.11717073071485,3.93892228970204,342.267728710796
738335.42642365710344165564,-2.11717073071485,3.92661315754672,342.316965239418
738335.42642374755814671516,-2.12947986287016,3.9143040253914,342.316965239418
738335.42642383801285177469,-2.14178899502548,3.90199489323608,342.316965239418
738335.42642392835114151239,-2.12947986287016,3.92661315754672,342.329274371573
738335.42642401880584657192,-2.10486159855953,3.92661315754672,342.353892635884
738335.42642410926055163145,-2.12947986287016,3.9143040253914,342.329274371573
738335.42642419971525669098,-2.11717073071485,3.92661315754672,342.292346975107
738335.42642429016996175051,-2.11717073071485,3.9143040253914,342.304656107262
738335.42642438062466681004,-2.10486159855953,3.93892228970204,342.341583503728
738335.42642447107937186956,-2.12947986287016,3.90199489323608,342.329274371573
738335.42642456153407692909,-2.03100680562761,4.00046795047863,342.255419578641
738335.42642465187236666679,-2.09255246640421,3.96354055401268,342.23080131433
738335.42642474232707172632,-2.06793420209357,3.96354055401268,342.218492182175
738335.42642483278177678585,-2.03100680562761,3.98815881832331,342.156946521399
738335.42642492323648184538,-2.04331593778293,3.96354055401268,342.181564785709
738335.42642501369118690491,-2.05562506993825,3.98815881832331,342.280037842952
738335.42642510414589196444,-2.09255246640421,3.96354055401268,342.255419578641
738335.42642519460059702396,-2.08024333424889,3.98815881832331,342.329274371573
738335.42642528505530208349,-2.11717073071485,3.92661315754672,342.366201768039
738335.42642537539359182119,-2.12947986287016,3.90199489323608,342.316965239418
738335.42642546584829688072,-2.06793420209357,3.96354055401268,342.316965239418
738335.42642555630300194025,-2.16640725933612,3.86506749677012,342.181564785709
738335.42642564675770699978,-2.16640725933612,3.86506749677012,342.243110446486
738335.42642573721241205931,-2.11717073071485,3.9143040253914,342.304656107262
738335.42642582766711711884,-2.14178899502548,3.87737662892544,342.329274371573
738335.42642591812182217836,-2.11717073071485,3.90199489323608,342.341583503728
738335.42642600857652723789,-2.16640725933612,3.84044923245949,342.329274371573
738335.42642609891481697559,-2.16640725933612,3.84044923245949,342.304656107262
738335.42642618936952203512,-2.24026205226803,3.68043051444034,342.329274371573
738335.42642627982422709465,-2.27718944873399,3.66812138228502,342.427747428816
738335.42642637027893215418,-1.89560635191911,4.19741406496373,342.341583503728
738335.42642646073363721371,-1.18167668691061,4.97288939074882,342.070782596311
738335.42642655118834227324,-0.627765739921262,5.64989165929136,341.787672556739
738335.42642664164304733276,-0.997039704580828,5.58834599851477,341.947691274758
738335.42642673209775239229,-1.84636982329783,4.54206976531266,342.058473464156
738335.42642682243604212999,-2.3510442416659,3.54503006073183,342.058473464156
738335.42642691289074718952,-2.4125899024425,3.50810266426588,342.20618305002
738335.42642700334545224905,-2.28949858088931,3.68043051444034,342.255419578641
738335.42642709380015730858,-2.22795292011272,3.75428530737225,342.292346975107
738335.42642718425486236811,-2.10486159855953,3.90199489323608,342.329274371573
738335.42642727470956742764,-2.06793420209357,3.93892228970204,342.280037842952
738335.42642736516427248716,-2.04331593778293,3.95123142185736,342.20618305002
738335.42642745561897754669,-2.05562506993825,3.95123142185736,342.280037842952
738335.42642754595726728439,-2.03100680562761,3.97584968616799,342.243110446486
738335.42642763641197234392,-2.01869767347229,4.00046795047863,342.304656107262
738335.42642772686667740345,-2.04331593778293,3.96354055401268,342.255419578641
738335.42642781732138246298,-1.9571520126957,4.03739534694459,342.255419578641
738335.42642790777608752251,-1.96946114485102,4.03739534694459,342.304656107262
738335.42642799823079258204,-1.98177027700634,4.01277708263395,342.23080131433
738335.42642808868549764156,-1.96946114485102,4.04970447909991,342.23080131433
738335.42642817914020270109,-1.94484288054038,4.06201361125523,342.243110446486
738335.42642826947849243879,-1.93253374838506,4.08663187556586,342.267728710796
738335.42642835993319749832,-1.90791548407442,4.1112501398765,342.292346975107
738335.42642845038790255785,-1.90791548407442,4.09894100772118,342.304656107262
738335.42642854084260761738,-1.80944242683187,4.20972319711905,342.267728710796
738335.42642863129731267691,-1.85867895545315,4.1727958006531,342.243110446486
738335.42642872175201773643,-1.77251503036592,4.25895972574033,342.243110446486
738335.42642881220672279596,-1.7602058982106,4.28357799005097,342.255419578641
738335.42642890266142785549,-1.71096936958932,4.34512365082756,342.243110446486
738335.42642899311613291502,-1.64942370881273,4.40666931160415,342.267728710796
738335.42642908345442265272,-1.58787804803613,4.46821497238075,342.02154606769
738335.42642917390912771225,-1.48940499079358,4.57899716177862,342.058473464156
738335.42642926436383277178,-1.47709585863826,4.60361542608926,342.083091728467
738335.42642935481853783131,-1.40324106570635,4.67747021902117,342.046164332001
738335.42642944527324289083,-1.40324106570635,4.67747021902117,342.058473464156
738335.42642953572794795036,-1.39093193355103,4.67747021902117,342.058473464156
738335.42642962618265300989,-1.52633238725954,4.51745150100202,342.095400860622
738335.42642971663735806942,-1.63711457665741,4.3697419151382,342.156946521399
738335.42642980697564780712,-1.71096936958932,4.29588712220628,342.20618305002
738335.42642989743035286665,-1.80944242683187,4.1727958006531,342.156946521399
738335.42642998788505792618,-1.92022461622974,4.04970447909991,342.181564785709
738335.42643007833976298571,-1.94484288054038,4.02508621478927,342.156946521399
738335.42643016879446804523,-2.01869767347229,3.95123142185736,342.181564785709
738335.42643025924917310476,-2.05562506993825,3.92661315754672,342.20618305002
738335.42643034970387816429,-2.06793420209357,3.9143040253914,342.218492182175
738335.42643044015858322382,-2.05562506993825,3.92661315754672,342.218492182175
738335.42643053049687296152,-2.09255246640421,3.88968576108076,342.267728710796
738335.42643062095157802105,-2.10486159855953,3.87737662892544,342.23080131433
738335.42643071140628308058,-2.09255246640421,3.87737662892544,342.267728710796
738335.42643080186098814011,-2.05562506993825,3.90199489323608,342.267728710796
738335.42643089231569319963,-2.10486159855953,3.87737662892544,342.329274371573
738335.42643098277039825916,-2.10486159855953,3.86506749677012,342.292346975107
738335.42643107322510331869,-2.08024333424889,3.90199489323608,342.20618305002
738335.42643116367980837822,-2.09255246640421,3.87737662892544,342.304656107262
738335.42643125401809811592,-2.11717073071485,3.85275836461481,342.280037842952
738335.42643134447280317545,-2.09255246640421,3.88968576108076,342.267728710796
738335.42643143492750823498,-2.09255246640421,3.87737662892544,342.255419578641
738335.42643152538221329451,-2.10486159855953,3.87737662892544,342.304656107262
738335.42643161583691835403,-2.04331593778293,3.92661315754672,342.267728710796
738335.42643170629162341356,-2.05562506993825,3.9143040253914,342.20618305002
738335.42643179674632847309,-2.09255246640421,3.87737662892544,342.267728710796
738335.42643188720103353262,-2.08024333424889,3.88968576108076,342.267728710796
738335.42643197753932327032,-2.05562506993825,3.9143040253914,342.280037842952
738335.42643206799402832985,-2.08024333424889,3.90199489323608,342.23080131433
738335.42643215844873338938,-2.08024333424889,3.88968576108076,342.267728710796
738335.42643224890343844891,-2.08024333424889,3.88968576108076,342.243110446486
738335.42643233935814350843,-2.08024333424889,3.88968576108076,342.280037842952
738335.42643242981284856796,-2.09255246640421,3.88968576108076,342.267728710796
738335.42643252026755362749,-2.11717073071485,3.87737662892544,342.341583503728
738335.42643261072225868702,-2.05562506993825,3.92661315754672,342.255419578641
738335.42643270106054842472,-2.11717073071485,3.86506749677012,342.341583503728
738335.42643279151525348425,-2.09255246640421,3.88968576108076,342.329274371573
738335.42643288196995854378,-2.10486159855953,3.86506749677012,342.243110446486
738335.42643297242466360331,-2.10486159855953,3.86506749677012,342.292346975107
738335.42643306287936866283,-2.09255246640421,3.88968576108076,342.341583503728
738335.42643315333407372236,-2.12947986287016,3.85275836461481,342.316965239418
738335.42643324378877878189,-2.09255246640421,3.88968576108076,342.255419578641
738335.42643333424348384142,-2.11717073071485,3.86506749677012,342.304656107262
738335.42643342458177357912,-2.14178899502548,3.81583096814885,342.292346975107
738335.42643351503647863865,-2.10486159855953,3.86506749677012,342.280037842952
738335.42643360549118369818,-2.10486159855953,3.86506749677012,342.280037842952
738335.42643369594588875771,-2.12947986287016,3.82814010030417,342.292346975107
738335.42643378640059381723,-2.11717073071485,3.85275836461481,342.341583503728
738335.42643387685529887676,-2.09255246640421,3.88968576108076,342.292346975107
738335.42643396731000393629,-2.12947986287016,3.85275836461481,342.329274371573
738335.42643405776470899582,-2.14178899502548,3.85275836461481,342.316965239418
738335.42643414810299873352,-2.10486159855953,3.86506749677012,342.280037842952
738335.42643423855770379305,-2.10486159855953,3.86506749677012,342.20618305002
738335.42643432901240885258,-2.10486159855953,3.86506749677012,342.20618305002
738335.42643441946711391211,-2.14178899502548,3.82814010030417,342.193873917864
738335.42643450992181897163,-2.10486159855953,3.84044923245949,342.193873917864
738335.42643460037652403116,-2.10486159855953,3.85275836461481,342.144637389243
738335.42643469083122909069,-2.08024333424889,3.87737662892544,342.169255653554
738335.42643478128593415022,-2.11717073071485,3.84044923245949,342.23080131433
738335.42643487174063920975,-2.11717073071485,3.84044923245949,342.243110446486
738335.42643496207892894745,-2.12947986287016,3.84044923245949,342.218492182175
738335.42643505253363400698,-2.08024333424889,3.88968576108076,342.23080131433
738335.42643514298833906651,-2.10486159855953,3.84044923245949,342.267728710796
738335.42643523344304412603,-2.10486159855953,3.82814010030417,342.255419578641
738335.42643532389774918556,-2.09255246640421,3.85275836461481,342.243110446486
738335.42643541435245424509,-2.09255246640421,3.86506749677012,342.20618305002
738335.42643550480715930462,-2.04331593778293,3.90199489323608,342.20618305002
738335.42643559526186436415,-2.05562506993825,3.90199489323608,342.23080131433
738335.42643568560015410185,-2.04331593778293,3.88968576108076,342.243110446486
738335.42643577605485916138,-2.05562506993825,3.9143040253914,342.255419578641
738335.42643586650956422091,-2.06793420209357,3.9143040253914,342.255419578641
738335.42643595696426928043,-2.06793420209357,3.92661315754672,342.255419578641
738335.42643604741897433996,-2.10486159855953,3.87737662892544,342.181564785709
738335.42643613787367939949,-2.12947986287016,3.84044923245949,342.156946521399
738335.42643622832838445902,-2.11717073071485,3.84044923245949,342.144637389243
738335.42643631878308951855,-2.14178899502548,3.84044923245949,342.243110446486
738335.42643640912137925625,-2.12947986287016,3.82814010030417,342.255419578641
738335.42643649957608431578,-2.12947986287016,3.84044923245949,342.255419578641
738335.42643659003078937531,-2.14178899502548,3.82814010030417,342.267728710796
738335.42643668048549443483,-2.12947986287016,3.84044923245949,342.23080131433
738335.42643677094019949436,-2.11717073071485,3.85275836461481,342.255419578641
738335.42643686139490455389,-2.17871639149144,3.76659443952757,342.267728710796
738335.42643695184960961342,-2.28949858088931,3.56964832504247,342.341583503728
738335.42643704230431467295,-2.26488031657867,3.66812138228502,342.378510900194
738335.42643713264260441065,-1.79713329467655,4.27126885789565,342.341583503728
738335.42643722309730947018,-1.45247759432763,4.64054282255521,342.267728710796
738335.42643731355201452971,-0.738547929319132,5.37909075187434,341.898454746137
738335.42643740400671958923,-0.603147475610625,5.80991037731051,341.83690908536
738335.42643749446142464876,-1.45247759432763,5.05905331583605,342.058473464156
738335.42643758491612970829,-2.17871639149144,3.84044923245949,342.169255653554
738335.42643767537083476782,-2.43720816675314,3.4588661356446,342.255419578641
738335.42643776582553982735,-2.3510442416659,3.58195745719779,342.280037842952
738335.42643785616382956505,-2.19102552364676,3.75428530737225,342.292346975107
738335.42643794661853462458,-2.10486159855953,3.85275836461481,342.267728710796
738335.42643803707323968410,-2.04331593778293,3.9143040253914,342.280037842952
738335.42643812752794474363,-2.05562506993825,3.88968576108076,342.156946521399
738335.42643821798264980316,-2.04331593778293,3.90199489323608,342.267728710796
738335.42643830843735486269,-2.05562506993825,3.90199489323608,342.304656107262
738335.42643839889205992222,-2.04331593778293,3.9143040253914,342.20618305002
738335.42643848934676498175,-2.00638854131698,3.96354055401268,342.280037842952
738335.42643857968505471945,-2.00638854131698,3.95123142185736,342.255419578641
738335.42643867013975977898,-1.99407940916166,3.97584968616799,342.23080131433
738335.42643876059446483850,-2.00638854131698,3.95123142185736,342.218492182175
738335.42643885104916989803,-1.99407940916166,3.97584968616799,342.255419578641
738335.42643894150387495756,-1.94484288054038,4.01277708263395,342.267728710796
738335.42643903195858001709,-1.90791548407442,4.06201361125523,342.181564785709
738335.42643912241328507662,-1.92022461622974,4.03739534694459,342.267728710796
738335.42643921286799013615,-1.93253374838506,4.03739534694459,342.20618305002
738335.42643930320627987385,-1.88329721976379,4.09894100772118,342.20618305002
738335.42643939366098493338,-1.85867895545315,4.09894100772118,342.193873917864
738335.42643948411568999290,-1.83406069114251,4.14817753634246,342.169255653554
738335.42643957457039505243,-1.78482416252124,4.19741406496373,342.144637389243
738335.42643966502510011196,-1.74789676605528,4.23434146142969,342.095400860622
738335.42643975547980517149,-1.68635110527868,4.3081962543616,341.935382142603
738335.42643984593451023102,-1.64942370881273,4.34512365082756,342.107709992777
738335.42643993638921529055,-1.52633238725954,4.46821497238075,342.144637389243
738335.42644002672750502825,-1.51402325510422,4.50514236884671,342.033855199845
738335.42644011718221008778,-1.51402325510422,4.50514236884671,342.132328257088
738335.42644020763691514730,-1.37862280139571,4.61592455824458,342.144637389243
738335.42644029809162020683,-1.40324106570635,4.60361542608926,342.070782596311
738335.42644038854632526636,-1.48940499079358,4.49283323669139,342.120019124933
738335.42644047900103032589,-1.58787804803613,4.3697419151382,342.132328257088
738335.42644056945573538542,-1.72327850174464,4.23434146142969,342.20618305002
738335.42644065991044044495,-1.84636982329783,4.08663187556586,342.156946521399
738335.42644075036514550447,-1.93253374838506,3.98815881832331,342.218492182175
738335.42644084070343524218,-1.96946114485102,3.95123142185736,342.156946521399
738335.42644093115814030170,-2.01869767347229,3.90199489323608,342.120019124933
738335.42644102161284536123,-2.05562506993825,3.87737662892544,342.23080131433
738335.42644111206755042076,-2.08024333424889,3.84044923245949,342.20618305002
738335.42644120252225548029,-2.04331593778293,3.88968576108076,342.304656107262
738335.42644129297696053982,-2.09255246640421,3.85275836461481,342.267728710796
738335.42644138343166559935,-2.09255246640421,3.85275836461481,342.316965239418
738335.42644147388637065887,-2.05562506993825,3.87737662892544,342.23080131433
738335.42644156422466039658,-2.10486159855953,3.84044923245949,342.316965239418
738335.42644165467936545610,-2.09255246640421,3.84044923245949,342.292346975107
738335.42644174513407051563,-2.09255246640421,3.84044923245949,342.20618305002
738335.42644183558877557516,-2.09255246640421,3.84044923245949,342.316965239418
738335.42644192604348063469,-2.14178899502548,3.80352183599353,342.304656107262
738335.42644201649818569422,-2.06793420209357,3.87737662892544,342.280037842952
738335.42644210695289075375,-2.08024333424889,3.86506749677012,342.280037842952
738335.42644219740759581327,-2.08024333424889,3.85275836461481,342.292346975107
738335.42644228774588555098,-2.11717073071485,3.81583096814885,342.280037842952
738335.42644237820059061050,-2.10486159855953,3.84044923245949,342.193873917864
738335.42644246865529567003,-2.04331593778293,3.88968576108076,342.20618305002
738335.42644255911000072956,-2.09255246640421,3.85275836461481,342.20618305002
738335.42644264956470578909,-2.08024333424889,3.85275836461481,342.193873917864
738335.42644274001941084862,-2.09255246640421,3.84044923245949,342.243110446486
738335.42644283047411590815,-2.11717073071485,3.82814010030417,342.193873917864
738335.42644292092882096767,-2.10486159855953,3.84044923245949,342.169255653554
738335.42644301126711070538,-2.06793420209357,3.86506749677012,342.181564785709
738335.42644310172181576490,-2.08024333424889,3.85275836461481,342.218492182175
738335.42644319217652082443,-2.09255246640421,3.84044923245949,342.193873917864
738335.42644328263122588396,-2.09255246640421,3.84044923245949,342.120019124933
738335.42644337308593094349,-2.09255246640421,3.85275836461481,342.218492182175
738335.42644346354063600302,-2.10486159855953,3.84044923245949,342.304656107262
738335.42644355399534106255,-2.10486159855953,3.84044923245949,342.292346975107
738335.42644364445004612207,-2.10486159855953,3.84044923245949,342.23080131433
738335.42644373478833585978,-2.09255246640421,3.85275836461481,342.23080131433
738335.42644382524304091930,-2.1540981271808,3.79121270383821,342.280037842952
738335.42644391569774597883,-2.10486159855953,3.82814010030417,342.255419578641
738335.42644400615245103836,-2.05562506993825,3.87737662892544,342.280037842952
738335.42644409660715609789,-2.12947986287016,3.80352183599353,342.292346975107
738335.42644418706186115742,-2.11717073071485,3.81583096814885,342.292346975107
738335.42644427751656621695,-2.10486159855953,3.81583096814885,342.243110446486
738335.42644436797127127647,-2.11717073071485,3.81583096814885,342.243110446486
738335.42644445830956101418,-2.08024333424889,3.85275836461481,342.280037842952
738335.42644454876426607370,-2.10486159855953,3.81583096814885,342.255419578641
738335.42644463921897113323,-2.11717073071485,3.81583096814885,342.255419578641
738335.42644472967367619276,-2.11717073071485,3.82814010030417,342.280037842952
738335.42644482012838125229,-2.12947986287016,3.81583096814885,342.304656107262
738335.42644491058308631182,-2.09255246640421,3.84044923245949,342.304656107262
738335.42644500103779137135,-2.08024333424889,3.85275836461481,342.23080131433
738335.42644509149249643087,-2.14178899502548,3.79121270383821,342.267728710796
738335.42644518183078616858,-2.09255246640421,3.82814010030417,342.243110446486
738335.42644527228549122810,-2.12947986287016,3.79121270383821,342.255419578641
738335.42644536274019628763,-2.04331593778293,3.87737662892544,342.267728710796
738335.42644545319490134716,-2.12947986287016,3.79121270383821,342.304656107262
738335.42644554364960640669,-2.11717073071485,3.81583096814885,342.341583503728
738335.42644563410431146622,-2.11717073071485,3.80352183599353,342.292346975107
738335.42644572455901652575,-2.08024333424889,3.82814010030417,342.280037842952
738335.42644581501372158527,-2.10486159855953,3.82814010030417,342.316965239418
738335.42644590546842664480,-2.12947986287016,3.80352183599353,342.267728710796
738335.42644599580671638250,-2.14178899502548,3.79121270383821,342.23080131433
738335.42644608626142144203,-2.06793420209357,3.85275836461481,342.292346975107
738335.42644617671612650156,-2.08024333424889,3.84044923245949,342.304656107262
738335.42644626717083156109,-2.08024333424889,3.84044923245949,342.243110446486
738335.42644635762553662062,-2.12947986287016,3.79121270383821,342.316965239418
738335.42644644808024168015,-2.09255246640421,3.80352183599353,342.280037842952
738335.42644653853494673967,-2.06793420209357,3.85275836461481,342.267728710796
738335.42644662898965179920,-2.08024333424889,3.85275836461481,342.255419578641
738335.42644671932794153690,-2.05562506993825,3.86506749677012,342.267728710796
738335.42644680978264659643,-2.03100680562761,3.87737662892544,342.120019124933
738335.42644690023735165596,-2.05562506993825,3.85275836461481,342.218492182175
738335.42644699069205671549,-2.06793420209357,3.86506749677012,342.267728710796
738335.42644708114676177502,-2.05562506993825,3.90199489323608,342.292346975107
738335.42644717160146683455,-2.09255246640421,3.87737662892544,342.20618305002
738335.42644726205617189407,-2.03100680562761,3.9143040253914,342.181564785709
738335.42644735251087695360,-2.11717073071485,3.80352183599353,342.144637389243
738335.42644744284916669130,-2.11717073071485,3.80352183599353,342.181564785709
738335.42644753330387175083,-2.12947986287016,3.79121270383821,342.193873917864
738335.42644762375857681036,-2.11717073071485,3.80352183599353,342.181564785709
738335.42644771421328186989,-2.12947986287016,3.80352183599353,342.144637389243
738335.42644780466798692942,-2.11717073071485,3.79121270383821,342.181564785709
738335.42644789512269198895,-2.10486159855953,3.80352183599353,342.218492182175
738335.42644798557739704847,-2.1540981271808,3.76659443952757,342.255419578641
738335.42644807603210210800,-2.11717073071485,3.79121270383821,342.267728710796
738335.42644816637039184570,-2.16640725933612,3.66812138228502,342.255419578641
738335.42644825682509690523,-2.28949858088931,3.50810266426588,342.304656107262
738335.42644834727980196476,-2.11717073071485,3.80352183599353,342.366201768039
738335.42644843773450702429,-1.93253374838506,4.06201361125523,342.267728710796
738335.42644852818921208382,-1.1078218939787,4.94827112643818,342.02154606769
738335.42644861864391714334,-0.553910946989349,5.63758252713604,341.738436028118
738335.42644870909862220287,-0.861639250872321,5.60065513067009,341.824599953205
738335.42644879955332726240,-1.71096936958932,4.62823369039989,341.996927803379
738335.42644888989161700010,-2.33873510951058,3.53272092857652,342.095400860622
738335.42644898034632205963,-2.37566250597654,3.47117526779992,342.193873917864
738335.42644907080102711916,-2.24026205226803,3.64350311797438,342.243110446486
738335.42644916125573217869,-2.12947986287016,3.75428530737225,342.218492182175
738335.42644925171043723822,-2.06793420209357,3.82814010030417,342.20618305002
738335.42644934216514229774,-2.04331593778293,3.86506749677012,342.218492182175
738335.42644943261984735727,-2.03100680562761,3.85275836461481,342.243110446486
738335.42644952307455241680,-2.00638854131698,3.87737662892544,342.23080131433
738335.42644961341284215450,-2.01869767347229,3.86506749677012,342.23080131433
738335.42644970386754721403,-2.06793420209357,3.84044923245949,342.267728710796
738335.42644979432225227356,-1.99407940916166,3.88968576108076,342.169255653554
738335.42644988477695733309,-1.89560635191911,3.98815881832331,342.243110446486
738335.42644997523166239262,-2.00638854131698,3.90199489323608,342.243110446486
738335.42645006568636745214,-1.96946114485102,3.9143040253914,342.181564785709
738335.42645015614107251167,-1.9571520126957,3.93892228970204,342.243110446486
738335.42645024659577757120,-1.9571520126957,3.95123142185736,342.193873917864
738335.42645033693406730890,-1.94484288054038,3.95123142185736,342.058473464156
738335.42645042738877236843,-1.84636982329783,4.04970447909991,342.107709992777
738335.42645051784347742796,-1.89560635191911,4.00046795047863,342.20618305002
738335.42645060829818248749,-1.92022461622974,3.98815881832331,342.218492182175
738335.42645069875288754702,-1.73558763389996,4.1727958006531,342.20618305002
738335.42645078920759260654,-1.82175155898719,4.08663187556586,342.169255653554
738335.42645087966229766607,-1.80944242683187,4.1112501398765,342.181564785709
738335.42645097011700272560,-1.63711457665741,4.28357799005097,342.169255653554
738335.42645106045529246330,-1.64942370881273,4.27126885789565,342.083091728467
738335.42645115090999752283,-1.58787804803613,4.34512365082756,342.181564785709
738335.42645124136470258236,-1.53864151941486,4.40666931160415,342.132328257088
738335.42645133181940764189,-1.48940499079358,4.46821497238075,342.02154606769
738335.42645142227411270142,-1.41555019786167,4.54206976531266,341.996927803379
738335.42645151272881776094,-1.37862280139571,4.57899716177862,341.996927803379
738335.42645160318352282047,-1.37862280139571,4.5666880296233,342.009236935535
738335.42645169363822788000,-1.5017141229489,4.43128757591479,342.033855199845
738335.42645178409293293953,-1.61249631234677,4.28357799005097,342.02154606769
738335.42645187443122267723,-1.72327850174464,4.13586840418714,342.046164332001
738335.42645196488592773676,-1.84636982329783,4.01277708263395,342.120019124933
738335.42645205534063279629,-1.93253374838506,3.9143040253914,342.132328257088
738335.42645214579533785582,-1.98177027700634,3.86506749677012,342.132328257088
738335.42645223625004291534,-1.94484288054038,3.90199489323608,342.095400860622
738335.42645232670474797487,-1.99407940916166,3.84044923245949,342.193873917864
738335.42645241715945303440,-2.03100680562761,3.81583096814885,342.20618305002
738335.42645250761415809393,-2.04331593778293,3.80352183599353,342.181564785709
738335.42645259795244783163,-2.05562506993825,3.79121270383821,342.23080131433
738335.42645268840715289116,-2.03100680562761,3.81583096814885,342.20618305002
738335.42645277886185795069,-2.01869767347229,3.82814010030417,342.193873917864
738335.42645286931656301022,-2.04331593778293,3.81583096814885,342.243110446486
738335.42645295977126806974,-2.06793420209357,3.79121270383821,342.267728710796
738335.42645305022597312927,-2.05562506993825,3.81583096814885,342.144637389243
738335.42645314068067818880,-2.04331593778293,3.81583096814885,342.23080131433
738335.42645323113538324833,-2.09255246640421,3.76659443952757,342.156946521399
738335.42645332147367298603,-1.98177027700634,3.87737662892544,342.144637389243
738335.42645341192837804556,-2.08024333424889,3.77890357168289,342.20618305002
738335.42645350238308310509,-2.04331593778293,3.80352183599353,342.20618305002
738335.42645359283778816462,-2.06793420209357,3.79121270383821,342.20618305002
738335.42645368329249322414,-2.01869767347229,3.84044923245949,342.23080131433
738335.42645377374719828367,-2.05562506993825,3.80352183599353,342.033855199845
738335.42645386420190334320,-2.03100680562761,3.82814010030417,342.120019124933
738335.42645395465660840273,-2.04331593778293,3.81583096814885,342.23080131433
738335.42645404499489814043,-2.08024333424889,3.77890357168289,342.243110446486
738335.42645413544960319996,-2.03100680562761,3.81583096814885,342.193873917864
738335.42645422590430825949,-1.99407940916166,3.85275836461481,342.23080131433
738335.42645431635901331902,-2.05562506993825,3.80352183599353,342.243110446486
738335.42645440681371837854,-2.08024333424889,3.77890357168289,342.255419578641
738335.42645449726842343807,-2.00638854131698,3.85275836461481,342.193873917864
738335.42645458772312849760,-2.04331593778293,3.80352183599353,342.218492182175
738335.42645467817783355713,-2.05562506993825,3.79121270383821,342.243110446486
738335.42645476851612329483,-2.04331593778293,3.80352183599353,342.23080131433
738335.42645485897082835436,-2.05562506993825,3.79121270383821,342.20618305002
738335.42645494942553341389,-2.01869767347229,3.82814010030417,342.255419578641
738335.42645503988023847342,-2.04331593778293,3.80352183599353,342.267728710796
738335.42645513033494353294,-2.06793420209357,3.79121270383821,342.20618305002
738335.42645522078964859247,-2.06793420209357,3.79121270383821,342.243110446486
738335.42645531124435365200,-2.05562506993825,3.77890357168289,342.243110446486
738335.42645540169905871153,-1.99407940916166,3.84044923245949,342.144637389243
738335.42645549203734844923,-2.04331593778293,3.77890357168289,342.255419578641
738335.42645558249205350876,-2.06793420209357,3.76659443952757,342.243110446486
738335.42645567294675856829,-2.06793420209357,3.80352183599353,342.243110446486
738335.42645576340146362782,-2.06793420209357,3.77890357168289,342.20618305002
738335.42645585385616868734,-2.06793420209357,3.77890357168289,342.181564785709
738335.42645594431087374687,-2.04331593778293,3.80352183599353,342.156946521399
738335.42645603476557880640,-2.08024333424889,3.76659443952757,342.144637389243
738335.42645612522028386593,-2.08024333424889,3.76659443952757,342.144637389243
738335.42645621555857360363,-1.98177027700634,3.85275836461481,342.070782596311
738335.42645630601327866316,-2.08024333424889,3.75428530737225,342.107709992777
738335.42645639646798372269,-2.08024333424889,3.76659443952757,342.120019124933
738335.42645648692268878222,-2.05562506993825,3.79121270383821,342.169255653554
738335.42645657737739384174,-1.99407940916166,3.84044923245949,342.156946521399
738335.42645666783209890127,-2.06793420209357,3.77890357168289,342.144637389243
738335.42645675828680396080,-2.05562506993825,3.77890357168289,342.218492182175
738335.42645684874150902033,-2.08024333424889,3.76659443952757,342.193873917864
738335.42645693907979875803,-2.05562506993825,3.79121270383821,342.193873917864
738335.42645702953450381756,-2.01869767347229,3.81583096814885,342.20618305002
738335.42645711998920887709,-2.04331593778293,3.79121270383821,342.20618305002
738335.42645721044391393661,-2.11717073071485,3.72966704306162,342.243110446486
738335.42645730089861899614,-2.04331593778293,3.79121270383821,342.058473464156
738335.42645739135332405567,-2.01869767347229,3.81583096814885,342.070782596311
738335.42645748180802911520,-2.03100680562761,3.80352183599353,342.20618305002
738335.42645757226273417473,-2.06793420209357,3.76659443952757,342.20618305002
738335.42645766271743923426,-2.04331593778293,3.80352183599353,342.243110446486
738335.42645775305572897196,-2.06793420209357,3.75428530737225,342.280037842952
738335.42645784351043403149,-2.04331593778293,3.79121270383821,342.255419578641
738335.42645793396513909101,-2.04331593778293,3.80352183599353,342.193873917864
738335.42645802441984415054,-2.05562506993825,3.77890357168289,342.181564785709
738335.42645811487454921007,-2.05562506993825,3.77890357168289,342.218492182175
738335.42645820532925426960,-2.05562506993825,3.79121270383821,342.255419578641
738335.42645829578395932913,-2.03100680562761,3.80352183599353,342.255419578641
738335.42645838623866438866,-2.03100680562761,3.80352183599353,342.243110446486
738335.42645847657695412636,-1.98177027700634,3.86506749677012,342.20618305002
738335.42645856703165918589,-1.96946114485102,3.86506749677012,342.267728710796
738335.42645865748636424541,-1.9571520126957,3.86506749677012,342.243110446486
738335.42645874794106930494,-2.00638854131698,3.82814010030417,342.156946521399
738335.42645883839577436447,-2.00638854131698,3.85275836461481,342.23080131433
738335.42645892885047942400,-2.00638854131698,3.86506749677012,342.243110446486
738335.42645901930518448353,-2.03100680562761,3.82814010030417,342.243110446486
738335.42645910975988954306,-2.10486159855953,3.72966704306162,342.280037842952
738335.42645920009817928076,-2.03100680562761,3.80352183599353,342.280037842952
738335.42645929055288434029,-2.01869767347229,3.80352183599353,342.255419578641
738335.42645938100758939981,-2.03100680562761,3.80352183599353,342.23080131433
738335.42645947146229445934,-2.11717073071485,3.7173579109063,342.23080131433
738335.42645956191699951887,-2.06793420209357,3.75428530737225,342.304656107262
738335.42645965237170457840,-2.08024333424889,3.75428530737225,342.23080131433
738335.42645974282640963793,-2.00638854131698,3.81583096814885,342.267728710796
738335.42645983328111469746,-2.05562506993825,3.77890357168289,342.169255653554
738335.42645992361940443516,-2.06793420209357,3.76659443952757,342.144637389243
738335.42646001407410949469,-2.12947986287016,3.61888485366375,342.193873917864
738335.42646010452881455421,-2.22795292011272,3.47117526779992,342.193873917864
738335.42646019498351961374,-2.03100680562761,3.79121270383821,342.280037842952
738335.42646028543822467327,-1.51402325510422,4.48052410453607,342.181564785709
738335.42646037589292973280,-0.713929665008494,5.36678161971903,341.886145613982
738335.42646046634763479233,-0.566220079144668,5.88376517024242,341.799981688894
738335.42646055680233985186,-1.32938627277444,5.20676290169988,341.923073010448
738335.42646064714062958956,-2.03100680562761,3.97584968616799,342.083091728467
738335.42646073759533464909,-2.30180771304463,3.44655700348928,342.107709992777
738335.42646082805003970861,-2.27718944873399,3.50810266426588,342.046164332001
738335.42646091850474476814,-2.14178899502548,3.6558122501297,342.058473464156
738335.42646100895944982767,-2.04331593778293,3.76659443952757,342.181564785709
738335.42646109941415488720,-1.98177027700634,3.82814010030417,342.144637389243
738335.42646118986885994673,-1.96946114485102,3.84044923245949,342.120019124933
738335.42646128032356500626,-1.96946114485102,3.82814010030417,342.169255653554
738335.42646137066185474396,-1.93253374838506,3.86506749677012,342.120019124933
738335.42646146111655980349,-1.96946114485102,3.84044923245949,342.107709992777
738335.42646155157126486301,-1.9571520126957,3.86506749677012,342.132328257088
738335.42646164202596992254,-1.96946114485102,3.85275836461481,342.156946521399
738335.42646173248067498207,-1.89560635191911,3.9143040253914,342.120019124933
738335.42646182293538004160,-1.88329721976379,3.9143040253914,342.132328257088
738335.42646191339008510113,-1.90791548407442,3.9143040253914,342.144637389243
738335.42646200384479016066,-1.85867895545315,3.95123142185736,342.169255653554
738335.42646209418307989836,-1.85867895545315,3.95123142185736,342.156946521399
738335.42646218463778495789,-1.84636982329783,3.97584968616799,342.20618305002
738335.42646227509249001741,-1.83406069114251,3.98815881832331,342.144637389243
738335.42646236554719507694,-1.80944242683187,4.02508621478927,342.156946521399
738335.42646245600190013647,-1.78482416252124,4.03739534694459,342.20618305002
738335.42646254645660519600,-1.73558763389996,4.09894100772118,342.156946521399
738335.42646263691131025553,-1.698660237434,4.14817753634246,342.120019124933
738335.42646272736601531506,-1.63711457665741,4.20972319711905,342.144637389243
738335.42646281770430505276,-1.58787804803613,4.27126885789565,342.169255653554
738335.42646290815901011229,-1.5632597837255,4.29588712220628,342.181564785709
738335.42646299861371517181,-1.46478672648295,4.40666931160415,342.046164332001
738335.42646308906842023134,-1.45247759432763,4.43128757591479,342.107709992777
738335.42646317952312529087,-1.36631366924039,4.54206976531266,342.070782596311
738335.42646326997783035040,-1.34169540492976,4.5666880296233,341.972309539069
738335.42646336043253540993,-1.3047680084638,4.59130629393394,342.033855199845
738335.42646345088724046946,-1.34169540492976,4.55437889746798,342.095400860622
738335.42646354134194552898,-1.44016846217231,4.41897844375947,342.107709992777
738335.42646363168023526669,-1.5017141229489,4.34512365082756,342.033855199845
738335.42646372213494032621,-1.64942370881273,4.16048666849778,342.144637389243
738335.42646381258964538574,-1.74789676605528,4.04970447909991,342.156946521399
738335.42646390304435044527,-1.82175155898719,3.95123142185736,342.156946521399
738335.42646399349905550480,-1.89560635191911,3.87737662892544,342.23080131433
738335.42646408395376056433,-1.92022461622974,3.84044923245949,342.243110446486
738335.42646417440846562386,-1.93253374838506,3.85275836461481,342.144637389243
738335.42646426486317068338,-1.92022461622974,3.85275836461481,342.120019124933
738335.42646435520146042109,-2.04331593778293,3.74197617521694,342.009236935535
738335.42646444565616548061,-1.92022461622974,3.86506749677012,341.984618671224
738335.42646453611087054014,-2.00638854131698,3.76659443952757,342.070782596311
738335.42646462656557559967,-1.94484288054038,3.84044923245949,342.144637389243
738335.42646471702028065920,-1.96946114485102,3.80352183599353,342.156946521399
738335.42646480747498571873,-2.00638854131698,3.76659443952757,342.120019124933
738335.42646489792969077826,-1.96946114485102,3.81583096814885,342.181564785709
738335.42646498838439583778,-1.9571520126957,3.82814010030417,342.144637389243
738335.42646507872268557549,-1.9571520126957,3.80352183599353,342.169255653554
738335.42646516917739063501,-1.98177027700634,3.80352183599353,342.156946521399
738335.42646525963209569454,-1.99407940916166,3.79121270383821,342.181564785709
738335.42646535008680075407,-2.00638854131698,3.77890357168289,342.169255653554
738335.42646544054150581360,-1.94484288054038,3.82814010030417,342.181564785709
738335.42646553099621087313,-1.98177027700634,3.80352183599353,342.169255653554
738335.42646562145091593266,-1.96946114485102,3.80352183599353,342.181564785709
738335.42646571190562099218,-1.93253374838506,3.85275836461481,342.193873917864
738335.42646580224391072989,-1.99407940916166,3.77890357168289,342.255419578641
738335.42646589269861578941,-1.9571520126957,3.82814010030417,342.243110446486
738335.42646598315332084894,-1.9571520126957,3.81583096814885,342.120019124933
738335.42646607360802590847,-1.9571520126957,3.81583096814885,342.156946521399
738335.42646616406273096800,-1.9571520126957,3.82814010030417,342.193873917864
738335.42646625451743602753,-1.9571520126957,3.82814010030417,342.20618305002
738335.42646634497214108706,-1.99407940916166,3.77890357168289,342.23080131433
738335.42646643542684614658,-1.98177027700634,3.77890357168289,342.181564785709
738335.42646652576513588428,-1.93253374838506,3.84044923245949,342.181564785709
738335.42646661621984094381,-1.90791548407442,3.86506749677012,342.218492182175
738335.42646670667454600334,-1.96946114485102,3.80352183599353,342.218492182175
738335.42646679712925106287,-1.98177027700634,3.79121270383821,342.20618305002
738335.42646688758395612240,-1.96946114485102,3.79121270383821,342.218492182175
738335.42646697803866118193,-1.98177027700634,3.79121270383821,342.243110446486
738335.42646706849336624146,-1.94484288054038,3.81583096814885,342.243110446486
738335.42646715894807130098,-1.94484288054038,3.81583096814885,342.255419578641
738335.42646724928636103868,-1.96946114485102,3.79121270383821,342.23080131433
738335.42646733974106609821,-1.9571520126957,3.81583096814885,342.23080131433
738335.42646743019577115774,-1.9571520126957,3.81583096814885,342.243110446486
738335.42646752065047621727,-2.03100680562761,3.72966704306162,342.23080131433
738335.42646761110518127680,-1.90791548407442,3.86506749677012,342.193873917864
738335.42646770155988633633,-1.9571520126957,3.80352183599353,342.255419578641
738335.42646779201459139585,-1.9571520126957,3.80352183599353,342.280037842952
738335.42646788246929645538,-1.98177027700634,3.80352183599353,342.095400860622
738335.42646797280758619308,-1.98177027700634,3.79121270383821,342.095400860622
738335.42646806326229125261,-1.9571520126957,3.82814010030417,342.083091728467
738335.42646815371699631214,-1.98177027700634,3.80352183599353,342.169255653554
738335.42646824417170137167,-1.99407940916166,3.77890357168289,342.156946521399
738335.42646833462640643120,-1.96946114485102,3.82814010030417,342.169255653554
738335.42646842508111149073,-1.9571520126957,3.82814010030417,342.193873917864
738335.42646851553581655025,-1.99407940916166,3.77890357168289,342.243110446486
738335.42646860599052160978,-2.01869767347229,3.75428530737225,342.255419578641
738335.42646869632881134748,-1.96946114485102,3.81583096814885,342.20618305002
738335.42646878678351640701,-1.93253374838506,3.85275836461481,342.20618305002
738335.42646887723822146654,-2.01869767347229,3.76659443952757,342.20618305002
738335.42646896769292652607,-2.03100680562761,3.76659443952757,342.156946521399
738335.42646905814763158560,-1.98177027700634,3.81583096814885,342.20618305002
738335.42646914860233664513,-2.00638854131698,3.80352183599353,342.193873917864
738335.42646923905704170465,-1.9571520126957,3.84044923245949,342.169255653554
738335.42646932951174676418,-2.03100680562761,3.76659443952757,342.23080131433
738335.42646941996645182371,-2.00638854131698,3.79121270383821,342.243110446486
738335.42646951030474156141,-1.99407940916166,3.80352183599353,342.243110446486
738335.42646960075944662094,-1.96946114485102,3.85275836461481,342.107709992777
738335.42646969121415168047,-2.03100680562761,3.77890357168289,342.169255653554
738335.42646978166885674000,-1.98177027700634,3.82814010030417,342.243110446486
738335.42646987212356179953,-2.00638854131698,3.81583096814885,342.218492182175
738335.42646996257826685905,-2.01869767347229,3.80352183599353,342.23080131433
738335.42647005303297191858,-1.99407940916166,3.84044923245949,342.20618305002
738335.42647014348767697811,-2.03100680562761,3.80352183599353,342.243110446486
738335.42647023382596671581,-1.99407940916166,3.84044923245949,342.267728710796
738335.42647032428067177534,-2.01869767347229,3.81583096814885,342.292346975107
738335.42647041473537683487,-2.00638854131698,3.82814010030417,342.181564785709
738335.42647050519008189440,-1.93253374838506,3.90199489323608,342.144637389243
738335.42647059564478695393,-1.9571520126957,3.87737662892544,342.169255653554
738335.42647068609949201345,-1.94484288054038,3.87737662892544,342.255419578641
738335.42647077655419707298,-1.96946114485102,3.87737662892544,342.144637389243
738335.42647086700890213251,-1.99407940916166,3.86506749677012,342.20618305002
738335.42647095734719187021,-1.9571520126957,3.9143040253914,342.280037842952
738335.42647104780189692974,-1.96946114485102,3.9143040253914,342.255419578641
738335.42647113825660198927,-2.00638854131698,3.85275836461481,342.156946521399
738335.42647122871130704880,-2.03100680562761,3.82814010030417,342.267728710796
738335.42647131916601210833,-2.06793420209357,3.80352183599353,342.280037842952
738335.42647140962071716785,-2.06793420209357,3.79121270383821,342.181564785709
738335.42647150007542222738,-2.03100680562761,3.81583096814885,342.107709992777
738335.42647159053012728691,-2.01869767347229,3.84044923245949,342.292346975107
738335.42647168086841702461,-2.06793420209357,3.81583096814885,342.23080131433
738335.42647177132312208414,-2.03100680562761,3.84044923245949,342.218492182175
738335.42647186177782714367,-2.04331593778293,3.82814010030417,342.292346975107
738335.42647195223253220320,-2.06793420209357,3.80352183599353,342.292346975107
738335.42647204268723726273,-2.14178899502548,3.68043051444034,342.156946521399
738335.42647213314194232225,-2.2156437879574,3.54503006073183,342.292346975107
738335.42647222359664738178,-2.04331593778293,3.86506749677012,342.403129164505
738335.42647231405135244131,-1.47709585863826,4.57899716177862,342.181564785709
738335.42647240438964217901,-0.775475325785089,5.40370901618498,341.984618671224
738335.42647249484434723854,-0.701620532853175,5.82221950946582,341.947691274758
738335.42647258529905229807,-1.45247759432763,5.12059897661265,342.046164332001
738335.42647267575375735760,-2.12947986287016,3.86506749677012,342.058473464156
738335.42647276620846241713,-2.32642597735527,3.48348439995524,342.095400860622
738335.42647285666316747665,-2.33873510951058,3.50810266426588,342.181564785709
738335.42647294711787253618,-2.16640725933612,3.7173579109063,342.255419578641
738335.42647303757257759571,-2.14178899502548,3.74197617521694,342.267728710796
738335.42647312791086733341,-2.05562506993825,3.86506749677012,342.255419578641
738335.42647321836557239294,-2.03100680562761,3.88968576108076,342.243110446486
738335.42647330882027745247,-2.01869767347229,3.88968576108076,342.218492182175
738335.42647339927498251200,-2.00638854131698,3.92661315754672,342.132328257088
738335.42647348972968757153,-1.98177027700634,3.93892228970204,342.120019124933
738335.42647358018439263105,-1.96946114485102,3.95123142185736,342.156946521399
738335.42647367063909769058,-1.99407940916166,3.93892228970204,342.20618305002
738335.42647376109380275011,-1.9571520126957,3.97584968616799,342.144637389243
738335.42647385143209248781,-1.98177027700634,3.96354055401268,342.169255653554
738335.42647394188679754734,-1.96946114485102,3.96354055401268,342.181564785709
738335.42647403234150260687,-1.85867895545315,4.07432274341055,342.156946521399
738335.42647412279620766640,-1.88329721976379,4.06201361125523,342.181564785709
738335.42647421325091272593,-1.89560635191911,4.06201361125523,342.193873917864
738335.42647430370561778545,-1.89560635191911,4.06201361125523,342.169255653554
738335.42647439416032284498,-1.85867895545315,4.1112501398765,342.132328257088
738335.42647448461502790451,-1.84636982329783,4.13586840418714,342.144637389243
738335.42647457495331764221,-1.82175155898719,4.16048666849778,342.156946521399
738335.42647466540802270174,-1.78482416252124,4.19741406496373,342.169255653554
738335.42647475586272776127,-1.7602058982106,4.24665059358501,342.169255653554
738335.42647484631743282080,-1.72327850174464,4.3081962543616,342.095400860622
738335.42647493677213788033,-1.71096936958932,4.33281451867224,341.996927803379
738335.42647502722684293985,-1.61249631234677,4.41897844375947,341.935382142603
738335.42647511768154799938,-1.51402325510422,4.54206976531266,342.058473464156
738335.42647520813625305891,-1.48940499079358,4.57899716177862,342.046164332001
738335.42647529859095811844,-1.44016846217231,4.64054282255521,342.070782596311
738335.42647538892924785614,-1.39093193355103,4.67747021902117,342.083091728467
738335.42647547938395291567,-1.46478672648295,4.61592455824458,342.107709992777
738335.42647556983865797520,-1.53864151941486,4.50514236884671,342.144637389243
738335.42647566029336303473,-1.63711457665741,4.39436017944884,342.046164332001
738335.42647575074806809425,-1.7602058982106,4.24665059358501,342.156946521399
738335.42647584120277315378,-1.84636982329783,4.13586840418714,342.169255653554
738335.42647593165747821331,-1.94484288054038,4.04970447909991,342.181564785709
738335.42647602211218327284,-2.04331593778293,3.95123142185736,342.23080131433
738335.42647611245047301054,-1.9571520126957,4.03739534694459,342.193873917864
738335.42647620290517807007,-2.09255246640421,3.90199489323608,342.255419578641
738335.42647629335988312960,-2.06793420209357,3.92661315754672,342.23080131433
738335.42647638381458818913,-2.09255246640421,3.90199489323608,342.267728710796
738335.42647647426929324865,-2.10486159855953,3.88968576108076,342.20618305002
738335.42647656472399830818,-2.10486159855953,3.88968576108076,342.193873917864
738335.42647665517870336771,-2.09255246640421,3.90199489323608,342.181564785709
738335.42647674563340842724,-2.1540981271808,3.84044923245949,342.181564785709
738335.42647683597169816494,-2.03100680562761,3.96354055401268,342.20618305002
738335.42647692642640322447,-2.09255246640421,3.90199489323608,342.193873917864
738335.42647701688110828400,-2.09255246640421,3.90199489323608,342.181564785709
738335.42647710733581334352,-2.12947986287016,3.85275836461481,342.132328257088
738335.42647719779051840305,-2.14178899502548,3.84044923245949,342.181564785709
738335.42647728824522346258,-2.00638854131698,3.98815881832331,342.181564785709
738335.42647737869992852211,-2.11717073071485,3.87737662892544,342.156946521399
738335.42647746915463358164,-2.05562506993825,3.92661315754672,342.218492182175
738335.42647755949292331934,-2.08024333424889,3.90199489323608,342.243110446486
738335.42647764994762837887,-2.09255246640421,3.88968576108076,342.243110446486
738335.42647774040233343840,-2.06793420209357,3.90199489323608,342.218492182175
738335.42647783085703849792,-2.03100680562761,3.93892228970204,342.267728710796
738335.42647792131174355745,-2.06793420209357,3.90199489323608,342.218492182175
738335.42647801176644861698,-2.09255246640421,3.87737662892544,342.169255653554
738335.42647810222115367651,-2.09255246640421,3.88968576108076,342.193873917864
738335.42647819267585873604,-2.06793420209357,3.90199489323608,342.132328257088
738335.42647828301414847374,-2.05562506993825,3.9143040253914,342.156946521399
738335.42647837346885353327,-2.01869767347229,3.95123142185736,342.169255653554
738335.42647846392355859280,-2.05562506993825,3.9143040253914,342.132328257088
738335.42647855437826365232,-2.05562506993825,3.90199489323608,342.009236935535
738335.42647864483296871185,-2.09255246640421,3.87737662892544,342.144637389243
738335.42647873528767377138,-2.09255246640421,3.86506749677012,342.144637389243
738335.42647882574237883091,-2.06793420209357,3.88968576108076,342.132328257088
738335.42647891619708389044,-2.08024333424889,3.87737662892544,342.181564785709
738335.42647900653537362814,-2.00638854131698,3.95123142185736,342.144637389243
738335.42647909699007868767,-2.09255246640421,3.87737662892544,342.243110446486
738335.42647918744478374720,-2.10486159855953,3.86506749677012,342.267728710796
738335.42647927789948880672,-2.03100680562761,3.92661315754672,342.218492182175
738335.42647936835419386625,-2.09255246640421,3.88968576108076,342.218492182175
738335.42647945880889892578,-2.10486159855953,3.86506749677012,342.243110446486
738335.42647954926360398531,-2.08024333424889,3.88968576108076,342.255419578641
738335.42647963971830904484,-2.08024333424889,3.87737662892544,342.255419578641
738335.42647973005659878254,-2.08024333424889,3.88968576108076,342.218492182175
738335.42647982051130384207,-2.10486159855953,3.86506749677012,342.292346975107
738335.42647991096600890160,-2.08024333424889,3.88968576108076,342.292346975107
738335.42648000142071396112,-2.04331593778293,3.92661315754672,342.243110446486
738335.42648009187541902065,-2.09255246640421,3.87737662892544,342.23080131433
738335.42648018233012408018,-2.10486159855953,3.86506749677012,342.255419578641
738335.42648027278482913971,-2.06793420209357,3.90199489323608,342.255419578641
738335.42648036323953419924,-2.10486159855953,3.85275836461481,342.255419578641
738335.42648045357782393694,-2.06793420209357,3.90199489323608,342.255419578641
738335.42648054403252899647,-2.09255246640421,3.86506749677012,342.267728710796
738335.42648063448723405600,-2.08024333424889,3.87737662892544,342.243110446486
738335.42648072494193911552,-2.09255246640421,3.86506749677012,342.292346975107
738335.42648081539664417505,-2.03100680562761,3.92661315754672,342.20618305002
738335.42648090585134923458,-2.08024333424889,3.88968576108076,342.280037842952
738335.42648099630605429411,-2.09255246640421,3.87737662892544,342.181564785709
738335.42648108676075935364,-2.08024333424889,3.88968576108076,342.193873917864
738335.42648117721546441317,-2.06793420209357,3.88968576108076,342.132328257088
738335.42648126755375415087,-2.06793420209357,3.88968576108076,342.156946521399
738335.42648135800845921040,-2.04331593778293,3.92661315754672,342.193873917864
738335.42648144846316426992,-2.01869767347229,3.95123142185736,342.181564785709
738335.42648153891786932945,-2.00638854131698,3.93892228970204,342.169255653554
738335.42648162937257438898,-2.03100680562761,3.9143040253914,342.132328257088
738335.42648171982727944851,-1.99407940916166,3.97584968616799,342.169255653554
738335.42648181028198450804,-2.12947986287016,3.85275836461481,342.23080131433
738335.42648190073668956757,-1.96946114485102,4.02508621478927,342.20618305002
738335.42648199107497930527,-2.03100680562761,3.93892228970204,342.181564785709
738335.42648208152968436480,-2.08024333424889,3.87737662892544,342.046164332001
738335.42648217198438942432,-2.10486159855953,3.82814010030417,342.23080131433
738335.42648226243909448385,-2.05562506993825,3.9143040253914,342.243110446486
738335.42648235289379954338,-2.08024333424889,3.86506749677012,342.169255653554
738335.42648244334850460291,-2.08024333424889,3.87737662892544,342.20618305002
738335.42648253380320966244,-2.06793420209357,3.88968576108076,342.243110446486
738335.42648262425791472197,-2.06793420209357,3.87737662892544,342.23080131433
738335.42648271459620445967,-2.06793420209357,3.87737662892544,342.243110446486
738335.42648280505090951920,-2.06793420209357,3.87737662892544,342.20618305002
738335.42648289550561457872,-2.14178899502548,3.75428530737225,342.20618305002
738335.42648298596031963825,-2.30180771304463,3.54503006073183,342.218492182175
738335.42648307641502469778,-2.12947986287016,3.80352183599353,342.316965239418
738335.42648316686972975731,-1.53864151941486,4.49283323669139,342.255419578641
738335.42648325732443481684,-0.87394838302764,5.16983550523392,341.972309539069
738335.42648334777913987637,-0.578529211299987,5.63758252713604,341.775363424584
738335.42648343811742961407,-1.13244015828934,5.29292682678711,341.83690908536
738335.42648352857213467360,-1.78482416252124,4.35743278298288,342.046164332001
738335.42648361902683973312,-2.38797163813186,3.44655700348928,342.009236935535
738335.42648370948154479265,-2.33873510951058,3.54503006073183,342.107709992777
738335.42648379993624985218,-2.20333465580208,3.7173579109063,342.169255653554
738335.42648389039095491171,-2.08024333424889,3.84044923245949,342.156946521399
738335.42648398084565997124,-2.04331593778293,3.88968576108076,342.120019124933
738335.42648407130036503077,-1.99407940916166,3.92661315754672,342.20618305002
738335.42648416163865476847,-1.98177027700634,3.93892228970204,342.20618305002
738335.42648425209335982800,-1.96946114485102,3.93892228970204,342.255419578641
738335.42648434254806488752,-2.04331593778293,3.88968576108076,342.23080131433
738335.42648443300276994705,-1.99407940916166,3.92661315754672,342.218492182175
738335.42648452345747500658,-1.80944242683187,4.12355927203182,342.243110446486
738335.42648461391218006611,-1.9571520126957,3.96354055401268,342.169255653554
738335.42648470436688512564,-1.9571520126957,3.96354055401268,342.218492182175
738335.42648479482159018517,-1.92022461622974,4.01277708263395,342.243110446486
738335.42648488515987992287,-1.88329721976379,4.03739534694459,342.132328257088
738335.42648497561458498240,-1.83406069114251,4.1112501398765,342.20618305002
738335.42648506606929004192,-1.85867895545315,4.07432274341055,342.20618305002
738335.42648515652399510145,-1.83406069114251,4.09894100772118,342.193873917864
738335.42648524697870016098,-1.82175155898719,4.1112501398765,342.169255653554
738335.42648533743340522051,-1.78482416252124,4.14817753634246,342.181564785709
738335.42648542788811028004,-1.73558763389996,4.18510493280842,342.193873917864
738335.42648551834281533957,-1.82175155898719,4.1112501398765,341.984618671224
738335.42648560868110507727,-1.52633238725954,4.39436017944884,342.02154606769
738335.42648569913581013680,-1.63711457665741,4.29588712220628,342.169255653554
738335.42648578959051519632,-1.57556891588082,4.35743278298288,342.120019124933
738335.42648588004522025585,-1.52633238725954,4.41897844375947,341.910763878292
738335.42648597049992531538,-1.5632597837255,4.3697419151382,342.046164332001
738335.42648606095463037491,-1.26784061199784,4.66516108686585,341.984618671224
738335.42648615140933543444,-1.31707714061912,4.62823369039989,342.009236935535
738335.42648624186404049397,-1.31707714061912,4.64054282255521,342.02154606769
738335.42648633231874555349,-1.34169540492976,4.60361542608926,342.009236935535
738335.42648642265703529119,-1.39093193355103,4.52976063315734,342.02154606769
738335.42648651311174035072,-1.48940499079358,4.43128757591479,342.058473464156
738335.42648660356644541025,-1.66173284096805,4.23434146142969,342.095400860622
738335.42648669402115046978,-1.80944242683187,4.07432274341055,342.120019124933
738335.42648678447585552931,-1.85867895545315,4.01277708263395,342.156946521399
738335.42648687493056058884,-1.83406069114251,4.04970447909991,342.193873917864
738335.42648696538526564837,-1.88329721976379,3.98815881832331,342.120019124933
738335.42648705583997070789,-2.12947986287016,3.75428530737225,342.120019124933
738335.42648714617826044559,-2.00638854131698,3.86506749677012,342.20618305002
738335.42648723663296550512,-1.66173284096805,4.22203232927437,342.132328257088
738335.42648732708767056465,-2.03100680562761,3.85275836461481,342.156946521399
738335.42648741754237562418,-2.00638854131698,3.88968576108076,342.169255653554
738335.42648750799708068371,-1.99407940916166,3.88968576108076,342.181564785709
738335.42648759845178574324,-1.9571520126957,3.9143040253914,342.169255653554
738335.42648768890649080276,-1.9571520126957,3.9143040253914,342.193873917864
738335.42648777936119586229,-1.96946114485102,3.90199489323608,342.193873917864
738335.42648786969948559999,-1.98177027700634,3.90199489323608,342.218492182175
738335.42648796015419065952,-1.96946114485102,3.90199489323608,342.169255653554
738335.42648805060889571905,-1.96946114485102,3.9143040253914,342.23080131433
738335.42648814106360077858,-1.96946114485102,3.90199489323608,342.218492182175
738335.42648823151830583811,-1.99407940916166,3.88968576108076,342.156946521399
738335.42648832197301089764,-2.09255246640421,3.77890357168289,342.243110446486
738335.42648841242771595716,-1.85867895545315,4.01277708263395,342.107709992777
738335.42648850288242101669,-1.96946114485102,3.9143040253914,342.107709992777
738335.42648859322071075439,-2.00638854131698,3.88968576108076,342.095400860622
738335.42648868367541581392,-2.01869767347229,3.86506749677012,342.095400860622
738335.42648877413012087345,-1.88329721976379,4.00046795047863,342.156946521399
738335.42648886458482593298,-1.96946114485102,3.9143040253914,342.181564785709
738335.42648895503953099251,-1.96946114485102,3.9143040253914,342.169255653554
738335.42648904549423605204,-1.9571520126957,3.92661315754672,342.033855199845
738335.42648913594894111156,-1.9571520126957,3.9143040253914,342.095400860622
738335.42648922640364617109,-1.96946114485102,3.9143040253914,342.132328257088
738335.42648931674193590879,-1.96946114485102,3.9143040253914,342.132328257088
738335.42648940719664096832,-1.9571520126957,3.9143040253914,342.120019124933
738335.42648949765134602785,-1.96946114485102,3.90199489323608,342.120019124933
738335.42648958810605108738,-2.00638854131698,3.85275836461481,342.120019124933
738335.42648967856075614691,-1.96946114485102,3.88968576108076,342.156946521399
738335.42648976901546120644,-1.9571520126957,3.88968576108076,342.132328257088
738335.42648985947016626596,-1.94484288054038,3.92661315754672,342.120019124933
738335.42648994992487132549,-1.96946114485102,3.88968576108076,342.156946521399
738335.42649004026316106319,-1.96946114485102,3.90199489323608,342.181564785709
738335.42649013071786612272,-2.04331593778293,3.84044923245949,342.132328257088
738335.42649022117257118225,-1.98177027700634,3.90199489323608,342.156946521399
738335.42649031162727624178,-1.87098808760847,3.98815881832331,342.193873917864
738335.42649040208198130131,-1.98177027700634,3.88968576108076,342.23080131433
738335.42649049253668636084,-1.98177027700634,3.88968576108076,342.169255653554
738335.42649058299139142036,-1.98177027700634,3.88968576108076,342.20618305002
738335.42649067344609647989,-1.96946114485102,3.88968576108076,342.169255653554
738335.42649076378438621759,-1.9571520126957,3.9143040253914,342.144637389243
738335.42649085423909127712,-1.93253374838506,3.93892228970204,342.132328257088
738335.42649094469379633665,-1.98177027700634,3.87737662892544,342.169255653554
738335.42649103514850139618,-1.98177027700634,3.88968576108076,342.144637389243
738335.42649112560320645571,-1.96946114485102,3.88968576108076,342.181564785709
738335.42649121605791151524,-1.98177027700634,3.87737662892544,342.20618305002
738335.42649130651261657476,-1.98177027700634,3.87737662892544,342.156946521399
738335.42649139696732163429,-2.00638854131698,3.85275836461481,342.23080131433
738335.42649148730561137199,-1.90791548407442,3.95123142185736,342.107709992777
738335.42649157776031643152,-1.94484288054038,3.90199489323608,342.132328257088
738335.42649166821502149105,-2.00638854131698,3.86506749677012,342.20618305002
738335.42649175866972655058,-1.96946114485102,3.90199489323608,342.193873917864
738335.42649184912443161011,-1.94484288054038,3.93892228970204,342.20618305002
738335.42649193957913666964,-1.96946114485102,3.90199489323608,342.083091728467
738335.42649203003384172916,-1.96946114485102,3.87737662892544,342.156946521399
738335.42649212048854678869,-1.9571520126957,3.87737662892544,342.144637389243
738335.42649221094325184822,-1.85867895545315,3.98815881832331,342.156946521399
738335.42649230128154158592,-1.93253374838506,3.93892228970204,342.144637389243
738335.42649239173624664545,-1.9571520126957,3.90199489323608,342.095400860622
738335.42649248219095170498,-1.99407940916166,3.86506749677012,342.070782596311
738335.42649257264565676451,-1.92022461622974,3.93892228970204,341.923073010448
738335.42649266310036182404,-1.9571520126957,3.90199489323608,341.984618671224
738335.42649275355506688356,-1.90791548407442,3.92661315754672,342.132328257088
738335.42649284400977194309,-1.9571520126957,3.88968576108076,342.132328257088
738335.42649293446447700262,-1.99407940916166,3.86506749677012,342.181564785709
738335.42649302480276674032,-1.99407940916166,3.86506749677012,342.218492182175
738335.42649311525747179985,-1.78482416252124,4.06201361125523,342.070782596311
738335.42649320571217685938,-1.84636982329783,4.00046795047863,342.132328257088
738335.42649329616688191891,-1.87098808760847,3.97584968616799,342.218492182175
738335.42649338662158697844,-1.89560635191911,3.93892228970204,342.181564785709
738335.42649347707629203796,-1.84636982329783,4.01277708263395,342.169255653554
738335.42649356753099709749,-1.88329721976379,4.01277708263395,342.169255653554
738335.42649365798570215702,-1.94484288054038,3.93892228970204,342.169255653554
738335.42649374832399189472,-1.94484288054038,3.92661315754672,342.218492182175
738335.42649383877869695425,-1.9571520126957,3.90199489323608,342.20618305002
738335.42649392923340201378,-1.99407940916166,3.87737662892544,342.156946521399
738335.42649401968810707331,-2.01869767347229,3.85275836461481,342.193873917864
738335.42649411014281213284,-1.92022461622974,3.95123142185736,342.144637389243
738335.42649420059751719236,-1.87098808760847,4.00046795047863,342.169255653554
738335.42649429105222225189,-1.98177027700634,3.87737662892544,342.144637389243
738335.42649438150692731142,-1.96946114485102,3.90199489323608,342.107709992777
738335.42649447184521704912,-1.96946114485102,3.88968576108076,342.144637389243
738335.42649456229992210865,-1.96946114485102,3.86506749677012,342.120019124933
738335.42649465275462716818,-2.06793420209357,3.70504877875098,342.107709992777
738335.42649474320933222771,-2.11717073071485,3.63119398581907,342.193873917864
738335.42649483366403728724,-1.87098808760847,4.01277708263395,342.304656107262
738335.42649492411874234676,-1.28014974415316,4.67747021902117,342.083091728467
738335.42649501457344740629,-0.504674418368074,5.45294554480626,341.726126895962
738335.42649510502815246582,-0.320037436038291,5.74836471653391,341.62765383872
738335.42649519536644220352,-0.713929665008494,5.56372773420413,341.726126895962
738335.42649528582114726305,-1.61249631234677,4.55437889746798,341.947691274758
738335.42649537627585232258,-2.20333465580208,3.58195745719779,342.046164332001
738335.42649546673055738211,-2.24026205226803,3.55733919288715,342.169255653554
738335.42649555718526244164,-2.1540981271808,3.68043051444034,342.20618305002
738335.42649564763996750116,-1.85867895545315,3.96354055401268,342.107709992777
738335.42649573809467256069,-1.93253374838506,3.90199489323608,342.144637389243
738335.42649582854937762022,-1.90791548407442,3.92661315754672,342.181564785709
738335.42649591888766735792,-1.79713329467655,4.03739534694459,342.120019124933
738335.42649600934237241745,-1.87098808760847,3.95123142185736,342.107709992777
738335.42649609979707747698,-1.87098808760847,3.95123142185736,341.996927803379
738335.42649619025178253651,-1.87098808760847,3.97584968616799,342.009236935535
738335.42649628070648759604,-1.85867895545315,3.98815881832331,342.120019124933
738335.42649637116119265556,-1.73558763389996,4.09894100772118,342.107709992777
738335.42649646161589771509,-1.82175155898719,4.02508621478927,342.169255653554
738335.42649655207060277462,-1.83406069114251,4.01277708263395,342.193873917864
738335.42649664240889251232,-1.79713329467655,4.03739534694459,342.181564785709
738335.42649673286359757185,-1.73558763389996,4.1112501398765,342.095400860622
738335.42649682331830263138,-1.73558763389996,4.1112501398765,342.144637389243
738335.42649691377300769091,-1.73558763389996,4.1112501398765,342.144637389243
738335.42649700422771275043,-1.74789676605528,4.09894100772118,342.169255653554
738335.42649709468241780996,-1.67404197312337,4.16048666849778,342.095400860622
738335.42649718513712286949,-1.63711457665741,4.22203232927437,342.070782596311
738335.42649727559182792902,-1.64942370881273,4.22203232927437,342.046164332001
738335.42649736593011766672,-1.64942370881273,4.22203232927437,341.996927803379
738335.42649745638482272625,-1.51402325510422,4.3697419151382,342.046164332001
738335.42649754683952778578,-1.48940499079358,4.38205104729352,342.033855199845
738335.42649763729423284531,-1.44016846217231,4.45590584022543,342.009236935535
738335.42649772774893790483,-1.35400453708508,4.54206976531266,342.046164332001
738335.42649781820364296436,-1.3047680084638,4.59130629393394,342.046164332001
738335.42649790865834802389,-1.25553147984252,4.64054282255521,342.046164332001
738335.42649799911305308342,-1.25553147984252,4.64054282255521,341.996927803379
738335.42649808956775814295,-1.25553147984252,4.62823369039989,342.058473464156
738335.42649817990604788065,-1.34169540492976,4.52976063315734,342.046164332001
738335.42649827036075294018,-1.45247759432763,4.39436017944884,341.984618671224
738335.42649836081545799971,-1.62480544450209,4.22203232927437,342.107709992777
738335.42649845127016305923,-1.73558763389996,4.08663187556586,342.169255653554
738335.42649854172486811876,-1.74789676605528,4.07432274341055,342.058473464156
738335.42649863217957317829,-1.77251503036592,4.04970447909991,342.169255653554
738335.42649872263427823782,-1.84636982329783,3.97584968616799,342.193873917864
738335.42649881308898329735,-1.90791548407442,3.9143040253914,342.156946521399
738335.42649890342727303505,-1.92022461622974,3.90199489323608,342.132328257088
738335.42649899388197809458,-1.90791548407442,3.93892228970204,342.107709992777
738335.42649908433668315411,-1.90791548407442,3.93892228970204,342.107709992777
738335.42649917479138821363,-1.90791548407442,3.95123142185736,342.181564785709
738335.42649926524609327316,-1.9571520126957,3.90199489323608,342.156946521399
738335.42649935570079833269,-1.93253374838506,3.90199489323608,342.144637389243
738335.42649944615550339222,-1.85867895545315,3.98815881832331,342.132328257088
738335.42649953661020845175,-1.90791548407442,3.93892228970204,342.156946521399
738335.42649962694849818945,-1.90791548407442,3.93892228970204,342.107709992777
738335.42649971740320324898,-1.92022461622974,3.92661315754672,342.058473464156
738335.42649980785790830851,-1.92022461622974,3.9143040253914,342.193873917864
738335.42649989831261336803,-1.90791548407442,3.95123142185736,342.218492182175
738335.42649998876731842756,-1.90791548407442,3.95123142185736,342.181564785709
738335.42650007922202348709,-1.90791548407442,3.93892228970204,342.156946521399
738335.42650016967672854662,-1.89560635191911,3.95123142185736,342.120019124933
738335.42650026013143360615,-1.92022461622974,3.9143040253914,342.144637389243
738335.42650035046972334385,-1.92022461622974,3.9143040253914,342.144637389243
738335.42650044092442840338,-1.82175155898719,4.01277708263395,342.144637389243
738335.42650053137913346291,-1.9571520126957,3.88968576108076,342.144637389243
738335.42650062183383852243,-1.89560635191911,3.93892228970204,342.181564785709
738335.42650071228854358196,-1.85867895545315,3.96354055401268,342.193873917864
738335.42650080274324864149,-1.89560635191911,3.93892228970204,342.243110446486
738335.42650089319795370102,-1.92022461622974,3.92661315754672,342.120019124933
738335.42650098365265876055,-1.90791548407442,3.93892228970204,342.20618305002
738335.42650107399094849825,-1.90791548407442,3.93892228970204,342.20618305002
738335.42650116444565355778,-1.92022461622974,3.9143040253914,342.267728710796
738335.42650125490035861731,-1.92022461622974,3.9143040253914,342.120019124933
738335.42650134535506367683,-1.89560635191911,3.93892228970204,342.243110446486
738335.42650143580976873636,-1.7602058982106,4.06201361125523,342.20618305002
738335.42650152626447379589,-1.9571520126957,3.86506749677012,342.132328257088
738335.42650161671917885542,-1.92022461622974,3.90199489323608,342.23080131433
738335.42650170717388391495,-1.90791548407442,3.9143040253914,342.267728710796
738335.42650179751217365265,-1.92022461622974,3.88968576108076,342.23080131433
738335.42650188796687871218,-1.90791548407442,3.90199489323608,342.169255653554
738335.42650197842158377171,-1.90791548407442,3.90199489323608,342.23080131433
738335.42650206887628883123,-1.90791548407442,3.90199489323608,342.218492182175
738335.42650215933099389076,-1.92022461622974,3.9143040253914,342.169255653554
738335.42650224978569895029,-1.93253374838506,3.88968576108076,342.193873917864
738335.42650234024040400982,-1.90791548407442,3.90199489323608,342.20618305002
738335.42650243069510906935,-1.88329721976379,3.93892228970204,342.20618305002
738335.42650252103339880705,-1.93253374838506,3.87737662892544,342.132328257088
738335.42650261148810386658,-1.89560635191911,3.92661315754672,342.193873917864
738335.42650270194280892611,-1.92022461622974,3.90199489323608,342.23080131433
738335.42650279239751398563,-1.96946114485102,3.86506749677012,342.23080131433
738335.42650288285221904516,-1.9571520126957,3.87737662892544,342.218492182175
738335.42650297330692410469,-1.85867895545315,3.95123142185736,342.23080131433
738335.42650306376162916422,-1.93253374838506,3.90199489323608,342.169255653554
738335.42650315421633422375,-1.92022461622974,3.90199489323608,341.996927803379
738335.42650324455462396145,-1.90791548407442,3.9143040253914,342.107709992777
738335.42650333500932902098,-1.93253374838506,3.90199489323608,342.181564785709
738335.42650342546403408051,-1.93253374838506,3.86506749677012,342.20618305002
738335.42650351591873914003,-1.9571520126957,3.85275836461481,342.169255653554
738335.42650360637344419956,-1.89560635191911,3.87737662892544,342.156946521399
738335.42650369682814925909,-1.92022461622974,3.9143040253914,342.181564785709
738335.42650378728285431862,-1.94484288054038,3.80352183599353,342.255419578641
738335.42650387773755937815,-1.88329721976379,3.9143040253914,342.243110446486
738335.42650396819226443768,-1.96946114485102,3.86506749677012,342.132328257088
738335.42650405853055417538,-1.90791548407442,3.80352183599353,342.243110446486
738335.42650414898525923491,-1.89560635191911,3.87737662892544,342.218492182175
738335.42650423943996429443,-1.89560635191911,3.88968576108076,342.181564785709
738335.42650432989466935396,-1.90791548407442,3.96354055401268,342.120019124933
738335.42650442034937441349,-1.94484288054038,3.95123142185736,342.181564785709
738335.42650451080407947302,-1.94484288054038,3.88968576108076,342.255419578641
738335.42650460125878453255,-1.92022461622974,3.69273964659566,342.23080131433
738335.42650469171348959208,-1.89560635191911,3.85275836461481,342.120019124933
738335.42650478205177932978,-1.92022461622974,3.95123142185736,342.23080131433
738335.42650487250648438931,-1.92022461622974,3.95123142185736,342.255419578641
738335.42650496296118944883,-1.92022461622974,3.92661315754672,342.120019124933
738335.42650505341589450836,-1.94484288054038,3.82814010030417,342.255419578641
738335.42650514387059956789,-1.89560635191911,3.92661315754672,342.218492182175
738335.42650523432530462742,-1.84636982329783,3.98815881832331,342.181564785709
738335.42650532478000968695,-1.88329721976379,3.92661315754672,342.218492182175
738335.42650541523471474648,-1.87098808760847,3.92661315754672,342.243110446486
738335.42650550557300448418,-1.88329721976379,3.9143040253914,342.193873917864
738335.42650559602770954370,-1.90791548407442,3.88968576108076,342.193873917864
738335.42650568648241460323,-1.83406069114251,3.98815881832331,342.267728710796
738335.42650577693711966276,-1.90791548407442,3.87737662892544,342.218492182175
738335.42650586739182472229,-1.93253374838506,3.80352183599353,342.144637389243
738335.42650595784652978182,-1.9571520126957,3.82814010030417,342.267728710796
738335.42650604830123484135,-1.94484288054038,3.9143040253914,342.255419578641
738335.42650613875593990088,-1.9571520126957,3.9143040253914,342.193873917864
738335.42650622909422963858,-1.9571520126957,3.87737662892544,342.243110446486
738335.42650631954893469810,-1.9571520126957,3.86506749677012,342.292346975107
738335.42650641000363975763,-1.98177027700634,3.84044923245949,342.267728710796
738335.42650650045834481716,-1.98177027700634,3.84044923245949,342.23080131433
738335.42650659091304987669,-1.94484288054038,3.87737662892544,342.280037842952
738335.42650668136775493622,-1.94484288054038,3.86506749677012,342.20618305002
738335.42650677182245999575,-2.09255246640421,3.59426658935311,342.02154606769
738335.42650686227716505527,-2.12947986287016,3.44655700348928,342.292346975107
738335.42650695261545479298,-1.79713329467655,4.08663187556586,342.353892635884
738335.42650704307015985250,-1.14474929044465,4.91134372997223,342.033855199845
738335.42650713352486491203,-0.529292682678711,5.62527339498072,341.787672556739
738335.42650722397956997156,-0.677002268542538,5.84683777377646,341.886145613982
738335.42650731443427503109,-1.5017141229489,4.91134372997223,342.070782596311
738335.42650740488898009062,-2.12947986287016,3.7173579109063,342.095400860622
738335.42650749534368515015,-2.26488031657867,3.47117526779992,342.132328257088
738335.42650758579839020967,-2.19102552364676,3.54503006073183,342.181564785709
738335.42650767613667994738,-1.94484288054038,3.86506749677012,342.20618305002
738335.42650776659138500690,-1.94484288054038,3.74197617521694,342.181564785709
738335.42650785704609006643,-1.94484288054038,3.84044923245949,342.181564785709
738335.42650794750079512596,-1.93253374838506,3.98815881832331,342.144637389243
738335.42650803795550018549,-1.90791548407442,3.98815881832331,342.156946521399
738335.42650812841020524502,-1.87098808760847,3.98815881832331,342.083091728467
738335.42650821886491030455,-1.88329721976379,3.97584968616799,342.181564785709
738335.42650830931961536407,-1.88329721976379,3.97584968616799,342.144637389243
738335.42650839965790510178,-1.87098808760847,3.96354055401268,342.169255653554
738335.42650849011261016130,-1.84636982329783,3.98815881832331,342.181564785709
738335.42650858056731522083,-1.84636982329783,3.93892228970204,342.156946521399
738335.42650867102202028036,-1.83406069114251,4.02508621478927,342.193873917864
738335.42650876147672533989,-1.83406069114251,4.00046795047863,342.169255653554
738335.42650885193143039942,-1.84636982329783,3.98815881832331,342.193873917864
738335.42650894238613545895,-1.84636982329783,4.01277708263395,342.23080131433
738335.42650903284084051847,-1.73558763389996,4.1727958006531,342.181564785709
738335.42650912317913025618,-1.71096936958932,4.20972319711905,342.181564785709
738335.42650921363383531570,-1.7602058982106,4.12355927203182,342.280037842952
738335.42650930408854037523,-1.71096936958932,4.09894100772118,342.218492182175
738335.42650939454324543476,-1.67404197312337,4.20972319711905,342.169255653554
738335.42650948499795049429,-1.63711457665741,4.38205104729352,342.23080131433
738335.42650957545265555382,-1.60018718019145,4.35743278298288,342.255419578641
738335.42650966590736061335,-1.53864151941486,4.3697419151382,342.107709992777
738335.42650975636206567287,-1.46478672648295,4.52976063315734,342.169255653554
738335.42650984681677073240,-1.42785933001699,4.59130629393394,342.169255653554
738335.42650993715506047010,-1.40324106570635,4.60361542608926,342.095400860622
738335.42651002760976552963,-1.40324106570635,4.59130629393394,342.083091728467
738335.42651011806447058916,-1.32938627277444,4.65285195471053,342.132328257088
738335.42651020851917564869,-1.32938627277444,4.65285195471053,342.107709992777
738335.42651029897388070822,-1.48940499079358,4.45590584022543,341.923073010448
738335.42651038942858576775,-1.63711457665741,4.32050538651692,342.156946521399
738335.42651047988329082727,-1.66173284096805,4.18510493280842,342.20618305002
738335.42651057033799588680,-1.77251503036592,4.03739534694459,342.181564785709
738335.42651066067628562450,-1.88329721976379,4.01277708263395,342.23080131433
738335.42651075113099068403,-1.90791548407442,3.98815881832331,342.292346975107
738335.42651084158569574356,-1.96946114485102,4.00046795047863,342.316965239418
738335.42651093204040080309,-2.03100680562761,3.92661315754672,342.181564785709
738335.42651102249510586262,-2.00638854131698,3.93892228970204,342.193873917864
738335.42651111294981092215,-1.99407940916166,3.96354055401268,342.243110446486
738335.42651120340451598167,-2.01869767347229,3.88968576108076,342.218492182175
738335.42651129385922104120,-2.01869767347229,3.84044923245949,342.23080131433
738335.42651138419751077890,-1.99407940916166,3.90199489323608,342.267728710796
738335.42651147465221583843,-2.03100680562761,3.86506749677012,342.218492182175
738335.42651156510692089796,-1.99407940916166,4.02508621478927,342.316965239418
738335.42651165556162595749,-2.04331593778293,3.93892228970204,342.329274371573
738335.42651174601633101702,-2.04331593778293,3.9143040253914,342.218492182175
738335.42651183647103607655,-2.00638854131698,3.96354055401268,342.316965239418
738335.42651192692574113607,-1.96946114485102,3.98815881832331,342.341583503728
738335.42651201738044619560,-2.03100680562761,3.9143040253914,342.341583503728
738335.42651210771873593330,-2.04331593778293,3.88968576108076,342.23080131433
738335.42651219817344099283,-2.03100680562761,3.9143040253914,342.23080131433
738335.42651228862814605236,-2.01869767347229,3.98815881832331,342.218492182175
738335.42651237908285111189,-2.03100680562761,3.85275836461481,342.20618305002
738335.42651246953755617142,-2.03100680562761,3.84044923245949,342.23080131433
738335.42651255999226123095,-2.05562506993825,4.02508621478927,342.23080131433
738335.42651265044696629047,-2.00638854131698,3.96354055401268,342.280037842952
738335.42651274090167135000,-2.00638854131698,3.88968576108076,342.292346975107
738335.42651283123996108770,-2.04331593778293,3.93892228970204,342.316965239418
738335.42651292169466614723,-2.06793420209357,3.97584968616799,342.353892635884
738335.42651301214937120676,-2.03100680562761,3.96354055401268,342.267728710796
738335.42651310260407626629,-2.03100680562761,3.95123142185736,342.23080131433
738335.42651319305878132582,-2.06793420209357,3.92661315754672,342.243110446486
738335.42651328351348638535,-2.00638854131698,3.98815881832331,342.255419578641
738335.42651337396819144487,-2.05562506993825,3.90199489323608,342.280037842952
738335.42651346442289650440,-2.05562506993825,3.9143040253914,342.353892635884
738335.42651355476118624210,-2.08024333424889,3.9143040253914,342.329274371573
738335.42651364521589130163,-2.09255246640421,3.88968576108076,342.267728710796
738335.42651373567059636116,-2.01869767347229,3.98815881832331,342.255419578641
738335.42651382612530142069,-2.06793420209357,3.84044923245949,342.169255653554
738335.42651391658000648022,-2.04331593778293,3.77890357168289,342.341583503728
738335.42651400703471153975,-2.05562506993825,3.87737662892544,342.267728710796
738335.42651409748941659927,-2.10486159855953,3.79121270383821,342.353892635884
738335.42651418794412165880,-2.09255246640421,4.06201361125523,342.341583503728
738335.42651427828241139650,-2.04331593778293,4.1112501398765,342.292346975107
738335.42651436873711645603,-2.06793420209357,4.00046795047863,342.366201768039
738335.42651445919182151556,-2.09255246640421,3.93892228970204,342.341583503728
738335.42651454964652657509,-2.09255246640421,3.93892228970204,342.255419578641
738335.42651464010123163462,-2.10486159855953,3.9143040253914,342.353892635884
738335.42651473055593669415,-2.12947986287016,3.88968576108076,342.316965239418
738335.42651482101064175367,-2.09255246640421,3.9143040253914,342.341583503728
738335.42651491146534681320,-2.08024333424889,3.82814010030417,342.329274371573
738335.42651500180363655090,-2.06793420209357,3.88968576108076,342.353892635884
738335.42651509225834161043,-2.08024333424889,4.03739534694459,342.366201768039
738335.42651518271304666996,-2.10486159855953,3.97584968616799,342.243110446486
738335.42651527316775172949,-2.11717073071485,3.90199489323608,342.255419578641
738335.42651536362245678902,-2.08024333424889,4.00046795047863,342.255419578641
738335.42651545407716184855,-2.09255246640421,3.96354055401268,342.280037842952
738335.42651554453186690807,-2.11717073071485,3.92661315754672,342.243110446486
738335.42651563498657196760,-2.11717073071485,3.92661315754672,342.218492182175
738335.42651572544127702713,-2.08024333424889,3.96354055401268,342.218492182175
738335.42651581577956676483,-2.06793420209357,3.96354055401268,342.193873917864
738335.42651590623427182436,-2.10486159855953,3.81583096814885,342.23080131433
738335.42651599668897688389,-2.11717073071485,3.75428530737225,342.23080131433
738335.42651608714368194342,-2.04331593778293,3.90199489323608,342.218492182175
738335.42651617759838700294,-2.09255246640421,3.95123142185736,342.255419578641
738335.42651626805309206247,-2.09255246640421,3.95123142185736,342.280037842952
738335.42651635850779712200,-2.01869767347229,4.12355927203182,342.267728710796
738335.42651644896250218153,-2.03100680562761,4.06201361125523,342.329274371573
738335.42651653930079191923,-2.00638854131698,4.02508621478927,342.304656107262
738335.42651662975549697876,-2.03100680562761,3.96354055401268,342.20618305002
738335.42651672021020203829,-2.00638854131698,3.96354055401268,342.20618305002
738335.42651681066490709782,-2.01869767347229,3.9143040253914,342.255419578641
738335.42651690111961215734,-2.05562506993825,3.82814010030417,342.267728710796
738335.42651699157431721687,-2.01869767347229,4.07432274341055,342.292346975107
738335.42651708202902227640,-2.10486159855953,4.01277708263395,342.292346975107
738335.42651717248372733593,-2.10486159855953,3.96354055401268,342.316965239418
738335.42651726282201707363,-2.06793420209357,3.88968576108076,342.120019124933
738335.42651735327672213316,-2.05562506993825,3.93892228970204,342.181564785709
738335.42651744373142719269,-2.09255246640421,3.95123142185736,342.378510900194
738335.42651753418613225222,-2.09255246640421,3.90199489323608,342.329274371573
738335.42651762464083731174,-2.09255246640421,3.77890357168289,342.304656107262
738335.42651771509554237127,-2.09255246640421,3.84044923245949,342.243110446486
738335.42651780555024743080,-2.04331593778293,4.00046795047863,342.341583503728
738335.42651789600495249033,-2.10486159855953,3.97584968616799,342.341583503728
738335.42651798634324222803,-2.24026205226803,3.6558122501297,342.267728710796
738335.42651807679794728756,-2.22795292011272,3.63119398581907,342.403129164505
738335.42651816725265234709,-1.90791548407442,4.09894100772118,342.476983957437
738335.42651825770735740662,-1.24322234768721,4.92365286212755,342.218492182175
738335.42651834816206246614,-0.664693136387219,5.56372773420413,341.898454746137
738335.42651843861676752567,-0.800093590095726,5.58834599851477,341.960000406913
738335.42651852907147258520,-1.62480544450209,4.83748893704032,342.156946521399
738335.42651861952617764473,-2.20333465580208,3.80352183599353,342.046164332001
738335.42651870986446738243,-2.36335337382122,3.54503006073183,342.169255653554
738335.42651880031917244196,-2.26488031657867,3.68043051444034,342.23080131433
738335.42651889077387750149,-2.1540981271808,3.84044923245949,342.218492182175
738335.42651898122858256102,-2.10486159855953,3.85275836461481,342.280037842952
738335.42651907168328762054,-1.96946114485102,4.00046795047863,342.316965239418
738335.42651916213799268007,-1.99407940916166,3.98815881832331,342.341583503728
738335.42651925259269773960,-2.01869767347229,3.96354055401268,342.304656107262
738335.42651934304740279913,-1.94484288054038,3.82814010030417,342.353892635884
738335.42651943338569253683,-1.93253374838506,3.87737662892544,342.304656107262
738335.42651952384039759636,-1.93253374838506,4.14817753634246,342.243110446486
738335.42651961429510265589,-1.94484288054038,4.02508621478927,342.267728710796
738335.42651970474980771542,-1.93253374838506,4.00046795047863,342.255419578641
738335.42651979520451277494,-1.92022461622974,4.04970447909991,342.243110446486
738335.42651988565921783447,-1.90791548407442,4.08663187556586,342.255419578641
738335.42651997611392289400,-1.92022461622974,4.08663187556586,342.255419578641
738335.42652006656862795353,-1.82175155898719,4.1727958006531,342.267728710796
738335.42652015690691769123,-1.87098808760847,4.12355927203182,342.255419578641
738335.42652024736162275076,-1.83406069114251,4.14817753634246,342.23080131433
738335.42652033781632781029,-1.84636982329783,4.14817753634246,342.267728710796
738335.42652042827103286982,-1.68635110527868,4.23434146142969,342.292346975107
738335.42652051872573792934,-1.7602058982106,4.19741406496373,342.267728710796
738335.42652060918044298887,-1.72327850174464,4.35743278298288,342.243110446486
738335.42652069963514804840,-1.66173284096805,4.29588712220628,342.20618305002
738335.42652079008985310793,-1.61249631234677,4.33281451867224,342.058473464156
738335.42652088042814284563,-1.55095065157018,4.55437889746798,342.169255653554
738335.42652097088284790516,-1.51402325510422,4.61592455824458,342.156946521399
738335.42652106133755296469,-1.44016846217231,4.5666880296233,342.156946521399
738335.42652115179225802422,-1.34169540492976,4.70208848333181,342.218492182175
738335.42652124224696308374,-1.34169540492976,4.81287067272968,342.20618305002
738335.42652133270166814327,-1.34169540492976,4.77594327626372,342.132328257088
738335.42652142315637320280,-1.39093193355103,4.51745150100202,342.181564785709
738335.42652151361107826233,-1.48940499079358,4.55437889746798,342.169255653554
738335.42652160406578332186,-1.62480544450209,4.48052410453607,342.218492182175
738335.42652169440407305956,-1.72327850174464,4.28357799005097,342.243110446486
738335.42652178485877811909,-1.84636982329783,4.09894100772118,342.280037842952
738335.42652187531348317862,-1.89560635191911,4.06201361125523,342.329274371573
738335.42652196576818823814,-1.9571520126957,4.01277708263395,342.292346975107
738335.42652205622289329767,-1.94484288054038,4.02508621478927,342.267728710796
738335.42652214667759835720,-1.99407940916166,3.92661315754672,342.366201768039
738335.42652223713230341673,-2.01869767347229,3.92661315754672,342.341583503728
738335.42652232758700847626,-2.03100680562761,3.97584968616799,342.316965239418
738335.42652241792529821396,-2.03100680562761,3.96354055401268,342.378510900194
738335.42652250838000327349,-2.05562506993825,3.92661315754672,342.403129164505
738335.42652259883470833302,-2.03100680562761,3.92661315754672,342.366201768039
738335.42652268928941339254,-2.05562506993825,3.92661315754672,342.366201768039
738335.42652277974411845207,-2.06793420209357,3.92661315754672,342.378510900194
738335.42652287019882351160,-2.05562506993825,3.93892228970204,342.41543829666
738335.42652296065352857113,-2.05562506993825,3.86506749677012,342.329274371573
738335.42652305110823363066,-2.05562506993825,3.9143040253914,342.353892635884
738335.42652314144652336836,-2.04331593778293,3.95123142185736,342.378510900194
738335.42652323190122842789,-2.06793420209357,3.93892228970204,342.427747428816
738335.42652332235593348742,-2.03100680562761,4.01277708263395,342.341583503728
738335.42652341281063854694,-2.05562506993825,3.92661315754672,342.366201768039
738335.42652350326534360647,-2.06793420209357,3.88968576108076,342.427747428816
738335.42652359372004866600,-2.05562506993825,4.00046795047863,342.366201768039
738335.42652368417475372553,-2.04331593778293,4.00046795047863,342.267728710796
738335.42652377462945878506,-2.05562506993825,3.96354055401268,342.292346975107
738335.42652386496774852276,-2.04331593778293,3.95123142185736,342.280037842952
738335.42652395542245358229,-2.06793420209357,3.96354055401268,342.280037842952
738335.42652404587715864182,-2.06793420209357,3.9143040253914,342.353892635884
738335.42652413633186370134,-2.09255246640421,3.98815881832331,342.366201768039
738335.42652422678656876087,-2.03100680562761,3.97584968616799,342.280037842952
738335.42652431724127382040,-2.09255246640421,3.93892228970204,342.144637389243
738335.42652440769597887993,-2.08024333424889,3.96354055401268,342.23080131433
738335.42652449815068393946,-2.14178899502548,3.85275836461481,342.316965239418
738335.42652458848897367716,-1.99407940916166,4.04970447909991,342.316965239418
738335.42652467894367873669,-2.10486159855953,3.96354055401268,342.304656107262
738335.42652476939838379622,-2.09255246640421,3.95123142185736,342.366201768039
738335.42652485985308885574,-2.08024333424889,3.92661315754672,342.329274371573
738335.42652495030779391527,-2.10486159855953,3.85275836461481,342.366201768039
738335.42652504076249897480,-2.10486159855953,3.88968576108076,342.316965239418
738335.42652513121720403433,-2.12947986287016,4.01277708263395,342.341583503728
738335.42652522167190909386,-2.09255246640421,3.97584968616799,342.329274371573
738335.42652531201019883156,-2.10486159855953,3.96354055401268,342.353892635884
738335.42652540246490389109,-2.10486159855953,3.90199489323608,342.304656107262
738335.42652549291960895061,-2.08024333424889,4.00046795047863,342.353892635884
738335.42652558337431401014,-2.08024333424889,4.00046795047863,342.366201768039
738335.42652567382901906967,-2.11717073071485,3.92661315754672,342.440056560971
738335.42652576428372412920,-2.11717073071485,3.87737662892544,342.403129164505
738335.42652585473842918873,-2.14178899502548,3.92661315754672,342.39082003235
738335.42652594519313424826,-2.16640725933612,3.85275836461481,342.341583503728
738335.42652603553142398596,-2.03100680562761,4.1112501398765,342.366201768039
738335.42652612598612904549,-2.17871639149144,3.98815881832331,342.427747428816
738335.42652621644083410501,-2.16640725933612,3.96354055401268,342.39082003235
738335.42652630689553916454,-2.14178899502548,3.9143040253914,342.41543829666
738335.42652639735024422407,-2.11717073071485,3.95123142185736,342.427747428816
738335.42652648780494928360,-2.03100680562761,4.08663187556586,342.366201768039
738335.42652657825965434313,-2.12947986287016,3.9143040253914,342.464674825282
738335.42652666871435940266,-2.11717073071485,3.96354055401268,342.476983957437
738335.42652675916906446218,-2.12947986287016,3.98815881832331,342.440056560971
738335.42652684950735419989,-2.11717073071485,3.97584968616799,342.41543829666
738335.42652693996205925941,-2.09255246640421,4.03739534694459,342.427747428816
738335.42652703041676431894,-2.11717073071485,4.00046795047863,342.427747428816
738335.42652712087146937847,-2.10486159855953,4.02508621478927,342.39082003235
738335.42652721132617443800,-2.14178899502548,3.98815881832331,342.464674825282
738335.42652730178087949753,-2.08024333424889,4.02508621478927,342.464674825282
738335.42652739223558455706,-2.09255246640421,3.88968576108076,342.464674825282
738335.42652748269028961658,-2.11717073071485,4.00046795047863,342.39082003235
738335.42652757302857935429,-2.11717073071485,4.06201361125523,342.403129164505
738335.42652766348328441381,-2.10486159855953,4.07432274341055,342.23080131433
738335.42652775393798947334,-2.10486159855953,4.00046795047863,342.341583503728
738335.42652784439269453287,-2.10486159855953,4.01277708263395,342.193873917864
738335.42652793484739959240,-2.09255246640421,4.03739534694459,342.255419578641
738335.42652802530210465193,-2.10486159855953,3.96354055401268,342.353892635884
738335.42652811575680971146,-2.04331593778293,4.04970447909991,342.316965239418
738335.42652820621151477098,-2.01869767347229,3.98815881832331,342.341583503728
738335.42652829654980450869,-2.08024333424889,4.01277708263395,342.341583503728
738335.42652838700450956821,-2.04331593778293,4.14817753634246,342.329274371573
738335.42652847745921462774,-2.10486159855953,4.09894100772118,342.292346975107
738335.42652856791391968727,-2.09255246640421,4.00046795047863,342.329274371573
738335.42652865836862474680,-2.11717073071485,3.95123142185736,342.353892635884
738335.42652874882332980633,-2.11717073071485,4.00046795047863,342.304656107262
738335.42652883927803486586,-2.14178899502548,3.97584968616799,342.353892635884
738335.42652892973273992538,-2.11717073071485,3.92661315754672,342.39082003235
738335.42652902007102966309,-2.11717073071485,4.04970447909991,342.39082003235
738335.42652911052573472261,-2.12947986287016,4.01277708263395,342.440056560971
738335.42652920098043978214,-2.14178899502548,3.97584968616799,342.440056560971
738335.42652929143514484167,-2.12947986287016,3.93892228970204,342.353892635884
738335.42652938188984990120,-2.12947986287016,3.97584968616799,342.403129164505
738335.42652947234455496073,-2.10486159855953,3.96354055401268,342.464674825282
738335.42652956279926002026,-2.32642597735527,3.63119398581907,342.427747428816
738335.42652965325396507978,-2.20333465580208,3.84044923245949,342.476983957437
738335.42652974359225481749,-1.79713329467655,4.34512365082756,342.440056560971
738335.42652983404695987701,-1.09551276182338,5.00981678721478,342.20618305002
738335.42652992450166493654,-0.6523840042319,5.64989165929136,341.886145613982
738335.42653001495636999607,-1.05858536535742,5.51449120558285,342.033855199845
738335.42653010541107505560,-1.82175155898719,4.59130629393394,342.23080131433
738335.42653019586578011513,-2.33873510951058,3.60657572150843,342.20618305002
738335.42653028632048517466,-2.36335337382122,3.63119398581907,342.366201768039
738335.42653037677519023418,-2.28949858088931,3.81583096814885,342.41543829666
738335.42653046711347997189,-2.12947986287016,3.92661315754672,342.39082003235
738335.42653055756818503141,-2.10486159855953,3.9143040253914,342.452365693126
738335.42653064802289009094,-2.06793420209357,3.93892228970204,342.440056560971
738335.42653073847759515047,-2.01869767347229,4.01277708263395,342.403129164505
738335.42653082893230021000,-2.01869767347229,4.02508621478927,342.329274371573
738335.42653091938700526953,-1.99407940916166,4.01277708263395,342.452365693126
738335.42653100984171032906,-2.00638854131698,4.06201361125523,342.403129164505
738335.42653110029641538858,-1.96946114485102,4.13586840418714,342.304656107262
738335.42653119063470512629,-1.92022461622974,4.14817753634246,342.39082003235
738335.42653128108941018581,-2.01869767347229,4.03739534694459,342.41543829666
738335.42653137154411524534,-1.92022461622974,4.14817753634246,342.267728710796
738335.42653146199882030487,-1.93253374838506,4.09894100772118,342.267728710796
738335.42653155245352536440,-1.89560635191911,4.1727958006531,342.39082003235
738335.42653164290823042393,-1.90791548407442,4.06201361125523,342.39082003235
738335.42653173336293548346,-1.85867895545315,4.1727958006531,342.316965239418
738335.42653182381764054298,-1.89560635191911,4.24665059358501,342.378510900194
738335.42653191415593028069,-1.83406069114251,4.25895972574033,342.316965239418
738335.42653200461063534021,-1.78482416252124,4.28357799005097,342.341583503728
738335.42653209506534039974,-1.73558763389996,4.3697419151382,342.255419578641
738335.42653218552004545927,-1.73558763389996,4.28357799005097,342.304656107262
738335.42653227597475051880,-1.67404197312337,4.41897844375947,342.255419578641
738335.42653236642945557833,-1.61249631234677,4.44359670807011,342.267728710796
738335.42653245688416063786,-1.57556891588082,4.48052410453607,342.292346975107
738335.42653254733886569738,-1.52633238725954,4.5666880296233,342.267728710796
738335.42653263779357075691,-1.46478672648295,4.64054282255521,342.23080131433
738335.42653272813186049461,-1.40324106570635,4.73901587979776,342.255419578641
738335.42653281858656555414,-1.36631366924039,4.73901587979776,342.243110446486
738335.42653290904127061367,-1.36631366924039,4.72670674764244,342.280037842952
738335.42653299949597567320,-1.45247759432763,4.66516108686585,342.304656107262
738335.42653308995068073273,-1.5017141229489,4.59130629393394,342.20618305002
738335.42653318040538579226,-1.66173284096805,4.40666931160415,342.329274371573
738335.42653327086009085178,-1.72327850174464,4.29588712220628,342.329274371573
738335.42653336131479591131,-1.85867895545315,4.12355927203182,342.218492182175
738335.42653345165308564901,-1.93253374838506,4.09894100772118,342.341583503728
738335.42653354210779070854,-1.98177027700634,4.03739534694459,342.316965239418
738335.42653363256249576807,-1.99407940916166,4.03739534694459,342.378510900194
738335.42653372301720082760,-1.98177027700634,3.97584968616799,342.39082003235
738335.42653381347190588713,-2.03100680562761,4.02508621478927,342.39082003235
