time_dn,ecg_projection_ll_ra_mV,ecg_projection_la_ra_mV,ecg_projection_vx_rl_mV
738335.43233834323473274708,-2.10486159855953,4.20972319711905,342.452365693126
738335.43233843357302248478,-2.20333465580208,4.1112501398765,342.538529618213
738335.43233852402772754431,-2.32642597735527,3.96354055401268,342.587766146835
738335.43233861448243260384,-2.38797163813186,3.88968576108076,342.563147882524
738335.43233870493713766336,-2.52337209184037,3.76659443952757,342.563147882524
738335.43233879539184272289,-2.54799035615101,3.74197617521694,342.575457014679
738335.43233888573013246059,-2.56029948830632,3.72966704306162,342.563147882524
738335.43233897618483752012,-2.57260862046164,3.7173579109063,342.587766146835
738335.43233906663954257965,-2.59722688477228,3.70504877875098,342.60007527899
738335.43233915709424763918,-2.64646341339356,3.64350311797438,342.60007527899
738335.43233924754895269871,-2.6095360169276,3.68043051444034,342.612384411145
738335.43233933800365775824,-2.62184514908292,3.66812138228502,342.612384411145
738335.43233942834194749594,-2.59722688477228,3.69273964659566,342.563147882524
738335.43233951879665255547,-2.64646341339356,3.6558122501297,342.550838750369
738335.43233960925135761499,-2.63415428123824,3.64350311797438,342.526220486058
738335.43233969970606267452,-2.59722688477228,3.68043051444034,342.563147882524
738335.43233979016076773405,-2.63415428123824,3.6558122501297,342.575457014679
738335.43233988061547279358,-2.63415428123824,3.6558122501297,342.587766146835
738335.43233997095376253128,-2.62184514908292,3.68043051444034,342.587766146835
738335.43234006140846759081,-2.63415428123824,3.66812138228502,342.587766146835
738335.43234015186317265034,-2.62184514908292,3.69273964659566,342.624693543301
738335.43234024231787770987,-2.63415428123824,3.6558122501297,342.60007527899
738335.43234033277258276939,-2.62184514908292,3.6558122501297,342.575457014679
738335.43234042322728782892,-2.62184514908292,3.68043051444034,342.39082003235
738335.43234051356557756662,-2.64646341339356,3.64350311797438,342.538529618213
738335.43234060402028262615,-2.63415428123824,3.6558122501297,342.649311807611
738335.43234069447498768568,-2.57260862046164,3.70504877875098,342.673930071922
738335.43234078492969274521,-2.6095360169276,3.68043051444034,342.649311807611
738335.43234087538439780474,-2.62184514908292,3.68043051444034,342.612384411145
738335.43234096572268754244,-2.64646341339356,3.66812138228502,342.698548336233
738335.43234105617739260197,-2.64646341339356,3.6558122501297,342.698548336233
738335.43234114663209766150,-2.62184514908292,3.66812138228502,342.661620939767
738335.43234123708680272102,-2.62184514908292,3.66812138228502,342.661620939767
738335.43234132754150778055,-2.64646341339356,3.66812138228502,342.686239204077
738335.43234141799621284008,-2.70800907417015,3.59426658935311,342.649311807611
738335.43234150833450257778,-2.65877254554888,3.64350311797438,342.661620939767
738335.43234159878920763731,-2.58491775261696,3.7173579109063,342.698548336233
738335.43234168924391269684,-2.67108167770419,3.63119398581907,342.686239204077
738335.43234177969861775637,-2.75724560279143,3.55733919288715,342.624693543301
738335.43234187015332281590,-2.62184514908292,3.68043051444034,342.710857468388
738335.43234196060802787542,-2.6095360169276,3.68043051444034,342.673930071922
738335.43234205094631761312,-2.64646341339356,3.66812138228502,342.624693543301
738335.43234214140102267265,-2.67108167770419,3.64350311797438,342.686239204077
738335.43234223185572773218,-2.64646341339356,3.6558122501297,342.698548336233
738335.43234232231043279171,-2.65877254554888,3.64350311797438,342.710857468388
738335.43234241276513785124,-2.65877254554888,3.6558122501297,342.698548336233
738335.43234250321984291077,-2.65877254554888,3.6558122501297,342.710857468388
738335.43234259355813264847,-2.63415428123824,3.66812138228502,342.489293089592
738335.43234268401283770800,-2.67108167770419,3.63119398581907,342.60007527899
738335.43234277446754276752,-2.62184514908292,3.68043051444034,342.587766146835
738335.43234286492224782705,-2.70800907417015,3.60657572150843,342.637002675456
738335.43234295537695288658,-2.64646341339356,3.68043051444034,342.60007527899
738335.43234304571524262428,-2.63415428123824,3.68043051444034,342.563147882524
738335.43234313616994768381,-2.64646341339356,3.6558122501297,342.587766146835
738335.43234322662465274334,-2.65877254554888,3.64350311797438,342.637002675456
738335.43234331707935780287,-2.64646341339356,3.6558122501297,342.624693543301
738335.43234340753406286240,-2.64646341339356,3.64350311797438,342.698548336233
738335.43234349798876792192,-2.64646341339356,3.64350311797438,342.698548336233
738335.43234358832705765963,-2.67108167770419,3.64350311797438,342.587766146835
738335.43234367878176271915,-2.65877254554888,3.64350311797438,342.587766146835
738335.43234376923646777868,-2.64646341339356,3.6558122501297,342.624693543301
738335.43234385969117283821,-2.6095360169276,3.68043051444034,342.637002675456
738335.43234395014587789774,-2.69569994201483,3.59426658935311,342.452365693126
738335.43234404060058295727,-2.59722688477228,3.66812138228502,342.550838750369
738335.43234413093887269497,-2.63415428123824,3.64350311797438,342.673930071922
738335.43234422139357775450,-2.67108167770419,3.60657572150843,342.673930071922
738335.43234431184828281403,-2.64646341339356,3.63119398581907,342.637002675456
738335.43234440230298787355,-2.62184514908292,3.6558122501297,342.698548336233
738335.43234449275769293308,-2.67108167770419,3.60657572150843,342.661620939767
738335.43234458321239799261,-2.63415428123824,3.6558122501297,342.661620939767
738335.43234467355068773031,-2.63415428123824,3.66812138228502,342.686239204077
738335.43234476400539278984,-2.64646341339356,3.63119398581907,342.575457014679
738335.43234485446009784937,-2.67108167770419,3.61888485366375,342.637002675456
738335.43234494491480290890,-2.64646341339356,3.63119398581907,342.661620939767
738335.43234503536950796843,-2.64646341339356,3.64350311797438,342.710857468388
738335.43234512570779770613,-2.58491775261696,3.68043051444034,342.624693543301
738335.43234521616250276566,-2.58491775261696,3.69273964659566,342.710857468388
738335.43234530661720782518,-2.65877254554888,3.60657572150843,342.686239204077
738335.43234539707191288471,-2.63415428123824,3.64350311797438,342.624693543301
738335.43234548752661794424,-2.52337209184037,3.74197617521694,342.673930071922
738335.43234557798132300377,-2.53568122399569,3.72966704306162,342.686239204077
738335.43234566831961274147,-2.59722688477228,3.66812138228502,342.624693543301
738335.43234575877431780100,-2.58491775261696,3.68043051444034,342.612384411145
738335.43234584922902286053,-2.59722688477228,3.70504877875098,342.686239204077
738335.43234593968372792006,-2.51106295968505,3.79121270383821,342.661620939767
738335.43234603013843297958,-2.59722688477228,3.68043051444034,342.661620939767
738335.43234612059313803911,-2.63415428123824,3.63119398581907,342.686239204077
738335.43234621093142777681,-2.64646341339356,3.61888485366375,342.673930071922
738335.43234630138613283634,-2.63415428123824,3.63119398581907,342.661620939767
738335.43234639184083789587,-2.63415428123824,3.63119398581907,342.673930071922
738335.43234648229554295540,-2.63415428123824,3.63119398581907,342.661620939767
738335.43234657275024801493,-2.63415428123824,3.63119398581907,342.686239204077
738335.43234666320495307446,-2.65877254554888,3.61888485366375,342.661620939767
738335.43234675354324281216,-2.64646341339356,3.61888485366375,342.60007527899
738335.43234684399794787169,-2.64646341339356,3.60657572150843,342.550838750369
738335.43234693445265293121,-2.58491775261696,3.66812138228502,342.587766146835
738335.43234702490735799074,-2.78186386710206,3.39732047486801,342.60007527899
738335.43234711536206305027,-2.79417299925738,3.38501134271269,342.649311807611
738335.43234720570035278797,-2.49875382752973,3.85275836461481,342.661620939767
738335.43234729615505784750,-1.80944242683187,4.65285195471053,342.501602221747
738335.43234738660976290703,-1.20629495122125,5.40370901618498,342.156946521399
738335.43234747706446796656,-1.37862280139571,5.53910946989349,342.070782596311
738335.43234756751917302608,-2.17871639149144,4.60361542608926,342.255419578641
738335.43234765797387808561,-2.81879126356802,3.44655700348928,342.476983957437
738335.43234774831216782331,-2.94188258512121,3.27422915331482,342.550838750369
738335.43234783876687288284,-2.83110039572334,3.43424787133396,342.60007527899
738335.43234792922157794237,-2.70800907417015,3.56964832504247,342.60007527899
738335.43234801967628300190,-2.63415428123824,3.6558122501297,342.563147882524
738335.43234811013098806143,-2.6095360169276,3.66812138228502,342.563147882524
738335.43234820058569312096,-2.6095360169276,3.66812138228502,342.550838750369
738335.43234829092398285866,-2.59722688477228,3.68043051444034,342.538529618213
738335.43234838137868791819,-2.59722688477228,3.69273964659566,342.526220486058
738335.43234847183339297771,-2.58491775261696,3.7173579109063,342.575457014679
738335.43234856228809803724,-2.58491775261696,3.7173579109063,342.624693543301
738335.43234865274280309677,-2.58491775261696,3.7173579109063,342.649311807611
738335.43234874319750815630,-2.59722688477228,3.7173579109063,342.60007527899
738335.43234883353579789400,-2.54799035615101,3.76659443952757,342.612384411145
738335.43234892399050295353,-2.58491775261696,3.74197617521694,342.661620939767
738335.43234901444520801306,-2.49875382752973,3.82814010030417,342.575457014679
738335.43234910489991307259,-2.51106295968505,3.82814010030417,342.60007527899
738335.43234919535461813211,-2.48644469537441,3.85275836461481,342.637002675456
738335.43234928569290786982,-2.46182643106377,3.88968576108076,342.612384411145
738335.43234937614761292934,-2.47413556321909,3.88968576108076,342.60007527899
738335.43234946660231798887,-2.44951729890845,3.9143040253914,342.637002675456
738335.43234955705702304840,-2.4125899024425,3.96354055401268,342.624693543301
738335.43234964751172810793,-2.37566250597654,4.00046795047863,342.550838750369
738335.43234973796643316746,-2.33873510951058,4.06201361125523,342.550838750369
738335.43234982830472290516,-2.28949858088931,4.1112501398765,342.538529618213
738335.43234991875942796469,-2.24026205226803,4.18510493280842,342.550838750369
738335.43235000921413302422,-2.2156437879574,4.20972319711905,342.501602221747
738335.43235009966883808374,-2.12947986287016,4.3081962543616,342.501602221747
738335.43235019012354314327,-2.1540981271808,4.29588712220628,342.501602221747
738335.43235028057824820280,-2.04331593778293,4.39436017944884,342.489293089592
738335.43235037091653794050,-1.99407940916166,4.45590584022543,342.489293089592
738335.43235046137124300003,-2.06793420209357,4.38205104729352,342.526220486058
738335.43235055182594805956,-2.04331593778293,4.38205104729352,342.464674825282
738335.43235064228065311909,-2.2156437879574,4.1727958006531,342.452365693126
738335.43235073273535817862,-2.33873510951058,4.03739534694459,342.526220486058
738335.43235082319006323814,-2.44951729890845,3.92661315754672,342.501602221747
738335.43235091352835297585,-2.52337209184037,3.85275836461481,342.550838750369
738335.43235100398305803537,-2.6095360169276,3.75428530737225,342.427747428816
738335.43235109443776309490,-2.63415428123824,3.72966704306162,342.501602221747
738335.43235118489246815443,-2.64646341339356,3.72966704306162,342.624693543301
738335.43235127534717321396,-2.70800907417015,3.66812138228502,342.649311807611
738335.43235136568546295166,-2.70800907417015,3.66812138228502,342.686239204077
738335.43235145614016801119,-2.65877254554888,3.72966704306162,342.587766146835
738335.43235154659487307072,-2.72031820632547,3.68043051444034,342.661620939767
738335.43235163704957813025,-2.67108167770419,3.72966704306162,342.587766146835
738335.43235172750428318977,-2.72031820632547,3.68043051444034,342.575457014679
738335.43235181795898824930,-2.72031820632547,3.68043051444034,342.563147882524
738335.43235190829727798700,-2.72031820632547,3.68043051444034,342.563147882524
738335.43235199875198304653,-2.70800907417015,3.70504877875098,342.575457014679
738335.43235208920668810606,-2.72031820632547,3.68043051444034,342.575457014679
738335.43235217966139316559,-2.72031820632547,3.68043051444034,342.550838750369
738335.43235227011609822512,-2.73262733848079,3.68043051444034,342.587766146835
738335.43235236057080328465,-2.74493647063611,3.68043051444034,342.637002675456
738335.43235245090909302235,-2.70800907417015,3.70504877875098,342.661620939767
738335.43235254136379808187,-2.75724560279143,3.6558122501297,342.698548336233
738335.43235263181850314140,-2.70800907417015,3.7173579109063,342.673930071922
738335.43235272227320820093,-2.70800907417015,3.70504877875098,342.686239204077
738335.43235281272791326046,-2.79417299925738,3.64350311797438,342.686239204077
738335.43235290306620299816,-2.67108167770419,3.76659443952757,342.661620939767
738335.43235299352090805769,-2.70800907417015,3.72966704306162,342.673930071922
738335.43235308397561311722,-2.75724560279143,3.68043051444034,342.661620939767
738335.43235317443031817675,-2.73262733848079,3.70504877875098,342.60007527899
738335.43235326488502323627,-2.73262733848079,3.7173579109063,342.587766146835
738335.43235335533972829580,-2.74493647063611,3.70504877875098,342.575457014679
738335.43235344567801803350,-2.73262733848079,3.7173579109063,342.612384411145
738335.43235353613272309303,-2.75724560279143,3.69273964659566,342.612384411145
738335.43235362658742815256,-2.74493647063611,3.7173579109063,342.673930071922
738335.43235371704213321209,-2.74493647063611,3.7173579109063,342.637002675456
738335.43235380749683827162,-2.75724560279143,3.69273964659566,342.661620939767
738335.43235389795154333115,-2.79417299925738,3.6558122501297,342.649311807611
738335.43235398828983306885,-2.74493647063611,3.70504877875098,342.624693543301
738335.43235407874453812838,-2.79417299925738,3.66812138228502,342.624693543301
738335.43235416919924318790,-2.72031820632547,3.74197617521694,342.612384411145
738335.43235425965394824743,-2.78186386710206,3.68043051444034,342.612384411145
738335.43235435010865330696,-2.78186386710206,3.69273964659566,342.624693543301
738335.43235444056335836649,-2.79417299925738,3.68043051444034,342.661620939767
738335.43235453090164810419,-2.78186386710206,3.70504877875098,342.550838750369
738335.43235462135635316372,-2.75724560279143,3.72966704306162,342.563147882524
738335.43235471181105822325,-2.78186386710206,3.69273964659566,342.698548336233
738335.43235480226576328278,-2.78186386710206,3.69273964659566,342.649311807611
738335.43235489272046834230,-2.78186386710206,3.69273964659566,342.649311807611
738335.43235498305875808001,-2.8064821314127,3.68043051444034,342.612384411145
738335.43235507351346313953,-2.8064821314127,3.68043051444034,342.60007527899
738335.43235516396816819906,-2.81879126356802,3.68043051444034,342.550838750369
738335.43235525442287325859,-2.8680277921893,3.63119398581907,342.60007527899
738335.43235534487757831812,-2.78186386710206,3.7173579109063,342.60007527899
738335.43235543533228337765,-2.75724560279143,3.75428530737225,342.575457014679
738335.43235552567057311535,-2.85571866003398,3.6558122501297,342.637002675456
738335.43235561612527817488,-2.83110039572334,3.66812138228502,342.612384411145
738335.43235570657998323441,-2.8064821314127,3.70504877875098,342.698548336233
738335.43235579703468829393,-2.84340952787866,3.6558122501297,342.673930071922
738335.43235588748939335346,-2.83110039572334,3.68043051444034,342.624693543301
738335.43235597794409841299,-2.79417299925738,3.72966704306162,342.624693543301
738335.43235606828238815069,-2.89264605649993,3.63119398581907,342.624693543301
738335.43235615873709321022,-2.74493647063611,3.77890357168289,342.649311807611
738335.43235624919179826975,-2.88033692434461,3.64350311797438,342.649311807611
738335.43235633964650332928,-2.83110039572334,3.69273964659566,342.723166600543
738335.43235643010120838881,-2.8680277921893,3.66812138228502,342.637002675456
738335.43235652055591344833,-2.83110039572334,3.70504877875098,342.649311807611
738335.43235661089420318604,-2.78186386710206,3.74197617521694,342.710857468388
738335.43235670134890824556,-2.8680277921893,3.66812138228502,342.698548336233
738335.43235679180361330509,-2.72031820632547,3.81583096814885,342.60007527899
738335.43235688225831836462,-2.74493647063611,3.77890357168289,342.661620939767
738335.43235697271302342415,-2.76955473494675,3.74197617521694,342.649311807611
738335.43235706305131316185,-2.74493647063611,3.76659443952757,342.661620939767
738335.43235715350601822138,-2.76955473494675,3.76659443952757,342.649311807611
738335.43235724396072328091,-2.75724560279143,3.77890357168289,342.723166600543
738335.43235733441542834044,-2.78186386710206,3.76659443952757,342.673930071922
738335.43235742487013339996,-2.79417299925738,3.74197617521694,342.723166600543
738335.43235751532483845949,-2.8064821314127,3.70504877875098,342.673930071922
738335.43235760566312819719,-2.81879126356802,3.70504877875098,342.673930071922
738335.43235769611783325672,-2.81879126356802,3.70504877875098,342.686239204077
738335.43235778657253831625,-2.81879126356802,3.69273964659566,342.661620939767
738335.43235787702724337578,-2.81879126356802,3.69273964659566,342.710857468388
738335.43235796748194843531,-2.8064821314127,3.70504877875098,342.673930071922
738335.43235805793665349483,-2.8064821314127,3.69273964659566,342.612384411145
738335.43235814827494323254,-2.79417299925738,3.70504877875098,342.526220486058
738335.43235823872964829206,-2.79417299925738,3.69273964659566,342.686239204077
738335.43235832918435335159,-2.8680277921893,3.59426658935311,342.723166600543
738335.43235841963905841112,-2.95419171727653,3.44655700348928,342.723166600543
738335.43235851009376347065,-2.79417299925738,3.7173579109063,342.624693543301
738335.43235860054846853018,-2.24026205226803,4.38205104729352,342.587766146835
738335.43235869088675826788,-1.52633238725954,5.14521724092329,342.292346975107
738335.43235878134146332741,-1.46478672648295,5.46525467696158,342.267728710796
738335.43235887179616838694,-2.20333465580208,4.87441633350627,342.41543829666
738335.43235896225087344646,-2.84340952787866,3.6558122501297,342.550838750369
738335.43235905270557850599,-3.04035564236376,3.28653828547014,342.563147882524
738335.43235914304386824369,-3.02804651020844,3.38501134271269,342.624693543301
738335.43235923349857330322,-2.94188258512121,3.50810266426588,342.649311807611
738335.43235932395327836275,-2.88033692434461,3.56964832504247,342.637002675456
738335.43235941440798342228,-2.78186386710206,3.68043051444034,342.550838750369
738335.43235950486268848181,-2.73262733848079,3.74197617521694,342.563147882524
738335.43235959531739354134,-2.72031820632547,3.72966704306162,342.575457014679
738335.43235968565568327904,-2.70800907417015,3.74197617521694,342.587766146835
738335.43235977611038833857,-2.68339080985951,3.76659443952757,342.563147882524
738335.43235986656509339809,-2.68339080985951,3.77890357168289,342.563147882524
738335.43235995701979845762,-2.67108167770419,3.79121270383821,342.60007527899
738335.43236004747450351715,-2.64646341339356,3.81583096814885,342.624693543301
738335.43236013792920857668,-2.64646341339356,3.81583096814885,342.587766146835
738335.43236022826749831438,-2.64646341339356,3.81583096814885,342.637002675456
738335.43236031872220337391,-2.6095360169276,3.85275836461481,342.612384411145
738335.43236040917690843344,-2.58491775261696,3.87737662892544,342.575457014679
738335.43236049963161349297,-2.56029948830632,3.90199489323608,342.575457014679
738335.43236059008631855249,-2.54799035615101,3.9143040253914,342.60007527899
738335.43236068054102361202,-2.52337209184037,3.93892228970204,342.575457014679
738335.43236077087931334972,-2.49875382752973,3.97584968616799,342.575457014679
738335.43236086133401840925,-2.47413556321909,4.01277708263395,342.624693543301
738335.43236095178872346878,-2.43720816675314,4.06201361125523,342.661620939767
738335.43236104224342852831,-2.38797163813186,4.09894100772118,342.649311807611
738335.43236113269813358784,-2.36335337382122,4.13586840418714,342.612384411145
738335.43236122303642332554,-2.31411684519995,4.19741406496373,342.637002675456
738335.43236131349112838507,-2.25257118442335,4.25895972574033,342.612384411145
738335.43236140394583344460,-2.19102552364676,4.33281451867224,342.587766146835
738335.43236149440053850412,-2.12947986287016,4.40666931160415,342.526220486058
738335.43236158485524356365,-2.06793420209357,4.48052410453607,342.526220486058
738335.43236167530994862318,-2.04331593778293,4.49283323669139,342.427747428816
738335.43236176564823836088,-2.06793420209357,4.46821497238075,342.538529618213
738335.43236185610294342041,-2.10486159855953,4.40666931160415,342.538529618213
738335.43236194655764847994,-2.17871639149144,4.29588712220628,342.575457014679
738335.43236203701235353947,-2.3510442416659,4.09894100772118,342.575457014679
738335.43236212746705859900,-2.46182643106377,3.96354055401268,342.587766146835
738335.43236221792176365852,-2.54799035615101,3.86506749677012,342.624693543301
738335.43236230826005339622,-2.6095360169276,3.81583096814885,342.624693543301
738335.43236239871475845575,-2.64646341339356,3.76659443952757,342.575457014679
738335.43236248916946351528,-2.68339080985951,3.74197617521694,342.649311807611
738335.43236257962416857481,-2.69569994201483,3.7173579109063,342.673930071922
738335.43236267007887363434,-2.70800907417015,3.7173579109063,342.637002675456
738335.43236276053357869387,-2.70800907417015,3.7173579109063,342.637002675456
738335.43236285087186843157,-2.73262733848079,3.70504877875098,342.612384411145
738335.43236294132657349110,-2.72031820632547,3.69273964659566,342.624693543301
738335.43236303178127855062,-2.73262733848079,3.70504877875098,342.575457014679
738335.43236312223598361015,-2.73262733848079,3.69273964659566,342.587766146835
738335.43236321269068866968,-2.73262733848079,3.69273964659566,342.587766146835
738335.43236330302897840738,-2.76955473494675,3.64350311797438,342.661620939767
738335.43236339348368346691,-2.70800907417015,3.72966704306162,342.538529618213
738335.43236348393838852644,-2.69569994201483,3.74197617521694,342.526220486058
738335.43236357439309358597,-2.73262733848079,3.69273964659566,342.563147882524
738335.43236366484779864550,-2.73262733848079,3.70504877875098,342.612384411145
738335.43236375530250370502,-2.73262733848079,3.69273964659566,342.563147882524
738335.43236384564079344273,-2.74493647063611,3.69273964659566,342.587766146835
738335.43236393609549850225,-2.73262733848079,3.70504877875098,342.587766146835
738335.43236402655020356178,-2.73262733848079,3.70504877875098,342.612384411145
738335.43236411700490862131,-2.73262733848079,3.69273964659566,342.587766146835
738335.43236420745961368084,-2.73262733848079,3.70504877875098,342.637002675456
738335.43236429791431874037,-2.73262733848079,3.70504877875098,342.60007527899
738335.43236438825260847807,-2.73262733848079,3.70504877875098,342.612384411145
738335.43236447870731353760,-2.73262733848079,3.69273964659566,342.612384411145
738335.43236456916201859713,-2.73262733848079,3.69273964659566,342.661620939767
738335.43236465961672365665,-2.74493647063611,3.68043051444034,342.698548336233
738335.43236475007142871618,-2.73262733848079,3.69273964659566,342.563147882524
738335.43236484052613377571,-2.73262733848079,3.68043051444034,342.60007527899
738335.43236493086442351341,-2.74493647063611,3.68043051444034,342.612384411145
738335.43236502131912857294,-2.75724560279143,3.66812138228502,342.637002675456
738335.43236511177383363247,-2.79417299925738,3.63119398581907,342.587766146835
738335.43236520222853869200,-2.68339080985951,3.72966704306162,342.513911353903
738335.43236529268324375153,-2.73262733848079,3.68043051444034,342.710857468388
738335.43236538302153348923,-2.75724560279143,3.6558122501297,342.661620939767
738335.43236547347623854876,-2.74493647063611,3.66812138228502,342.698548336233
738335.43236556393094360828,-2.74493647063611,3.66812138228502,342.673930071922
738335.43236565438564866781,-2.74493647063611,3.66812138228502,342.624693543301
738335.43236574484035372734,-2.73262733848079,3.68043051444034,342.661620939767
738335.43236583529505878687,-2.74493647063611,3.68043051444034,342.723166600543
738335.43236592563334852457,-2.74493647063611,3.66812138228502,342.673930071922
738335.43236601608805358410,-2.74493647063611,3.6558122501297,342.649311807611
738335.43236610654275864363,-2.75724560279143,3.66812138228502,342.661620939767
738335.43236619699746370316,-2.74493647063611,3.6558122501297,342.698548336233
738335.43236628745216876268,-2.74493647063611,3.6558122501297,342.637002675456
738335.43236637790687382221,-2.75724560279143,3.6558122501297,342.698548336233
738335.43236646824516355991,-2.74493647063611,3.6558122501297,342.649311807611
738335.43236655869986861944,-2.74493647063611,3.66812138228502,342.563147882524
738335.43236664915457367897,-2.74493647063611,3.66812138228502,342.538529618213
738335.43236673960927873850,-2.74493647063611,3.66812138228502,342.538529618213
738335.43236683006398379803,-2.74493647063611,3.6558122501297,342.513911353903
738335.43236692051868885756,-2.74493647063611,3.6558122501297,342.526220486058
738335.43236701085697859526,-2.74493647063611,3.66812138228502,342.550838750369
738335.43236710131168365479,-2.73262733848079,3.66812138228502,342.575457014679
738335.43236719176638871431,-2.74493647063611,3.6558122501297,342.649311807611
738335.43236728222109377384,-2.76955473494675,3.64350311797438,342.60007527899
738335.43236737267579883337,-2.75724560279143,3.64350311797438,342.637002675456
738335.43236746301408857107,-2.69569994201483,3.70504877875098,342.673930071922
738335.43236755346879363060,-2.75724560279143,3.64350311797438,342.661620939767
738335.43236764392349869013,-2.75724560279143,3.6558122501297,342.624693543301
738335.43236773437820374966,-2.74493647063611,3.63119398581907,342.563147882524
738335.43236782483290880919,-2.74493647063611,3.6558122501297,342.661620939767
738335.43236791528761386871,-2.73262733848079,3.66812138228502,342.624693543301
738335.43236800562590360641,-2.73262733848079,3.6558122501297,342.686239204077
738335.43236809608060866594,-2.73262733848079,3.66812138228502,342.637002675456
738335.43236818653531372547,-2.72031820632547,3.66812138228502,342.624693543301
738335.43236827699001878500,-2.73262733848079,3.6558122501297,342.649311807611
738335.43236836744472384453,-2.70800907417015,3.68043051444034,342.723166600543
738335.43236845789942890406,-2.68339080985951,3.70504877875098,342.575457014679
738335.43236854823771864176,-2.67108167770419,3.70504877875098,342.612384411145
738335.43236863869242370129,-2.67108167770419,3.70504877875098,342.624693543301
738335.43236872914712876081,-2.65877254554888,3.7173579109063,342.489293089592
738335.43236881960183382034,-2.69569994201483,3.7173579109063,342.538529618213
738335.43236891005653887987,-2.68339080985951,3.7173579109063,342.637002675456
738335.43236900039482861757,-2.70800907417015,3.69273964659566,342.673930071922
738335.43236909084953367710,-2.72031820632547,3.66812138228502,342.686239204077
738335.43236918130423873663,-2.74493647063611,3.64350311797438,342.710857468388
738335.43236927175894379616,-2.74493647063611,3.64350311797438,342.587766146835
738335.43236936221364885569,-2.74493647063611,3.64350311797438,342.710857468388
738335.43236945266835391521,-2.74493647063611,3.64350311797438,342.723166600543
738335.43236954300664365292,-2.74493647063611,3.64350311797438,342.612384411145
738335.43236963346134871244,-2.74493647063611,3.63119398581907,342.723166600543
738335.43236972391605377197,-2.74493647063611,3.64350311797438,342.710857468388
738335.43236981437075883150,-2.76955473494675,3.61888485366375,342.661620939767
738335.43236990482546389103,-2.85571866003398,3.44655700348928,342.661620939767
738335.43236999528016895056,-2.88033692434461,3.40962960702333,342.772403129165
738335.43237008561845868826,-2.68339080985951,3.74197617521694,342.772403129165
738335.43237017607316374779,-2.00638854131698,4.46821497238075,342.550838750369
738335.43237026652786880732,-1.25553147984252,5.18214463738924,342.267728710796
738335.43237035698257386684,-1.15705842259997,5.48987294127221,342.23080131433
738335.43237044743727892637,-1.51402325510422,5.2190720338552,342.292346975107
738335.43237053789198398590,-2.42489903459782,4.20972319711905,342.452365693126
738335.43237062823027372360,-3.0034282458978,3.28653828547014,342.587766146835
738335.43237071868497878313,-3.01573737805312,3.29884741762546,342.649311807611
738335.43237080913968384266,-2.83110039572334,3.50810266426588,342.612384411145
738335.43237089959438890219,-2.72031820632547,3.63119398581907,342.661620939767
738335.43237099004909396172,-2.69569994201483,3.6558122501297,342.686239204077
738335.43237108038738369942,-2.67108167770419,3.68043051444034,342.587766146835
738335.43237117084208875895,-2.64646341339356,3.70504877875098,342.649311807611
738335.43237126129679381847,-2.65877254554888,3.69273964659566,342.550838750369
738335.43237135175149887800,-2.70800907417015,3.63119398581907,342.575457014679
738335.43237144220620393753,-2.63415428123824,3.7173579109063,342.575457014679
738335.43237153266090899706,-2.52337209184037,3.82814010030417,342.575457014679
738335.43237162299919873476,-2.59722688477228,3.75428530737225,342.575457014679
738335.43237171345390379429,-2.58491775261696,3.76659443952757,342.624693543301
738335.43237180390860885382,-2.58491775261696,3.76659443952757,342.60007527899
738335.43237189436331391335,-2.57260862046164,3.79121270383821,342.575457014679
738335.43237198481801897287,-2.54799035615101,3.79121270383821,342.575457014679
738335.43237207527272403240,-2.52337209184037,3.84044923245949,342.575457014679
738335.43237216561101377010,-2.51106295968505,3.86506749677012,342.41543829666
738335.43237225606571882963,-2.48644469537441,3.86506749677012,342.440056560971
738335.43237234652042388916,-2.47413556321909,3.87737662892544,342.575457014679
738335.43237243697512894869,-2.42489903459782,3.93892228970204,342.538529618213
738335.43237252742983400822,-2.4125899024425,3.95123142185736,342.526220486058
738335.43237261788453906775,-2.42489903459782,3.93892228970204,342.489293089592
738335.43237270822282880545,-2.24026205226803,4.13586840418714,342.550838750369
738335.43237279867753386497,-2.26488031657867,4.1112501398765,342.587766146835
738335.43237288913223892450,-2.25257118442335,4.12355927203182,342.489293089592
738335.43237297958694398403,-2.14178899502548,4.25895972574033,342.489293089592
738335.43237307004164904356,-2.00638854131698,4.38205104729352,342.489293089592
738335.43237316037993878126,-2.01869767347229,4.35743278298288,342.476983957437
738335.43237325083464384079,-1.98177027700634,4.39436017944884,342.489293089592
738335.43237334128934890032,-1.98177027700634,4.38205104729352,342.513911353903
738335.43237343174405395985,-2.04331593778293,4.32050538651692,342.513911353903
738335.43237352219875901937,-2.16640725933612,4.18510493280842,342.513911353903
738335.43237361265346407890,-2.28949858088931,4.03739534694459,342.538529618213
738335.43237370299175381660,-2.4125899024425,3.90199489323608,342.550838750369
738335.43237379344645887613,-2.48644469537441,3.82814010030417,342.612384411145
738335.43237388390116393566,-2.57260862046164,3.74197617521694,342.550838750369
738335.43237397435586899519,-2.64646341339356,3.66812138228502,342.60007527899
738335.43237406481057405472,-2.51106295968505,3.80352183599353,342.624693543301
738335.43237415526527911425,-2.59722688477228,3.72966704306162,342.624693543301
738335.43237424560356885195,-2.64646341339356,3.68043051444034,342.60007527899
738335.43237433605827391148,-2.65877254554888,3.66812138228502,342.637002675456
738335.43237442651297897100,-2.65877254554888,3.66812138228502,342.649311807611
738335.43237451696768403053,-2.64646341339356,3.68043051444034,342.60007527899
738335.43237460742238909006,-2.64646341339356,3.69273964659566,342.649311807611
738335.43237469787709414959,-2.64646341339356,3.68043051444034,342.686239204077
738335.43237478821538388729,-2.65877254554888,3.66812138228502,342.587766146835
738335.43237487867008894682,-2.63415428123824,3.68043051444034,342.637002675456
738335.43237496912479400635,-2.64646341339356,3.66812138228502,342.637002675456
738335.43237505957949906588,-2.73262733848079,3.58195745719779,342.624693543301
738335.43237515003420412540,-2.64646341339356,3.68043051444034,342.612384411145
738335.43237524037249386311,-2.53568122399569,3.79121270383821,342.661620939767
738335.43237533082719892263,-2.69569994201483,3.63119398581907,342.673930071922
738335.43237542128190398216,-2.67108167770419,3.64350311797438,342.587766146835
738335.43237551173660904169,-2.67108167770419,3.6558122501297,342.550838750369
738335.43237560219131410122,-2.67108167770419,3.66812138228502,342.538529618213
738335.43237569264601916075,-2.63415428123824,3.68043051444034,342.39082003235
738335.43237578298430889845,-2.65877254554888,3.6558122501297,342.501602221747
738335.43237587343901395798,-2.65877254554888,3.66812138228502,342.550838750369
738335.43237596389371901751,-2.67108167770419,3.66812138228502,342.550838750369
738335.43237605434842407703,-2.67108167770419,3.66812138228502,342.624693543301
738335.43237614480312913656,-2.67108167770419,3.6558122501297,342.649311807611
738335.43237623525783419609,-2.64646341339356,3.66812138228502,342.587766146835
738335.43237632559612393379,-2.65877254554888,3.6558122501297,342.612384411145
738335.43237641605082899332,-2.67108167770419,3.64350311797438,342.624693543301
738335.43237650650553405285,-2.67108167770419,3.6558122501297,342.60007527899
738335.43237659696023911238,-2.67108167770419,3.63119398581907,342.575457014679
738335.43237668741494417191,-2.67108167770419,3.64350311797438,342.538529618213
738335.43237677786964923143,-2.67108167770419,3.6558122501297,342.563147882524
738335.43237686820793896914,-2.68339080985951,3.64350311797438,342.538529618213
738335.43237695866264402866,-2.68339080985951,3.63119398581907,342.60007527899
738335.43237704911734908819,-2.62184514908292,3.70504877875098,342.587766146835
738335.43237713957205414772,-2.68339080985951,3.64350311797438,342.575457014679
738335.43237723002675920725,-2.69569994201483,3.63119398581907,342.538529618213
738335.43237732036504894495,-2.70800907417015,3.61888485366375,342.661620939767
738335.43237741081975400448,-2.68339080985951,3.64350311797438,342.698548336233
738335.43237750127445906401,-2.63415428123824,3.68043051444034,342.563147882524
738335.43237759172916412354,-2.68339080985951,3.63119398581907,342.612384411145
738335.43237768218386918306,-2.69569994201483,3.64350311797438,342.649311807611
738335.43237777263857424259,-2.69569994201483,3.63119398581907,342.661620939767
738335.43237786297686398029,-2.68339080985951,3.64350311797438,342.661620939767
738335.43237795343156903982,-2.68339080985951,3.64350311797438,342.624693543301
738335.43237804388627409935,-2.68339080985951,3.64350311797438,342.710857468388
738335.43237813434097915888,-2.68339080985951,3.64350311797438,342.698548336233
738335.43237822479568421841,-2.68339080985951,3.64350311797438,342.575457014679
738335.43237831525038927794,-2.67108167770419,3.6558122501297,342.686239204077
738335.43237840558867901564,-2.67108167770419,3.66812138228502,342.686239204077
738335.43237849604338407516,-2.68339080985951,3.64350311797438,342.624693543301
738335.43237858649808913469,-2.68339080985951,3.64350311797438,342.673930071922
738335.43237867695279419422,-2.68339080985951,3.64350311797438,342.698548336233
738335.43237876740749925375,-2.68339080985951,3.61888485366375,342.637002675456
738335.43237885786220431328,-2.68339080985951,3.64350311797438,342.612384411145
738335.43237894820049405098,-2.68339080985951,3.64350311797438,342.698548336233
738335.43237903865519911051,-2.69569994201483,3.64350311797438,342.673930071922
738335.43237912910990417004,-2.68339080985951,3.63119398581907,342.587766146835
738335.43237921956460922956,-2.69569994201483,3.63119398581907,342.489293089592
738335.43237931001931428909,-2.68339080985951,3.63119398581907,342.575457014679
738335.43237940035760402679,-2.72031820632547,3.60657572150843,342.575457014679
738335.43237949081230908632,-2.68339080985951,3.61888485366375,342.637002675456
738335.43237958126701414585,-2.62184514908292,3.66812138228502,342.60007527899
738335.43237967172171920538,-2.72031820632547,3.59426658935311,342.60007527899
738335.43237976217642426491,-2.69569994201483,3.64350311797438,342.60007527899
738335.43237985263112932444,-2.69569994201483,3.66812138228502,342.587766146835
738335.43237994296941906214,-2.69569994201483,3.64350311797438,342.587766146835
738335.43238003342412412167,-2.68339080985951,3.63119398581907,342.60007527899
738335.43238012387882918119,-2.67108167770419,3.63119398581907,342.612384411145
738335.43238021433353424072,-2.67108167770419,3.64350311797438,342.624693543301
738335.43238030478823930025,-2.64646341339356,3.68043051444034,342.673930071922
738335.43238039524294435978,-2.63415428123824,3.69273964659566,342.637002675456
738335.43238048558123409748,-2.63415428123824,3.66812138228502,342.612384411145
738335.43238057603593915701,-2.6095360169276,3.69273964659566,342.538529618213
738335.43238066649064421654,-2.62184514908292,3.70504877875098,342.612384411145
738335.43238075694534927607,-2.65877254554888,3.7173579109063,342.563147882524
738335.43238084740005433559,-2.68339080985951,3.66812138228502,342.624693543301
738335.43238093785475939512,-2.70800907417015,3.60657572150843,342.624693543301
738335.43238102819304913282,-2.69569994201483,3.64350311797438,342.649311807611
738335.43238111864775419235,-2.72031820632547,3.61888485366375,342.661620939767
738335.43238120910245925188,-2.72031820632547,3.60657572150843,342.661620939767
738335.43238129955716431141,-2.70800907417015,3.60657572150843,342.710857468388
738335.43238139001186937094,-2.70800907417015,3.60657572150843,342.661620939767
738335.43238148035015910864,-2.70800907417015,3.63119398581907,342.649311807611
738335.43238157080486416817,-2.69569994201483,3.64350311797438,342.661620939767
738335.43238166125956922770,-2.70800907417015,3.61888485366375,342.612384411145
738335.43238175171427428722,-2.70800907417015,3.59426658935311,342.612384411145
738335.43238184216897934675,-2.74493647063611,3.5204117964212,342.661620939767
738335.43238193262368440628,-2.89264605649993,3.33577481409141,342.624693543301
738335.43238202296197414398,-2.72031820632547,3.60657572150843,342.747784864854
738335.43238211341667920351,-2.19102552364676,4.23434146142969,342.637002675456
738335.43238220387138426304,-1.39093193355103,5.0221259193701,342.316965239418
738335.43238229432608932257,-1.12013102613402,5.55141860204881,342.156946521399
738335.43238238478079438210,-1.698660237434,5.12059897661265,342.156946521399
738335.43238247523549944162,-2.59722688477228,3.87737662892544,342.378510900194
738335.43238256557378917933,-3.0034282458978,3.22499262469354,342.476983957437
738335.43238265602849423885,-2.94188258512121,3.32346568193609,342.501602221747
738335.43238274648319929838,-2.78186386710206,3.5204117964212,342.427747428816
738335.43238283693790435791,-2.67108167770419,3.61888485366375,342.526220486058
738335.43238292739260941744,-2.64646341339356,3.64350311797438,342.637002675456
738335.43238301784731447697,-2.62184514908292,3.6558122501297,342.575457014679
738335.43238310818560421467,-2.6095360169276,3.66812138228502,342.624693543301
738335.43238319864030927420,-2.59722688477228,3.6558122501297,342.624693543301
738335.43238328909501433372,-2.58491775261696,3.69273964659566,342.538529618213
738335.43238337954971939325,-2.58491775261696,3.69273964659566,342.612384411145
738335.43238347000442445278,-2.57260862046164,3.7173579109063,342.649311807611
738335.43238356034271419048,-2.57260862046164,3.72966704306162,342.624693543301
738335.43238365079741925001,-2.56029948830632,3.72966704306162,342.575457014679
738335.43238374125212430954,-2.54799035615101,3.74197617521694,342.612384411145
738335.43238383170682936907,-2.56029948830632,3.72966704306162,342.624693543301
738335.43238392216153442860,-2.53568122399569,3.75428530737225,342.526220486058
738335.43238401261623948812,-2.44951729890845,3.84044923245949,342.637002675456
738335.43238410295452922583,-2.51106295968505,3.77890357168289,342.637002675456
738335.43238419340923428535,-2.47413556321909,3.82814010030417,342.513911353903
738335.43238428386393934488,-2.44951729890845,3.85275836461481,342.526220486058
738335.43238437431864440441,-2.4125899024425,3.87737662892544,342.526220486058
738335.43238446477334946394,-2.37566250597654,3.9143040253914,342.513911353903
738335.43238455522805452347,-2.33873510951058,4.00046795047863,342.476983957437
738335.43238464556634426117,-2.28949858088931,4.02508621478927,342.550838750369
738335.43238473602104932070,-2.25257118442335,4.08663187556586,342.501602221747
738335.43238482647575438023,-2.16640725933612,4.16048666849778,342.513911353903
738335.43238491693045943975,-2.08024333424889,4.27126885789565,342.452365693126
738335.43238500738516449928,-2.06793420209357,4.28357799005097,342.501602221747
738335.43238509772345423698,-1.98177027700634,4.35743278298288,342.464674825282
738335.43238518817815929651,-1.96946114485102,4.38205104729352,342.452365693126
738335.43238527863286435604,-1.99407940916166,4.33281451867224,342.452365693126
738335.43238536908756941557,-2.01869767347229,4.29588712220628,342.464674825282
738335.43238545954227447510,-2.10486159855953,4.19741406496373,342.476983957437
738335.43238554999697953463,-2.24026205226803,4.04970447909991,342.513911353903
738335.43238564033526927233,-2.3510442416659,3.92661315754672,342.489293089592
738335.43238573078997433186,-2.43720816675314,3.81583096814885,342.526220486058
738335.43238582124467939138,-2.51106295968505,3.72966704306162,342.60007527899
738335.43238591169938445091,-2.56029948830632,3.69273964659566,342.637002675456
738335.43238600215408951044,-2.59722688477228,3.64350311797438,342.624693543301
738335.43238609260879456997,-2.59722688477228,3.63119398581907,342.575457014679
738335.43238618294708430767,-2.6095360169276,3.61888485366375,342.563147882524
738335.43238627340178936720,-2.62184514908292,3.63119398581907,342.452365693126
738335.43238636385649442673,-2.6095360169276,3.61888485366375,342.526220486058
738335.43238645431119948626,-2.62184514908292,3.60657572150843,342.649311807611
738335.43238654476590454578,-2.63415428123824,3.59426658935311,342.649311807611
738335.43238663522060960531,-2.62184514908292,3.60657572150843,342.661620939767
738335.43238672555889934301,-2.67108167770419,3.58195745719779,342.637002675456
738335.43238681601360440254,-2.6095360169276,3.61888485366375,342.624693543301
738335.43238690646830946207,-2.56029948830632,3.66812138228502,342.637002675456
738335.43238699692301452160,-2.68339080985951,3.55733919288715,342.686239204077
738335.43238708737771958113,-2.63415428123824,3.60657572150843,342.673930071922
738335.43238717771600931883,-2.49875382752973,3.72966704306162,342.587766146835
738335.43238726817071437836,-2.59722688477228,3.64350311797438,342.637002675456
738335.43238735862541943789,-2.64646341339356,3.58195745719779,342.649311807611
738335.43238744908012449741,-2.63415428123824,3.59426658935311,342.587766146835
738335.43238753953482955694,-2.62184514908292,3.61888485366375,342.538529618213
738335.43238762998953461647,-2.6095360169276,3.64350311797438,342.550838750369
738335.43238772032782435417,-2.6095360169276,3.63119398581907,342.550838750369
738335.43238781078252941370,-2.6095360169276,3.63119398581907,342.513911353903
738335.43238790123723447323,-2.6095360169276,3.63119398581907,342.550838750369
738335.43238799169193953276,-2.6095360169276,3.61888485366375,342.612384411145
738335.43238808214664459229,-2.6095360169276,3.61888485366375,342.550838750369
738335.43238817260134965181,-2.62184514908292,3.63119398581907,342.612384411145
738335.43238826293963938951,-2.62184514908292,3.61888485366375,342.612384411145
738335.43238835339434444904,-2.58491775261696,3.64350311797438,342.60007527899
738335.43238844384904950857,-2.62184514908292,3.61888485366375,342.575457014679
738335.43238853430375456810,-2.65877254554888,3.56964832504247,342.60007527899
738335.43238862475845962763,-2.58491775261696,3.63119398581907,342.673930071922
738335.43238871521316468716,-2.54799035615101,3.66812138228502,342.686239204077
738335.43238880555145442486,-2.63415428123824,3.61888485366375,342.649311807611
738335.43238889600615948439,-2.64646341339356,3.58195745719779,342.587766146835
738335.43238898646086454391,-2.64646341339356,3.58195745719779,342.661620939767
738335.43238907691556960344,-2.6095360169276,3.61888485366375,342.575457014679
738335.43238916737027466297,-2.6095360169276,3.61888485366375,342.624693543301
738335.43238925770856440067,-2.62184514908292,3.60657572150843,342.612384411145
738335.43238934816326946020,-2.62184514908292,3.60657572150843,342.60007527899
738335.43238943861797451973,-2.62184514908292,3.60657572150843,342.637002675456
738335.43238952907267957926,-2.62184514908292,3.60657572150843,342.60007527899
738335.43238961952738463879,-2.68339080985951,3.54503006073183,342.612384411145
738335.43238970998208969831,-2.69569994201483,3.53272092857652,342.526220486058
738335.43238980032037943602,-2.49875382752973,3.72966704306162,342.489293089592
738335.43238989077508449554,-2.53568122399569,3.70504877875098,342.464674825282
738335.43238998122978955507,-2.67108167770419,3.55733919288715,342.612384411145
738335.43239007168449461460,-2.65877254554888,3.55733919288715,342.624693543301
738335.43239016213919967413,-2.65877254554888,3.56964832504247,342.661620939767
738335.43239025259390473366,-2.64646341339356,3.56964832504247,342.624693543301
738335.43239034293219447136,-2.65877254554888,3.58195745719779,342.612384411145
738335.43239043338689953089,-2.75724560279143,3.48348439995524,342.624693543301
738335.43239052384160459042,-2.53568122399569,3.70504877875098,342.624693543301
738335.43239061429630964994,-2.70800907417015,3.53272092857652,342.649311807611
738335.43239070475101470947,-2.62184514908292,3.63119398581907,342.698548336233
738335.43239079520571976900,-2.53568122399569,3.70504877875098,342.60007527899
738335.43239088554400950670,-2.68339080985951,3.55733919288715,342.649311807611
738335.43239097599871456623,-2.67108167770419,3.55733919288715,342.686239204077
738335.43239106645341962576,-2.64646341339356,3.59426658935311,342.637002675456
738335.43239115690812468529,-2.63415428123824,3.60657572150843,342.637002675456
738335.43239124736282974482,-2.63415428123824,3.60657572150843,342.710857468388
738335.43239133770111948252,-2.62184514908292,3.63119398581907,342.698548336233
738335.43239142815582454205,-2.62184514908292,3.61888485366375,342.587766146835
738335.43239151861052960157,-2.68339080985951,3.56964832504247,342.710857468388
738335.43239160906523466110,-2.72031820632547,3.53272092857652,342.649311807611
738335.43239169951993972063,-2.59722688477228,3.6558122501297,342.649311807611
738335.43239178997464478016,-2.36335337382122,3.86506749677012,342.637002675456
738335.43239188031293451786,-2.68339080985951,3.58195745719779,342.698548336233
738335.43239197076763957739,-2.63415428123824,3.63119398581907,342.673930071922
738335.43239206122234463692,-2.6095360169276,3.6558122501297,342.624693543301
738335.43239215167704969645,-2.59722688477228,3.66812138228502,342.673930071922
738335.43239224213175475597,-2.56029948830632,3.7173579109063,342.575457014679
738335.43239233258645981550,-2.56029948830632,3.72966704306162,342.538529618213
738335.43239242292474955320,-2.54799035615101,3.7173579109063,342.550838750369
738335.43239251337945461273,-2.56029948830632,3.69273964659566,342.513911353903
738335.43239260383415967226,-2.53568122399569,3.74197617521694,342.513911353903
738335.43239269428886473179,-2.57260862046164,3.72966704306162,342.575457014679
738335.43239278474356979132,-2.64646341339356,3.6558122501297,342.550838750369
738335.43239287519827485085,-2.64646341339356,3.66812138228502,342.563147882524
738335.43239296553656458855,-2.56029948830632,3.75428530737225,342.624693543301
738335.43239305599126964808,-2.62184514908292,3.66812138228502,342.563147882524
738335.43239314644597470760,-2.67108167770419,3.63119398581907,342.575457014679
738335.43239323690067976713,-2.69569994201483,3.60657572150843,342.575457014679
738335.43239332735538482666,-2.63415428123824,3.68043051444034,342.587766146835
738335.43239341769367456436,-2.67108167770419,3.6558122501297,342.501602221747
738335.43239350814837962389,-2.67108167770419,3.6558122501297,342.563147882524
738335.43239359860308468342,-2.67108167770419,3.6558122501297,342.624693543301
738335.43239368905778974295,-2.67108167770419,3.66812138228502,342.624693543301
738335.43239377951249480247,-2.72031820632547,3.58195745719779,342.637002675456
738335.43239386996719986200,-2.94188258512121,3.28653828547014,342.698548336233
738335.43239396030548959970,-2.81879126356802,3.44655700348928,342.723166600543
738335.43239405076019465923,-2.28949858088931,4.14817753634246,342.698548336233
738335.43239414121489971876,-1.82175155898719,4.71439761548713,342.464674825282
738335.43239423166960477829,-1.3047680084638,5.44063641265094,342.23080131433
738335.43239432212430983782,-1.48940499079358,5.53910946989349,342.341583503728
738335.43239441257901489735,-2.40028077028718,4.33281451867224,342.513911353903
738335.43239450291730463505,-2.94188258512121,3.32346568193609,342.476983957437
738335.43239459337200969458,-2.99111911374248,3.31115654978078,342.575457014679
738335.43239468382671475410,-2.92957345296589,3.38501134271269,342.60007527899
738335.43239477428141981363,-2.81879126356802,3.54503006073183,342.637002675456
738335.43239486473612487316,-2.72031820632547,3.64350311797438,342.637002675456
738335.43239495519082993269,-2.65877254554888,3.70504877875098,342.637002675456
738335.43239504552911967039,-2.64646341339356,3.7173579109063,342.661620939767
738335.43239513598382472992,-2.65877254554888,3.70504877875098,342.612384411145
738335.43239522643852978945,-2.64646341339356,3.7173579109063,342.612384411145
738335.43239531689323484898,-2.59722688477228,3.75428530737225,342.575457014679
738335.43239540734793990850,-2.67108167770419,3.69273964659566,342.526220486058
738335.43239549768622964621,-2.58491775261696,3.77890357168289,342.575457014679
738335.43239558814093470573,-2.49875382752973,3.88968576108076,342.60007527899
738335.43239567859563976526,-2.58491775261696,3.79121270383821,342.538529618213
738335.43239576905034482479,-2.56029948830632,3.81583096814885,342.60007527899
738335.43239585950504988432,-2.53568122399569,3.84044923245949,342.587766146835
738335.43239594995975494385,-2.52337209184037,3.85275836461481,342.513911353903
738335.43239604029804468155,-2.54799035615101,3.84044923245949,342.563147882524
738335.43239613075274974108,-2.47413556321909,3.9143040253914,342.575457014679
738335.43239622120745480061,-2.42489903459782,3.96354055401268,342.563147882524
738335.43239631166215986013,-2.46182643106377,3.93892228970204,342.526220486058
738335.43239640211686491966,-2.37566250597654,4.01277708263395,342.563147882524
738335.43239649257156997919,-2.33873510951058,4.06201361125523,342.575457014679
738335.43239658290985971689,-2.36335337382122,4.02508621478927,342.563147882524
738335.43239667336456477642,-2.26488031657867,4.13586840418714,342.501602221747
738335.43239676381926983595,-2.20333465580208,4.20972319711905,342.440056560971
738335.43239685427397489548,-2.17871639149144,4.24665059358501,342.41543829666
738335.43239694472867995501,-2.17871639149144,4.25895972574033,342.243110446486
738335.43239703518338501453,-1.98177027700634,4.45590584022543,342.329274371573
738335.43239712552167475224,-1.93253374838506,4.51745150100202,342.427747428816
738335.43239721597637981176,-1.98177027700634,4.46821497238075,342.41543829666
738335.43239730643108487129,-2.01869767347229,4.41897844375947,342.39082003235
738335.43239739688578993082,-2.08024333424889,4.32050538651692,342.427747428816
738335.43239748734049499035,-2.20333465580208,4.1727958006531,342.452365693126
738335.43239757767878472805,-2.33873510951058,4.01277708263395,342.476983957437
738335.43239766813348978758,-2.43720816675314,3.88968576108076,342.501602221747
738335.43239775858819484711,-2.49875382752973,3.81583096814885,342.513911353903
738335.43239784904289990664,-2.54799035615101,3.77890357168289,342.513911353903
738335.43239793949760496616,-2.59722688477228,3.74197617521694,342.526220486058
738335.43239802995231002569,-2.6095360169276,3.7173579109063,342.526220486058
738335.43239812029059976339,-2.72031820632547,3.59426658935311,342.501602221747
738335.43239821074530482292,-2.62184514908292,3.70504877875098,342.501602221747
738335.43239830120000988245,-2.52337209184037,3.79121270383821,342.513911353903
738335.43239839165471494198,-2.69569994201483,3.61888485366375,342.489293089592
738335.43239848210942000151,-2.62184514908292,3.69273964659566,342.513911353903
738335.43239857256412506104,-2.65877254554888,3.66812138228502,342.587766146835
738335.43239866290241479874,-2.65877254554888,3.6558122501297,342.563147882524
738335.43239875335711985826,-2.59722688477228,3.70504877875098,342.526220486058
738335.43239884381182491779,-2.64646341339356,3.66812138228502,342.587766146835
738335.43239893426652997732,-2.63415428123824,3.66812138228502,342.550838750369
738335.43239902472123503685,-2.63415428123824,3.68043051444034,342.563147882524
738335.43239911517594009638,-2.64646341339356,3.66812138228502,342.587766146835
738335.43239920551422983408,-2.73262733848079,3.56964832504247,342.60007527899
738335.43239929596893489361,-2.53568122399569,3.76659443952757,342.60007527899
738335.43239938642363995314,-2.59722688477228,3.70504877875098,342.624693543301
738335.43239947687834501266,-2.62184514908292,3.69273964659566,342.624693543301
738335.43239956733305007219,-2.63415428123824,3.66812138228502,342.60007527899
738335.43239965767133980989,-2.64646341339356,3.6558122501297,342.526220486058
738335.43239974812604486942,-2.6095360169276,3.70504877875098,342.612384411145
738335.43239983858074992895,-2.63415428123824,3.68043051444034,342.624693543301
738335.43239992903545498848,-2.67108167770419,3.64350311797438,342.550838750369
738335.43240001949016004801,-2.58491775261696,3.72966704306162,342.60007527899
738335.43240010994486510754,-2.68339080985951,3.61888485366375,342.612384411145
738335.43240020028315484524,-2.64646341339356,3.66812138228502,342.550838750369
738335.43240029073785990477,-2.62184514908292,3.69273964659566,342.550838750369
738335.43240038119256496429,-2.73262733848079,3.59426658935311,342.575457014679
738335.43240047164727002382,-2.56029948830632,3.75428530737225,342.39082003235
738335.43240056210197508335,-2.64646341339356,3.66812138228502,342.526220486058
738335.43240065255668014288,-2.64646341339356,3.6558122501297,342.563147882524
738335.43240074289496988058,-2.68339080985951,3.61888485366375,342.550838750369
738335.43240083334967494011,-2.63415428123824,3.66812138228502,342.526220486058
738335.43240092380437999964,-2.65877254554888,3.6558122501297,342.538529618213
738335.43240101425908505917,-2.64646341339356,3.6558122501297,342.538529618213
738335.43240110471379011869,-2.75724560279143,3.55733919288715,342.526220486058
738335.43240119505207985640,-2.57260862046164,3.7173579109063,342.526220486058
738335.43240128550678491592,-2.63415428123824,3.6558122501297,342.563147882524
738335.43240137596148997545,-2.62184514908292,3.68043051444034,342.513911353903
738335.43240146641619503498,-2.67108167770419,3.63119398581907,342.526220486058
738335.43240155687090009451,-2.73262733848079,3.56964832504247,342.550838750369
738335.43240164732560515404,-2.6095360169276,3.68043051444034,342.513911353903
738335.43240173766389489174,-2.64646341339356,3.6558122501297,342.526220486058
738335.43240182811859995127,-2.69569994201483,3.60657572150843,342.60007527899
738335.43240191857330501080,-2.6095360169276,3.68043051444034,342.624693543301
738335.43240200902801007032,-2.65877254554888,3.64350311797438,342.538529618213
738335.43240209948271512985,-2.65877254554888,3.63119398581907,342.550838750369
738335.43240218993742018938,-2.65877254554888,3.64350311797438,342.538529618213
738335.43240228027570992708,-2.64646341339356,3.6558122501297,342.587766146835
738335.43240237073041498661,-2.67108167770419,3.63119398581907,342.60007527899
738335.43240246118512004614,-2.65877254554888,3.63119398581907,342.637002675456
738335.43240255163982510567,-2.67108167770419,3.61888485366375,342.661620939767
738335.43240264209453016520,-2.57260862046164,3.7173579109063,342.587766146835
738335.43240273254923522472,-2.76955473494675,3.54503006073183,342.587766146835
738335.43240282288752496243,-2.6095360169276,3.69273964659566,342.575457014679
738335.43240291334223002195,-2.62184514908292,3.66812138228502,342.60007527899
738335.43240300379693508148,-2.67108167770419,3.64350311797438,342.575457014679
738335.43240309425164014101,-2.63415428123824,3.64350311797438,342.612384411145
738335.43240318470634520054,-2.6095360169276,3.66812138228502,342.563147882524
738335.43240327504463493824,-2.62184514908292,3.6558122501297,342.60007527899
738335.43240336549933999777,-2.65877254554888,3.63119398581907,342.637002675456
738335.43240345595404505730,-2.72031820632547,3.56964832504247,342.649311807611
738335.43240354640875011683,-2.57260862046164,3.70504877875098,342.60007527899
738335.43240363686345517635,-2.56029948830632,3.74197617521694,342.624693543301
738335.43240372731816023588,-2.69569994201483,3.60657572150843,342.637002675456
738335.43240381765644997358,-2.6095360169276,3.68043051444034,342.538529618213
738335.43240390811115503311,-2.69569994201483,3.59426658935311,342.427747428816
738335.43240399856586009264,-2.64646341339356,3.64350311797438,342.440056560971
738335.43240408902056515217,-2.42489903459782,3.86506749677012,342.575457014679
738335.43240417947527021170,-2.62184514908292,3.68043051444034,342.563147882524
738335.43240426992997527122,-2.62184514908292,3.66812138228502,342.624693543301
738335.43240436026826500893,-2.58491775261696,3.69273964659566,342.624693543301
738335.43240445072297006845,-2.62184514908292,3.72966704306162,342.60007527899
738335.43240454117767512798,-2.57260862046164,3.76659443952757,342.637002675456
738335.43240463163238018751,-2.65877254554888,3.6558122501297,342.649311807611
738335.43240472208708524704,-2.63415428123824,3.64350311797438,342.624693543301
738335.43240481254179030657,-2.53568122399569,3.75428530737225,342.563147882524
738335.43240490288008004427,-2.78186386710206,3.53272092857652,342.624693543301
738335.43240499333478510380,-2.6095360169276,3.69273964659566,342.637002675456
738335.43240508378949016333,-2.57260862046164,3.7173579109063,342.538529618213
738335.43240517424419522285,-2.73262733848079,3.56964832504247,342.60007527899
738335.43240526469890028238,-2.62184514908292,3.6558122501297,342.489293089592
738335.43240535503719002008,-2.63415428123824,3.6558122501297,342.501602221747
738335.43240544549189507961,-2.64646341339356,3.64350311797438,342.526220486058
738335.43240553594660013914,-2.67108167770419,3.58195745719779,342.550838750369
738335.43240562640130519867,-2.79417299925738,3.38501134271269,342.550838750369
738335.43240571685601025820,-2.73262733848079,3.49579353211056,342.637002675456
738335.43240580731071531773,-2.32642597735527,4.04970447909991,342.649311807611
738335.43240589764900505543,-1.96946114485102,4.44359670807011,342.513911353903
738335.43240598810371011496,-1.15705842259997,5.30523595894243,342.20618305002
738335.43240607855841517448,-1.14474929044465,5.62527339498072,342.181564785709
738335.43240616901312023401,-1.92022461622974,4.91134372997223,342.341583503728
738335.43240625946782529354,-2.64646341339356,3.70504877875098,342.427747428816
738335.43240634992253035307,-2.97880998158717,3.22499262469354,342.526220486058
738335.43240644026082009077,-2.84340952787866,3.38501134271269,342.587766146835
738335.43240653071552515030,-2.73262733848079,3.5204117964212,342.513911353903
738335.43240662117023020983,-2.69569994201483,3.55733919288715,342.550838750369
738335.43240671162493526936,-2.54799035615101,3.72966704306162,342.550838750369
738335.43240680207964032888,-2.48644469537441,3.75428530737225,342.612384411145
738335.43240689253434538841,-2.65877254554888,3.59426658935311,342.575457014679
738335.43240698287263512611,-2.47413556321909,3.76659443952757,342.513911353903
738335.43240707332734018564,-2.54799035615101,3.72966704306162,342.538529618213
738335.43240716378204524517,-2.52337209184037,3.75428530737225,342.476983957437
738335.43240725423675030470,-2.54799035615101,3.70504877875098,342.513911353903
738335.43240734469145536423,-2.54799035615101,3.7173579109063,342.513911353903
738335.43240743502974510193,-2.49875382752973,3.76659443952757,342.329274371573
738335.43240752548445016146,-2.47413556321909,3.79121270383821,342.403129164505
738335.43240761593915522099,-2.49875382752973,3.76659443952757,342.489293089592
738335.43240770639386028051,-2.44951729890845,3.80352183599353,342.489293089592
738335.43240779684856534004,-2.37566250597654,3.87737662892544,342.476983957437
738335.43240788730327039957,-2.44951729890845,3.81583096814885,342.427747428816
738335.43240797764156013727,-2.32642597735527,3.95123142185736,342.489293089592
738335.43240806809626519680,-2.36335337382122,3.9143040253914,342.538529618213
738335.43240815855097025633,-2.36335337382122,3.92661315754672,342.513911353903
738335.43240824900567531586,-2.28949858088931,4.00046795047863,342.550838750369
738335.43240833946038037539,-2.25257118442335,4.02508621478927,342.550838750369
738335.43240842991508543491,-2.20333465580208,4.09894100772118,342.489293089592
738335.43240852025337517262,-2.1540981271808,4.14817753634246,342.538529618213
738335.43240861070808023214,-2.09255246640421,4.22203232927437,342.526220486058
738335.43240870116278529167,-2.06793420209357,4.25895972574033,342.501602221747
738335.43240879161749035120,-2.01869767347229,4.29588712220628,342.489293089592
738335.43240888207219541073,-1.80944242683187,4.50514236884671,342.501602221747
738335.43240897252690047026,-1.93253374838506,4.38205104729352,342.464674825282
738335.43240906286519020796,-1.9571520126957,4.3697419151382,342.41543829666
738335.43240915331989526749,-1.93253374838506,4.3697419151382,342.489293089592
738335.43240924377460032701,-2.17871639149144,4.08663187556586,342.550838750369
738335.43240933422930538654,-2.28949858088931,3.95123142185736,342.513911353903
738335.43240942468401044607,-2.36335337382122,3.85275836461481,342.538529618213
738335.43240951502230018377,-2.43720816675314,3.79121270383821,342.550838750369
738335.43240960547700524330,-2.47413556321909,3.75428530737225,342.526220486058
738335.43240969593171030283,-2.57260862046164,3.6558122501297,342.513911353903
738335.43240978638641536236,-2.63415428123824,3.56964832504247,342.526220486058
738335.43240987684112042189,-2.36335337382122,3.85275836461481,342.550838750369
738335.43240996729582548141,-2.6095360169276,3.59426658935311,342.575457014679
738335.43241005763411521912,-2.56029948830632,3.66812138228502,342.538529618213
738335.43241014808882027864,-2.65877254554888,3.55733919288715,342.550838750369
738335.43241023854352533817,-2.53568122399569,3.68043051444034,342.550838750369
738335.43241032899823039770,-2.58491775261696,3.6558122501297,342.563147882524
738335.43241041945293545723,-2.57260862046164,3.6558122501297,342.575457014679
738335.43241050990764051676,-2.57260862046164,3.6558122501297,342.550838750369
738335.43241060024593025446,-2.57260862046164,3.66812138228502,342.538529618213
738335.43241069070063531399,-2.62184514908292,3.59426658935311,342.60007527899
738335.43241078115534037352,-2.68339080985951,3.53272092857652,342.612384411145
738335.43241087161004543304,-2.43720816675314,3.77890357168289,342.60007527899
738335.43241096206475049257,-2.62184514908292,3.59426658935311,342.476983957437
738335.43241105251945555210,-2.54799035615101,3.66812138228502,342.501602221747
738335.43241114285774528980,-2.52337209184037,3.69273964659566,342.538529618213
738335.43241123331245034933,-2.6095360169276,3.60657572150843,342.538529618213
738335.43241132376715540886,-2.57260862046164,3.63119398581907,342.575457014679
738335.43241141422186046839,-2.57260862046164,3.6558122501297,342.538529618213
738335.43241150467656552792,-2.57260862046164,3.64350311797438,342.550838750369
738335.43241159501485526562,-2.57260862046164,3.6558122501297,342.575457014679
738335.43241168546956032515,-2.56029948830632,3.68043051444034,342.563147882524
738335.43241177592426538467,-2.57260862046164,3.6558122501297,342.550838750369
738335.43241186637897044420,-2.62184514908292,3.59426658935311,342.563147882524
738335.43241195683367550373,-2.65877254554888,3.56964832504247,342.637002675456
738335.43241204728838056326,-2.51106295968505,3.70504877875098,342.624693543301
738335.43241213762667030096,-2.53568122399569,3.68043051444034,342.563147882524
738335.43241222808137536049,-2.58491775261696,3.63119398581907,342.624693543301
738335.43241231853608042002,-2.62184514908292,3.59426658935311,342.637002675456
738335.43241240899078547955,-2.56029948830632,3.66812138228502,342.624693543301
738335.43241249944549053907,-2.58491775261696,3.64350311797438,342.60007527899
738335.43241258990019559860,-2.58491775261696,3.64350311797438,342.649311807611
738335.43241268023848533630,-2.59722688477228,3.61888485366375,342.649311807611
738335.43241277069319039583,-2.6095360169276,3.60657572150843,342.60007527899
738335.43241286114789545536,-2.64646341339356,3.58195745719779,342.649311807611
738335.43241295160260051489,-2.56029948830632,3.6558122501297,342.587766146835
738335.43241304205730557442,-2.59722688477228,3.61888485366375,342.513911353903
738335.43241313251201063395,-2.59722688477228,3.61888485366375,342.513911353903
738335.43241322285030037165,-2.63415428123824,3.59426658935311,342.526220486058
738335.43241331330500543118,-2.53568122399569,3.68043051444034,342.538529618213
738335.43241340375971049070,-2.58491775261696,3.64350311797438,342.489293089592
738335.43241349421441555023,-2.58491775261696,3.64350311797438,342.452365693126
738335.43241358466912060976,-2.6095360169276,3.60657572150843,342.563147882524
738335.43241367500741034746,-2.59722688477228,3.63119398581907,342.538529618213
738335.43241376546211540699,-2.6095360169276,3.59426658935311,342.563147882524
738335.43241385591682046652,-2.6095360169276,3.63119398581907,342.550838750369
738335.43241394637152552605,-2.6095360169276,3.61888485366375,342.563147882524
738335.43241403682623058558,-2.63415428123824,3.58195745719779,342.538529618213
738335.43241412728093564510,-2.64646341339356,3.56964832504247,342.550838750369
738335.43241421761922538280,-2.56029948830632,3.66812138228502,342.575457014679
738335.43241430807393044233,-2.67108167770419,3.54503006073183,342.624693543301
738335.43241439852863550186,-2.46182643106377,3.76659443952757,342.550838750369
738335.43241448898334056139,-2.63415428123824,3.58195745719779,342.427747428816
738335.43241457943804562092,-2.62184514908292,3.59426658935311,342.501602221747
738335.43241466989275068045,-2.62184514908292,3.58195745719779,342.624693543301
738335.43241476023104041815,-2.6095360169276,3.63119398581907,342.612384411145
738335.43241485068574547768,-2.62184514908292,3.60657572150843,342.575457014679
738335.43241494114045053720,-2.6095360169276,3.63119398581907,342.575457014679
738335.43241503159515559673,-2.6095360169276,3.61888485366375,342.563147882524
738335.43241512204986065626,-2.63415428123824,3.59426658935311,342.587766146835
738335.43241521250456571579,-2.64646341339356,3.59426658935311,342.637002675456
738335.43241530284285545349,-2.62184514908292,3.60657572150843,342.649311807611
738335.43241539329756051302,-2.65877254554888,3.56964832504247,342.637002675456
738335.43241548375226557255,-2.56029948830632,3.66812138228502,342.538529618213
738335.43241557420697063208,-2.63415428123824,3.60657572150843,342.60007527899
738335.43241566466167569160,-2.58491775261696,3.64350311797438,342.587766146835
738335.43241575499996542931,-2.64646341339356,3.58195745719779,342.587766146835
738335.43241584545467048883,-2.59722688477228,3.63119398581907,342.649311807611
738335.43241593590937554836,-2.6095360169276,3.63119398581907,342.698548336233
738335.43241602636408060789,-2.6095360169276,3.63119398581907,342.649311807611
738335.43241611681878566742,-2.6095360169276,3.61888485366375,342.575457014679
738335.43241620727349072695,-2.58491775261696,3.64350311797438,342.673930071922
738335.43241629761178046465,-2.54799035615101,3.68043051444034,342.637002675456
738335.43241638806648552418,-2.64646341339356,3.60657572150843,342.563147882524
738335.43241647852119058371,-2.63415428123824,3.60657572150843,342.612384411145
738335.43241656897589564323,-2.40028077028718,3.85275836461481,342.649311807611
738335.43241665943060070276,-2.59722688477228,3.66812138228502,342.575457014679
738335.43241674988530576229,-2.69569994201483,3.59426658935311,342.661620939767
738335.43241684022359549999,-2.65877254554888,3.61888485366375,342.686239204077
738335.43241693067830055952,-2.58491775261696,3.66812138228502,342.637002675456
738335.43241702113300561905,-2.67108167770419,3.56964832504247,342.563147882524
738335.43241711158771067858,-2.67108167770419,3.55733919288715,342.637002675456
738335.43241720204241573811,-2.6095360169276,3.64350311797438,342.661620939767
738335.43241729238070547581,-2.63415428123824,3.61888485366375,342.624693543301
738335.43241738283541053534,-2.62184514908292,3.61888485366375,342.661620939767
738335.43241747329011559486,-2.64646341339356,3.60657572150843,342.637002675456
738335.43241756374482065439,-2.64646341339356,3.61888485366375,342.550838750369
738335.43241765419952571392,-2.64646341339356,3.61888485366375,342.563147882524
738335.43241774465423077345,-2.72031820632547,3.54503006073183,342.526220486058
738335.43241783499252051115,-2.75724560279143,3.42193873917865,342.513911353903
738335.43241792544722557068,-2.78186386710206,3.36039307840205,342.563147882524
738335.43241801590193063021,-2.51106295968505,3.76659443952757,342.501602221747
738335.43241810635663568974,-2.08024333424889,4.34512365082756,342.476983957437
738335.43241819681134074926,-1.35400453708508,5.19445376954456,342.329274371573
738335.43241828726604580879,-1.26784061199784,5.66220079144668,342.280037842952
738335.43241837760433554649,-1.99407940916166,4.97288939074882,342.464674825282
738335.43241846805904060602,-2.64646341339356,3.74197617521694,342.501602221747
738335.43241855851374566555,-2.92957345296589,3.27422915331482,342.513911353903
738335.43241864896845072508,-2.90495518865525,3.33577481409141,342.550838750369
738335.43241873942315578461,-2.84340952787866,3.43424787133396,342.60007527899
738335.43241882987786084414,-2.64646341339356,3.64350311797438,342.60007527899
738335.43241892021615058184,-2.47413556321909,3.80352183599353,342.563147882524
738335.43241901067085564137,-2.59722688477228,3.69273964659566,342.624693543301
738335.43241910112556070089,-2.64646341339356,3.64350311797438,342.550838750369
738335.43241919158026576042,-2.65877254554888,3.63119398581907,342.637002675456
738335.43241928203497081995,-2.59722688477228,3.68043051444034,342.550838750369
738335.43241937237326055765,-2.52337209184037,3.77890357168289,342.550838750369
738335.43241946282796561718,-2.59722688477228,3.7173579109063,342.60007527899
738335.43241955328267067671,-2.54799035615101,3.77890357168289,342.575457014679
738335.43241964373737573624,-2.56029948830632,3.74197617521694,342.612384411145
738335.43241973419208079576,-2.63415428123824,3.69273964659566,342.587766146835
738335.43241982464678585529,-2.48644469537441,3.81583096814885,342.563147882524
738335.43241991498507559299,-2.42489903459782,3.88968576108076,342.550838750369
738335.43242000543978065252,-2.49875382752973,3.84044923245949,342.587766146835
738335.43242009589448571205,-2.52337209184037,3.82814010030417,342.563147882524
738335.43242018634919077158,-2.51106295968505,3.84044923245949,342.575457014679
738335.43242027680389583111,-2.40028077028718,3.96354055401268,342.550838750369
738335.43242036725860089064,-2.40028077028718,3.98815881832331,342.60007527899
738335.43242045759689062834,-2.38797163813186,3.98815881832331,342.624693543301
738335.43242054805159568787,-2.33873510951058,4.04970447909991,342.464674825282
738335.43242063850630074739,-2.27718944873399,4.12355927203182,342.575457014679
738335.43242072896100580692,-2.24026205226803,4.16048666849778,342.60007527899
738335.43242081941571086645,-2.2156437879574,4.18510493280842,342.526220486058
738335.43242090987041592598,-2.1540981271808,4.25895972574033,342.452365693126
738335.43242100020870566368,-2.11717073071485,4.32050538651692,342.550838750369
738335.43242109066341072321,-2.1540981271808,4.28357799005097,342.550838750369
738335.43242118111811578274,-1.94484288054038,4.50514236884671,342.41543829666
738335.43242127157282084227,-1.98177027700634,4.46821497238075,342.513911353903
738335.43242136202752590179,-2.08024333424889,4.35743278298288,342.526220486058
738335.43242145236581563950,-2.1540981271808,4.27126885789565,342.526220486058
738335.43242154282052069902,-2.33873510951058,4.04970447909991,342.464674825282
738335.43242163327522575855,-2.42489903459782,3.92661315754672,342.452365693126
738335.43242172372993081808,-2.51106295968505,3.81583096814885,342.637002675456
738335.43242181418463587761,-2.57260862046164,3.75428530737225,342.538529618213
738335.43242190463934093714,-2.6095360169276,3.72966704306162,342.587766146835
738335.43242199497763067484,-2.65877254554888,3.69273964659566,342.637002675456
738335.43242208543233573437,-2.67108167770419,3.69273964659566,342.661620939767
738335.43242217588704079390,-2.70800907417015,3.6558122501297,342.501602221747
738335.43242226634174585342,-2.72031820632547,3.63119398581907,342.563147882524
738335.43242235679645091295,-2.74493647063611,3.60657572150843,342.538529618213
738335.43242244725115597248,-2.56029948830632,3.80352183599353,342.550838750369
738335.43242253758944571018,-2.69569994201483,3.6558122501297,342.563147882524
738335.43242262804415076971,-2.74493647063611,3.60657572150843,342.612384411145
738335.43242271849885582924,-2.72031820632547,3.61888485366375,342.563147882524
738335.43242280895356088877,-2.69569994201483,3.6558122501297,342.563147882524
738335.43242289940826594830,-2.68339080985951,3.66812138228502,342.575457014679
738335.43242298986297100782,-2.68339080985951,3.66812138228502,342.526220486058
738335.43242308020126074553,-2.70800907417015,3.63119398581907,342.538529618213
738335.43242317065596580505,-2.75724560279143,3.58195745719779,342.526220486058
738335.43242326111067086458,-2.57260862046164,3.75428530737225,342.563147882524
738335.43242335156537592411,-2.72031820632547,3.63119398581907,342.538529618213
738335.43242344202008098364,-2.78186386710206,3.55733919288715,342.563147882524
738335.43242353235837072134,-2.6095360169276,3.74197617521694,342.563147882524
738335.43242362281307578087,-2.67108167770419,3.68043051444034,342.587766146835
738335.43242371326778084040,-2.72031820632547,3.63119398581907,342.612384411145
738335.43242380372248589993,-2.74493647063611,3.59426658935311,342.624693543301
738335.43242389417719095945,-2.68339080985951,3.63119398581907,342.60007527899
738335.43242398463189601898,-2.69569994201483,3.66812138228502,342.550838750369
738335.43242407497018575668,-2.65877254554888,3.68043051444034,342.575457014679
738335.43242416542489081621,-2.72031820632547,3.61888485366375,342.624693543301
738335.43242425587959587574,-2.56029948830632,3.77890357168289,342.612384411145
738335.43242434633430093527,-2.72031820632547,3.60657572150843,342.612384411145
738335.43242443678900599480,-2.68339080985951,3.64350311797438,342.612384411145
738335.43242452724371105433,-2.67108167770419,3.6558122501297,342.649311807611
738335.43242461758200079203,-2.74493647063611,3.58195745719779,342.649311807611
738335.43242470803670585155,-2.63415428123824,3.68043051444034,342.649311807611
738335.43242479849141091108,-2.57260862046164,3.74197617521694,342.563147882524
738335.43242488894611597061,-2.67108167770419,3.64350311797438,342.649311807611
738335.43242497940082103014,-2.67108167770419,3.64350311797438,342.686239204077
738335.43242506985552608967,-2.65877254554888,3.6558122501297,342.501602221747
738335.43242516019381582737,-2.65877254554888,3.6558122501297,342.501602221747
738335.43242525064852088690,-2.64646341339356,3.68043051444034,342.673930071922
738335.43242534110322594643,-2.65877254554888,3.64350311797438,342.661620939767
738335.43242543155793100595,-2.65877254554888,3.64350311797438,342.624693543301
738335.43242552201263606548,-2.67108167770419,3.6558122501297,342.624693543301
738335.43242561235092580318,-2.67108167770419,3.63119398581907,342.661620939767
738335.43242570280563086271,-2.65877254554888,3.6558122501297,342.686239204077
738335.43242579326033592224,-2.67108167770419,3.64350311797438,342.60007527899
738335.43242588371504098177,-2.67108167770419,3.63119398581907,342.637002675456
738335.43242597416974604130,-2.65877254554888,3.64350311797438,342.612384411145
738335.43242606462445110083,-2.73262733848079,3.58195745719779,342.550838750369
738335.43242615496274083853,-2.62184514908292,3.66812138228502,342.624693543301
738335.43242624541744589806,-2.72031820632547,3.59426658935311,342.661620939767
738335.43242633587215095758,-2.59722688477228,3.7173579109063,342.637002675456
738335.43242642632685601711,-2.53568122399569,3.77890357168289,342.575457014679
738335.43242651678156107664,-2.70800907417015,3.60657572150843,342.673930071922
738335.43242660723626613617,-2.69569994201483,3.59426658935311,342.513911353903
738335.43242669757455587387,-2.68339080985951,3.60657572150843,342.538529618213
738335.43242678802926093340,-2.70800907417015,3.58195745719779,342.563147882524
738335.43242687848396599293,-2.65877254554888,3.64350311797438,342.624693543301
738335.43242696893867105246,-2.67108167770419,3.63119398581907,342.575457014679
738335.43242705939337611198,-2.72031820632547,3.54503006073183,342.673930071922
738335.43242714984808117151,-2.64646341339356,3.63119398581907,342.649311807611
738335.43242724018637090921,-2.6095360169276,3.66812138228502,342.60007527899
738335.43242733064107596874,-2.65877254554888,3.63119398581907,342.60007527899
738335.43242742109578102827,-2.65877254554888,3.61888485366375,342.575457014679
738335.43242751155048608780,-2.67108167770419,3.61888485366375,342.587766146835
738335.43242760200519114733,-2.64646341339356,3.61888485366375,342.612384411145
738335.43242769234348088503,-2.64646341339356,3.61888485366375,342.624693543301
738335.43242778279818594456,-2.64646341339356,3.61888485366375,342.649311807611
738335.43242787325289100409,-2.63415428123824,3.63119398581907,342.563147882524
738335.43242796370759606361,-2.6095360169276,3.66812138228502,342.538529618213
738335.43242805416230112314,-2.58491775261696,3.69273964659566,342.563147882524
738335.43242814461700618267,-2.57260862046164,3.69273964659566,342.550838750369
738335.43242823495529592037,-2.57260862046164,3.68043051444034,342.538529618213
738335.43242832541000097990,-2.57260862046164,3.68043051444034,342.526220486058
738335.43242841586470603943,-2.58491775261696,3.68043051444034,342.575457014679
738335.43242850631941109896,-2.62184514908292,3.66812138228502,342.587766146835
738335.43242859677411615849,-2.56029948830632,3.69273964659566,342.316965239418
738335.43242868722882121801,-2.6095360169276,3.64350311797438,342.452365693126
738335.43242877756711095572,-2.69569994201483,3.58195745719779,342.575457014679
738335.43242886802181601524,-2.64646341339356,3.63119398581907,342.637002675456
738335.43242895847652107477,-2.64646341339356,3.59426658935311,342.637002675456
738335.43242904893122613430,-2.63415428123824,3.61888485366375,342.60007527899
738335.43242913938593119383,-2.63415428123824,3.60657572150843,342.673930071922
738335.43242922984063625336,-2.64646341339356,3.60657572150843,342.661620939767
738335.43242932017892599106,-2.64646341339356,3.59426658935311,342.649311807611
738335.43242941063363105059,-2.65877254554888,3.58195745719779,342.612384411145
738335.43242950108833611012,-2.74493647063611,3.43424787133396,342.637002675456
738335.43242959154304116964,-2.84340952787866,3.27422915331482,342.661620939767
738335.43242968199774622917,-2.59722688477228,3.63119398581907,342.649311807611
738335.43242977233603596687,-2.12947986287016,4.24665059358501,342.673930071922
738335.43242986279074102640,-1.36631366924039,5.09598071230201,342.366201768039
738335.43242995324544608593,-1.15705842259997,5.6129642628254,342.267728710796
738335.43243004370015114546,-1.39093193355103,5.48987294127221,342.218492182175
738335.43243013415485620499,-2.2156437879574,4.51745150100202,342.452365693126
738335.43243022460956126451,-2.81879126356802,3.38501134271269,342.366201768039
738335.43243031494785100222,-2.92957345296589,3.2619200211595,342.501602221747
738335.43243040540255606174,-2.81879126356802,3.39732047486801,342.612384411145
738335.43243049585726112127,-2.72031820632547,3.49579353211056,342.60007527899
738335.43243058631196618080,-2.63415428123824,3.59426658935311,342.661620939767
738335.43243067676667124033,-2.54799035615101,3.66812138228502,342.587766146835
738335.43243076722137629986,-2.56029948830632,3.66812138228502,342.550838750369
738335.43243085755966603756,-2.53568122399569,3.69273964659566,342.612384411145
738335.43243094801437109709,-2.56029948830632,3.6558122501297,342.60007527899
738335.43243103846907615662,-2.57260862046164,3.66812138228502,342.587766146835
738335.43243112892378121614,-2.56029948830632,3.68043051444034,342.550838750369
738335.43243121937848627567,-2.49875382752973,3.74197617521694,342.575457014679
738335.43243130971677601337,-2.54799035615101,3.69273964659566,342.60007527899
738335.43243140017148107290,-2.54799035615101,3.69273964659566,342.60007527899
738335.43243149062618613243,-2.30180771304463,3.95123142185736,342.612384411145
738335.43243158108089119196,-2.49875382752973,3.75428530737225,342.612384411145
738335.43243167153559625149,-2.47413556321909,3.77890357168289,342.60007527899
738335.43243176199030131102,-2.43720816675314,3.82814010030417,342.489293089592
738335.43243185232859104872,-2.42489903459782,3.84044923245949,342.513911353903
738335.43243194278329610825,-2.38797163813186,3.87737662892544,342.489293089592
738335.43243203323800116777,-2.3510442416659,3.92661315754672,342.550838750369
738335.43243212369270622730,-2.32642597735527,3.95123142185736,342.452365693126
738335.43243221414741128683,-2.28949858088931,3.98815881832331,342.341583503728
738335.43243230460211634636,-2.24026205226803,4.04970447909991,342.427747428816
738335.43243239494040608406,-2.20333465580208,4.1112501398765,342.513911353903
738335.43243248539511114359,-2.14178899502548,4.18510493280842,342.501602221747
738335.43243257584981620312,-2.08024333424889,4.24665059358501,342.550838750369
738335.43243266630452126265,-2.01869767347229,4.33281451867224,342.550838750369
738335.43243275675922632217,-1.96946114485102,4.38205104729352,342.501602221747
738335.43243284721393138170,-1.9571520126957,4.39436017944884,342.513911353903
738335.43243293755222111940,-1.90791548407442,4.41897844375947,342.526220486058
738335.43243302800692617893,-1.96946114485102,4.35743278298288,342.526220486058
738335.43243311846163123846,-2.10486159855953,4.19741406496373,342.526220486058
738335.43243320891633629799,-2.2156437879574,4.04970447909991,342.550838750369
738335.43243329937104135752,-2.36335337382122,3.88968576108076,342.612384411145
738335.43243338970933109522,-2.43720816675314,3.81583096814885,342.526220486058
738335.43243348016403615475,-2.44951729890845,3.80352183599353,342.612384411145
738335.43243357061874121428,-2.54799035615101,3.70504877875098,342.624693543301
738335.43243366107344627380,-2.58491775261696,3.66812138228502,342.624693543301
738335.43243375152815133333,-2.6095360169276,3.6558122501297,342.624693543301
738335.43243384198285639286,-2.63415428123824,3.61888485366375,342.661620939767
738335.43243393232114613056,-2.59722688477228,3.6558122501297,342.661620939767
738335.43243402277585119009,-2.62184514908292,3.6558122501297,342.673930071922
738335.43243411323055624962,-2.69569994201483,3.58195745719779,342.624693543301
738335.43243420368526130915,-2.65877254554888,3.60657572150843,342.686239204077
738335.43243429413996636868,-2.54799035615101,3.70504877875098,342.698548336233
738335.43243438459467142820,-2.63415428123824,3.63119398581907,342.661620939767
738335.43243447493296116590,-2.64646341339356,3.61888485366375,342.661620939767
738335.43243456538766622543,-2.64646341339356,3.63119398581907,342.686239204077
738335.43243465584237128496,-2.65877254554888,3.60657572150843,342.649311807611
738335.43243474629707634449,-2.64646341339356,3.61888485366375,342.673930071922
738335.43243483675178140402,-2.64646341339356,3.63119398581907,342.698548336233
738335.43243492720648646355,-2.64646341339356,3.63119398581907,342.735475732699
738335.43243501754477620125,-2.65877254554888,3.60657572150843,342.612384411145
738335.43243510799948126078,-2.67108167770419,3.61888485366375,342.464674825282
738335.43243519845418632030,-2.67108167770419,3.61888485366375,342.563147882524
738335.43243528890889137983,-2.70800907417015,3.58195745719779,342.637002675456
738335.43243537936359643936,-2.65877254554888,3.63119398581907,342.649311807611
738335.43243546970188617706,-2.64646341339356,3.6558122501297,342.649311807611
738335.43243556015659123659,-2.64646341339356,3.6558122501297,342.649311807611
738335.43243565061129629612,-2.69569994201483,3.61888485366375,342.587766146835
738335.43243574106600135565,-2.67108167770419,3.63119398581907,342.476983957437
738335.43243583152070641518,-2.67108167770419,3.63119398581907,342.637002675456
738335.43243592197541147470,-2.68339080985951,3.63119398581907,342.575457014679
738335.43243601231370121241,-2.68339080985951,3.63119398581907,342.673930071922
738335.43243610276840627193,-2.69569994201483,3.61888485366375,342.637002675456
738335.43243619322311133146,-2.69569994201483,3.64350311797438,342.587766146835
738335.43243628367781639099,-2.70800907417015,3.63119398581907,342.60007527899
738335.43243637413252145052,-2.73262733848079,3.59426658935311,342.587766146835
738335.43243646458722651005,-2.67108167770419,3.6558122501297,342.624693543301
738335.43243655492551624775,-2.73262733848079,3.59426658935311,342.612384411145
738335.43243664538022130728,-2.74493647063611,3.59426658935311,342.649311807611
738335.43243673583492636681,-2.72031820632547,3.61888485366375,342.60007527899
738335.43243682628963142633,-2.68339080985951,3.6558122501297,342.637002675456
738335.43243691674433648586,-2.74493647063611,3.59426658935311,342.637002675456
738335.43243700719904154539,-2.84340952787866,3.50810266426588,342.637002675456
738335.43243709753733128309,-2.78186386710206,3.55733919288715,342.698548336233
738335.43243718799203634262,-2.53568122399569,3.80352183599353,342.673930071922
738335.43243727844674140215,-2.74493647063611,3.58195745719779,342.612384411145
738335.43243736890144646168,-2.76955473494675,3.59426658935311,342.710857468388
738335.43243745935615152121,-2.79417299925738,3.58195745719779,342.686239204077
738335.43243754969444125891,-2.74493647063611,3.63119398581907,342.723166600543
738335.43243764014914631844,-2.74493647063611,3.63119398581907,342.624693543301
738335.43243773060385137796,-2.8064821314127,3.55733919288715,342.686239204077
738335.43243782105855643749,-2.67108167770419,3.68043051444034,342.673930071922
738335.43243791151326149702,-2.74493647063611,3.63119398581907,342.661620939767
738335.43243800196796655655,-2.84340952787866,3.53272092857652,342.649311807611
738335.43243809230625629425,-2.64646341339356,3.7173579109063,342.686239204077
738335.43243818276096135378,-2.63415428123824,3.72966704306162,342.661620939767
738335.43243827321566641331,-2.74493647063611,3.60657572150843,342.612384411145
738335.43243836367037147284,-2.73262733848079,3.63119398581907,342.686239204077
738335.43243845412507653236,-2.72031820632547,3.6558122501297,342.710857468388
738335.43243854457978159189,-2.70800907417015,3.66812138228502,342.60007527899
738335.43243863491807132959,-2.70800907417015,3.66812138228502,342.686239204077
738335.43243872537277638912,-2.70800907417015,3.6558122501297,342.710857468388
738335.43243881582748144865,-2.74493647063611,3.61888485366375,342.686239204077
738335.43243890628218650818,-2.72031820632547,3.6558122501297,342.60007527899
738335.43243899673689156771,-2.70800907417015,3.6558122501297,342.661620939767
738335.43243908719159662724,-2.73262733848079,3.64350311797438,342.735475732699
738335.43243917752988636494,-2.65877254554888,3.7173579109063,342.403129164505
738335.43243926798459142447,-2.76955473494675,3.59426658935311,342.403129164505
738335.43243935843929648399,-2.75724560279143,3.60657572150843,342.698548336233
738335.43243944889400154352,-2.67108167770419,3.70504877875098,342.661620939767
738335.43243953934870660305,-2.75724560279143,3.61888485366375,342.575457014679
738335.43243962968699634075,-2.70800907417015,3.6558122501297,342.673930071922
738335.43243972014170140028,-2.70800907417015,3.66812138228502,342.673930071922
738335.43243981059640645981,-2.64646341339356,3.7173579109063,342.575457014679
738335.43243990105111151934,-2.64646341339356,3.72966704306162,342.587766146835
738335.43243999150581657887,-2.64646341339356,3.7173579109063,342.575457014679
738335.43244008196052163839,-2.70800907417015,3.6558122501297,342.538529618213
738335.43244017229881137609,-2.70800907417015,3.66812138228502,342.538529618213
738335.43244026275351643562,-2.67108167770419,3.7173579109063,342.550838750369
738335.43244035320822149515,-2.65877254554888,3.7173579109063,342.637002675456
738335.43244044366292655468,-2.72031820632547,3.64350311797438,342.637002675456
738335.43244053411763161421,-2.75724560279143,3.59426658935311,342.698548336233
738335.43244062457233667374,-2.72031820632547,3.63119398581907,342.698548336233
738335.43244071491062641144,-2.75724560279143,3.61888485366375,342.624693543301
738335.43244080536533147097,-2.76955473494675,3.58195745719779,342.563147882524
738335.43244089582003653049,-2.79417299925738,3.56964832504247,342.587766146835
738335.43244098627474159002,-2.63415428123824,3.7173579109063,342.587766146835
738335.43244107672944664955,-2.74493647063611,3.60657572150843,342.624693543301
738335.43244116718415170908,-2.67108167770419,3.6558122501297,342.587766146835
738335.43244125752244144678,-2.74493647063611,3.60657572150843,342.661620939767
738335.43244134797714650631,-2.75724560279143,3.56964832504247,342.612384411145
738335.43244143843185156584,-2.89264605649993,3.37270221055737,342.612384411145
738335.43244152888655662537,-2.84340952787866,3.4588661356446,342.686239204077
738335.43244161934126168489,-2.44951729890845,3.97584968616799,342.723166600543
738335.43244170967955142260,-1.67404197312337,4.77594327626372,342.464674825282
738335.43244180013425648212,-1.18167668691061,5.37909075187434,342.255419578641
738335.43244189058896154165,-1.63711457665741,5.18214463738924,342.280037842952
738335.43244198104366660118,-2.48644469537441,4.14817753634246,342.464674825282
738335.43244207149837166071,-2.84340952787866,3.37270221055737,342.501602221747
738335.43244216195307672024,-3.04035564236376,3.21268349253822,342.538529618213
738335.43244225229136645794,-2.88033692434461,3.40962960702333,342.661620939767
738335.43244234274607151747,-2.76955473494675,3.55733919288715,342.637002675456
738335.43244243320077657700,-2.70800907417015,3.61888485366375,342.673930071922
738335.43244252365548163652,-2.63415428123824,3.69273964659566,342.587766146835
738335.43244261411018669605,-2.63415428123824,3.66812138228502,342.624693543301
738335.43244270456489175558,-2.64646341339356,3.66812138228502,342.427747428816
738335.43244279490318149328,-2.62184514908292,3.7173579109063,342.476983957437
738335.43244288535788655281,-2.62184514908292,3.7173579109063,342.563147882524
738335.43244297581259161234,-2.63415428123824,3.68043051444034,342.550838750369
738335.43244306626729667187,-2.63415428123824,3.68043051444034,342.637002675456
738335.43244315672200173140,-2.58491775261696,3.74197617521694,342.563147882524
738335.43244324717670679092,-2.65877254554888,3.66812138228502,342.526220486058
738335.43244333751499652863,-2.69569994201483,3.63119398581907,342.587766146835
738335.43244342796970158815,-2.46182643106377,3.86506749677012,342.587766146835
738335.43244351842440664768,-2.43720816675314,3.90199489323608,342.563147882524
738335.43244360887911170721,-2.43720816675314,3.87737662892544,342.575457014679
738335.43244369933381676674,-2.44951729890845,3.86506749677012,342.563147882524
738335.43244378967210650444,-2.48644469537441,3.84044923245949,342.513911353903
738335.43244388012681156397,-2.42489903459782,3.90199489323608,342.550838750369
738335.43244397058151662350,-2.40028077028718,3.95123142185736,342.563147882524
738335.43244406103622168303,-2.3510442416659,4.00046795047863,342.624693543301
738335.43244415149092674255,-2.31411684519995,4.03739534694459,342.501602221747
738335.43244424194563180208,-2.26488031657867,4.09894100772118,342.452365693126
738335.43244433228392153978,-2.27718944873399,4.07432274341055,342.452365693126
738335.43244442273862659931,-2.10486159855953,4.27126885789565,342.440056560971
738335.43244451319333165884,-1.94484288054038,4.44359670807011,342.403129164505
738335.43244460364803671837,-1.99407940916166,4.40666931160415,342.427747428816
738335.43244469410274177790,-1.96946114485102,4.41897844375947,342.427747428816
738335.43244478455744683743,-1.93253374838506,4.44359670807011,342.41543829666
738335.43244487489573657513,-2.05562506993825,4.3081962543616,342.476983957437
738335.43244496535044163465,-2.08024333424889,4.25895972574033,342.464674825282
738335.43244505580514669418,-2.20333465580208,4.1112501398765,342.526220486058
738335.43244514625985175371,-2.30180771304463,3.98815881832331,342.575457014679
738335.43244523671455681324,-2.43720816675314,3.84044923245949,342.575457014679
738335.43244532716926187277,-2.46182643106377,3.82814010030417,342.538529618213
738335.43244541750755161047,-2.52337209184037,3.75428530737225,342.60007527899
738335.43244550796225667000,-2.57260862046164,3.70504877875098,342.60007527899
738335.43244559841696172953,-2.63415428123824,3.64350311797438,342.563147882524
738335.43244568887166678905,-2.59722688477228,3.68043051444034,342.538529618213
738335.43244577932637184858,-2.62184514908292,3.66812138228502,342.60007527899
738335.43244586966466158628,-2.6095360169276,3.68043051444034,342.649311807611
738335.43244596011936664581,-2.64646341339356,3.64350311797438,342.661620939767
738335.43244605057407170534,-2.64646341339356,3.6558122501297,342.649311807611
738335.43244614102877676487,-2.63415428123824,3.68043051444034,342.661620939767
738335.43244623148348182440,-2.64646341339356,3.64350311797438,342.476983957437
738335.43244632193818688393,-2.64646341339356,3.61888485366375,342.550838750369
738335.43244641227647662163,-2.64646341339356,3.61888485366375,342.575457014679
738335.43244650273118168116,-2.65877254554888,3.60657572150843,342.698548336233
738335.43244659318588674068,-2.67108167770419,3.61888485366375,342.661620939767
738335.43244668364059180021,-2.56029948830632,3.72966704306162,342.550838750369
738335.43244677409529685974,-2.6095360169276,3.68043051444034,342.649311807611
738335.43244686455000191927,-2.64646341339356,3.61888485366375,342.661620939767
738335.43244695488829165697,-2.59722688477228,3.68043051444034,342.612384411145
738335.43244704534299671650,-2.6095360169276,3.68043051444034,342.550838750369
738335.43244713579770177603,-2.63415428123824,3.66812138228502,342.686239204077
738335.43244722625240683556,-2.63415428123824,3.6558122501297,342.649311807611
738335.43244731670711189508,-2.64646341339356,3.63119398581907,342.563147882524
738335.43244740704540163279,-2.63415428123824,3.6558122501297,342.649311807611
738335.43244749750010669231,-2.63415428123824,3.6558122501297,342.649311807611
738335.43244758795481175184,-2.63415428123824,3.64350311797438,342.624693543301
738335.43244767840951681137,-2.64646341339356,3.63119398581907,342.550838750369
738335.43244776886422187090,-2.64646341339356,3.63119398581907,342.550838750369
738335.43244785931892693043,-2.72031820632547,3.56964832504247,342.538529618213
738335.43244794965721666813,-2.51106295968505,3.77890357168289,342.526220486058
738335.43244804011192172766,-2.65877254554888,3.64350311797438,342.550838750369
738335.43244813056662678719,-2.65877254554888,3.63119398581907,342.612384411145
738335.43244822102133184671,-2.65877254554888,3.63119398581907,342.563147882524
738335.43244831147603690624,-2.65877254554888,3.61888485366375,342.637002675456
738335.43244840193074196577,-2.64646341339356,3.63119398581907,342.661620939767
738335.43244849226903170347,-2.64646341339356,3.64350311797438,342.575457014679
738335.43244858272373676300,-2.64646341339356,3.63119398581907,342.587766146835
738335.43244867317844182253,-2.64646341339356,3.63119398581907,342.649311807611
738335.43244876363314688206,-2.65877254554888,3.60657572150843,342.637002675456
738335.43244885408785194159,-2.65877254554888,3.63119398581907,342.587766146835
738335.43244894454255700111,-2.67108167770419,3.59426658935311,342.60007527899
738335.43244903488084673882,-2.70800907417015,3.56964832504247,342.649311807611
738335.43244912533555179834,-2.64646341339356,3.61888485366375,342.673930071922
738335.43244921579025685787,-2.64646341339356,3.64350311797438,342.563147882524
738335.43244930624496191740,-2.63415428123824,3.64350311797438,342.624693543301
738335.43244939669966697693,-2.68339080985951,3.60657572150843,342.686239204077
738335.43244948703795671463,-2.68339080985951,3.59426658935311,342.575457014679
738335.43244957749266177416,-2.67108167770419,3.61888485366375,342.612384411145
738335.43244966794736683369,-2.65877254554888,3.61888485366375,342.661620939767
738335.43244975840207189322,-2.67108167770419,3.60657572150843,342.501602221747
738335.43244984885677695274,-2.67108167770419,3.60657572150843,342.501602221747
738335.43244993931148201227,-2.68339080985951,3.59426658935311,342.649311807611
738335.43245002964977174997,-2.70800907417015,3.55733919288715,342.661620939767
738335.43245012010447680950,-2.59722688477228,3.66812138228502,342.673930071922
738335.43245021055918186903,-2.75724560279143,3.5204117964212,342.698548336233
738335.43245030101388692856,-2.65877254554888,3.63119398581907,342.612384411145
738335.43245039146859198809,-2.6095360169276,3.66812138228502,342.686239204077
738335.43245048192329704762,-2.69569994201483,3.58195745719779,342.698548336233
738335.43245057226158678532,-2.68339080985951,3.58195745719779,342.587766146835
738335.43245066271629184484,-2.67108167770419,3.60657572150843,342.612384411145
738335.43245075317099690437,-2.67108167770419,3.59426658935311,342.637002675456
738335.43245084362570196390,-2.67108167770419,3.59426658935311,342.612384411145
738335.43245093408040702343,-2.67108167770419,3.59426658935311,342.587766146835
738335.43245102453511208296,-2.64646341339356,3.61888485366375,342.612384411145
738335.43245111487340182066,-2.63415428123824,3.63119398581907,342.637002675456
738335.43245120532810688019,-2.69569994201483,3.55733919288715,342.587766146835
738335.43245129578281193972,-2.64646341339356,3.61888485366375,342.575457014679
738335.43245138623751699924,-2.63415428123824,3.63119398581907,342.563147882524
738335.43245147669222205877,-2.67108167770419,3.59426658935311,342.563147882524
738335.43245156703051179647,-2.65877254554888,3.60657572150843,342.563147882524
738335.43245165748521685600,-2.65877254554888,3.59426658935311,342.550838750369
738335.43245174793992191553,-2.67108167770419,3.58195745719779,342.563147882524
738335.43245183839462697506,-2.67108167770419,3.59426658935311,342.575457014679
738335.43245192884933203459,-2.68339080985951,3.56964832504247,342.673930071922
738335.43245201930403709412,-2.70800907417015,3.55733919288715,342.612384411145
738335.43245210964232683182,-2.58491775261696,3.66812138228502,342.513911353903
738335.43245220009703189135,-2.58491775261696,3.66812138228502,342.538529618213
738335.43245229055173695087,-2.54799035615101,3.68043051444034,342.550838750369
738335.43245238100644201040,-2.58491775261696,3.64350311797438,342.526220486058
738335.43245247146114706993,-2.63415428123824,3.58195745719779,342.464674825282
738335.43245256191585212946,-2.6095360169276,3.63119398581907,342.476983957437
738335.43245265225414186716,-2.62184514908292,3.64350311797438,342.550838750369
738335.43245274270884692669,-2.63415428123824,3.61888485366375,342.538529618213
738335.43245283316355198622,-2.65877254554888,3.58195745719779,342.550838750369
738335.43245292361825704575,-2.65877254554888,3.58195745719779,342.563147882524
738335.43245301407296210527,-2.62184514908292,3.61888485366375,342.612384411145
738335.43245310452766716480,-2.65877254554888,3.56964832504247,342.563147882524
738335.43245319486595690250,-2.65877254554888,3.55733919288715,342.526220486058
738335.43245328532066196203,-2.65877254554888,3.56964832504247,342.489293089592
738335.43245337577536702156,-2.64646341339356,3.56964832504247,342.39082003235
738335.43245346623007208109,-2.65877254554888,3.55733919288715,342.575457014679
738335.43245355668477714062,-2.68339080985951,3.53272092857652,342.587766146835
738335.43245364702306687832,-2.74493647063611,3.44655700348928,342.563147882524
738335.43245373747777193785,-2.72031820632547,3.38501134271269,342.575457014679
738335.43245382793247699738,-2.73262733848079,3.36039307840205,342.649311807611
738335.43245391838718205690,-2.57260862046164,3.68043051444034,342.772403129165
738335.43245400884188711643,-1.87098808760847,4.44359670807011,342.575457014679
738335.43245409929659217596,-1.16936755475529,5.2190720338552,342.132328257088
738335.43245418963488191366,-1.18167668691061,5.50218207342753,342.169255653554
738335.43245428008958697319,-1.58787804803613,5.18214463738924,342.280037842952
738335.43245437054429203272,-2.46182643106377,4.04970447909991,342.501602221747
738335.43245446099899709225,-3.02804651020844,3.11421043529567,342.526220486058
738335.43245455145370215178,-2.73262733848079,3.43424787133396,342.624693543301
738335.43245464190840721130,-2.75724560279143,3.40962960702333,342.673930071922
738335.43245473224669694901,-2.67108167770419,3.49579353211056,342.637002675456
738335.43245482270140200853,-2.58491775261696,3.58195745719779,342.550838750369
738335.43245491315610706806,-2.57260862046164,3.59426658935311,342.624693543301
738335.43245500361081212759,-2.56029948830632,3.59426658935311,342.637002675456
738335.43245509406551718712,-2.56029948830632,3.61888485366375,342.563147882524
738335.43245518452022224665,-2.52337209184037,3.64350311797438,342.60007527899
738335.43245527485851198435,-2.51106295968505,3.66812138228502,342.612384411145
738335.43245536531321704388,-2.53568122399569,3.64350311797438,342.60007527899
738335.43245545576792210340,-2.57260862046164,3.59426658935311,342.637002675456
738335.43245554622262716293,-2.44951729890845,3.7173579109063,342.575457014679
738335.43245563667733222246,-2.47413556321909,3.70504877875098,342.612384411145
738335.43245572701562196016,-2.42489903459782,3.74197617521694,342.60007527899
738335.43245581747032701969,-2.47413556321909,3.7173579109063,342.526220486058
738335.43245590792503207922,-2.44951729890845,3.7173579109063,342.563147882524
738335.43245599837973713875,-2.44951729890845,3.74197617521694,342.624693543301
738335.43245608883444219828,-2.43720816675314,3.76659443952757,342.575457014679
738335.43245617928914725780,-2.3510442416659,3.84044923245949,342.489293089592
738335.43245626962743699551,-2.3510442416659,3.84044923245949,342.501602221747
738335.43245636008214205503,-2.33873510951058,3.86506749677012,342.538529618213
738335.43245645053684711456,-2.31411684519995,3.88968576108076,342.41543829666
738335.43245654099155217409,-2.1540981271808,4.06201361125523,342.489293089592
738335.43245663144625723362,-2.20333465580208,3.96354055401268,342.489293089592
738335.43245672190096229315,-2.16640725933612,4.02508621478927,342.39082003235
738335.43245681223925203085,-2.08024333424889,4.14817753634246,342.341583503728
738335.43245690269395709038,-1.98177027700634,4.25895972574033,342.255419578641
738335.43245699314866214991,-1.94484288054038,4.29588712220628,342.403129164505
738335.43245708360336720943,-1.85867895545315,4.39436017944884,342.341583503728
738335.43245717405807226896,-1.94484288054038,4.28357799005097,342.41543829666
738335.43245726451277732849,-2.10486159855953,4.12355927203182,342.403129164505
738335.43245735485106706619,-2.10486159855953,4.07432274341055,342.366201768039
738335.43245744530577212572,-2.01869767347229,4.16048666849778,342.427747428816
738335.43245753576047718525,-2.28949858088931,3.87737662892544,342.464674825282
738335.43245762621518224478,-2.47413556321909,3.66812138228502,342.501602221747
738335.43245771666988730431,-2.56029948830632,3.58195745719779,342.513911353903
738335.43245780700817704201,-2.42489903459782,3.72966704306162,342.476983957437
738335.43245789746288210154,-2.46182643106377,3.6558122501297,342.501602221747
738335.43245798791758716106,-2.52337209184037,3.58195745719779,342.575457014679
738335.43245807837229222059,-2.56029948830632,3.56964832504247,342.550838750369
738335.43245816882699728012,-2.49875382752973,3.60657572150843,342.538529618213
738335.43245825928170233965,-2.52337209184037,3.59426658935311,342.587766146835
738335.43245834961999207735,-2.51106295968505,3.60657572150843,342.60007527899
738335.43245844007469713688,-2.58491775261696,3.53272092857652,342.612384411145
738335.43245853052940219641,-2.48644469537441,3.63119398581907,342.575457014679
738335.43245862098410725594,-2.56029948830632,3.58195745719779,342.624693543301
738335.43245871143881231546,-2.56029948830632,3.55733919288715,342.649311807611
738335.43245880189351737499,-2.47413556321909,3.64350311797438,342.575457014679
738335.43245889223180711269,-2.51106295968505,3.58195745719779,342.661620939767
738335.43245898268651217222,-2.53568122399569,3.56964832504247,342.624693543301
738335.43245907314121723175,-2.56029948830632,3.55733919288715,342.563147882524
738335.43245916359592229128,-2.58491775261696,3.53272092857652,342.587766146835
738335.43245925405062735081,-2.43720816675314,3.70504877875098,342.612384411145
738335.43245934450533241034,-2.52337209184037,3.59426658935311,342.637002675456
738335.43245943484362214804,-2.52337209184037,3.58195745719779,342.649311807611
738335.43245952529832720757,-2.53568122399569,3.58195745719779,342.612384411145
738335.43245961575303226709,-2.6095360169276,3.49579353211056,342.624693543301
738335.43245970620773732662,-2.42489903459782,3.69273964659566,342.550838750369
738335.43245979666244238615,-2.53568122399569,3.59426658935311,342.550838750369
738335.43245988700073212385,-2.56029948830632,3.56964832504247,342.649311807611
738335.43245997745543718338,-2.53568122399569,3.58195745719779,342.649311807611
738335.43246006791014224291,-2.53568122399569,3.58195745719779,342.550838750369
738335.43246015836484730244,-2.53568122399569,3.59426658935311,342.637002675456
738335.43246024881955236197,-2.52337209184037,3.59426658935311,342.624693543301
738335.43246033927425742149,-2.53568122399569,3.58195745719779,342.513911353903
738335.43246042961254715919,-2.53568122399569,3.56964832504247,342.440056560971
738335.43246052006725221872,-2.53568122399569,3.58195745719779,342.563147882524
738335.43246061052195727825,-2.53568122399569,3.58195745719779,342.550838750369
738335.43246070097666233778,-2.53568122399569,3.58195745719779,342.550838750369
738335.43246079143136739731,-2.53568122399569,3.58195745719779,342.563147882524
738335.43246088188607245684,-2.58491775261696,3.54503006073183,342.526220486058
738335.43246097222436219454,-2.6095360169276,3.50810266426588,342.563147882524
738335.43246106267906725407,-2.37566250597654,3.72966704306162,342.624693543301
738335.43246115313377231359,-2.58491775261696,3.53272092857652,342.526220486058
738335.43246124358847737312,-2.56029948830632,3.55733919288715,342.575457014679
738335.43246133404318243265,-2.54799035615101,3.55733919288715,342.575457014679
738335.43246142449788749218,-2.54799035615101,3.55733919288715,342.575457014679
738335.43246151483617722988,-2.56029948830632,3.55733919288715,342.563147882524
738335.43246160529088228941,-2.53568122399569,3.58195745719779,342.563147882524
738335.43246169574558734894,-2.53568122399569,3.58195745719779,342.60007527899
738335.43246178620029240847,-2.54799035615101,3.55733919288715,342.575457014679
738335.43246187665499746799,-2.52337209184037,3.56964832504247,342.563147882524
738335.43246196699328720570,-2.47413556321909,3.63119398581907,342.575457014679
738335.43246205744799226522,-2.56029948830632,3.53272092857652,342.612384411145
738335.43246214790269732475,-2.54799035615101,3.55733919288715,342.575457014679
738335.43246223835740238428,-2.54799035615101,3.55733919288715,342.513911353903
738335.43246232881210744381,-2.52337209184037,3.58195745719779,342.526220486058
738335.43246241926681250334,-2.53568122399569,3.55733919288715,342.526220486058
738335.43246250960510224104,-2.54799035615101,3.56964832504247,342.513911353903
738335.43246260005980730057,-2.53568122399569,3.55733919288715,342.550838750369
738335.43246269051451236010,-2.53568122399569,3.56964832504247,342.587766146835
738335.43246278096921741962,-2.53568122399569,3.56964832504247,342.624693543301
738335.43246287142392247915,-2.54799035615101,3.55733919288715,342.587766146835
738335.43246296187862753868,-2.59722688477228,3.49579353211056,342.624693543301
738335.43246305221691727638,-2.56029948830632,3.53272092857652,342.661620939767
738335.43246314267162233591,-2.47413556321909,3.61888485366375,342.563147882524
738335.43246323312632739544,-2.54799035615101,3.54503006073183,342.612384411145
738335.43246332358103245497,-2.59722688477228,3.5204117964212,342.612384411145
738335.43246341403573751450,-2.53568122399569,3.56964832504247,342.624693543301
738335.43246350437402725220,-2.53568122399569,3.55733919288715,342.587766146835
738335.43246359482873231173,-2.56029948830632,3.53272092857652,342.661620939767
738335.43246368528343737125,-2.57260862046164,3.54503006073183,342.661620939767
738335.43246377573814243078,-2.56029948830632,3.53272092857652,342.661620939767
738335.43246386619284749031,-2.54799035615101,3.54503006073183,342.538529618213
738335.43246395664755254984,-2.54799035615101,3.55733919288715,342.489293089592
738335.43246404698584228754,-2.56029948830632,3.54503006073183,342.649311807611
738335.43246413744054734707,-2.54799035615101,3.55733919288715,342.587766146835
738335.43246422789525240660,-2.56029948830632,3.53272092857652,342.686239204077
738335.43246431834995746613,-2.54799035615101,3.55733919288715,342.661620939767
738335.43246440880466252565,-2.54799035615101,3.56964832504247,342.587766146835
738335.43246449925936758518,-2.58491775261696,3.50810266426588,342.501602221747
738335.43246458959765732288,-2.52337209184037,3.58195745719779,342.501602221747
738335.43246468005236238241,-2.52337209184037,3.58195745719779,342.538529618213
738335.43246477050706744194,-2.48644469537441,3.61888485366375,342.501602221747
738335.43246486096177250147,-2.49875382752973,3.60657572150843,342.513911353903
738335.43246495141647756100,-2.48644469537441,3.60657572150843,342.575457014679
738335.43246504187118262053,-2.49875382752973,3.58195745719779,342.575457014679
738335.43246513220947235823,-2.49875382752973,3.61888485366375,342.550838750369
738335.43246522266417741776,-2.49875382752973,3.63119398581907,342.60007527899
738335.43246531311888247728,-2.52337209184037,3.58195745719779,342.612384411145
738335.43246540357358753681,-2.52337209184037,3.56964832504247,342.649311807611
738335.43246549402829259634,-2.54799035615101,3.56964832504247,342.513911353903
738335.43246558436658233404,-2.56029948830632,3.53272092857652,342.612384411145
738335.43246567482128739357,-2.56029948830632,3.53272092857652,342.612384411145
738335.43246576527599245310,-2.56029948830632,3.5204117964212,342.587766146835
738335.43246585573069751263,-2.56029948830632,3.53272092857652,342.550838750369
738335.43246594618540257215,-2.56029948830632,3.5204117964212,342.624693543301
738335.43246603664010763168,-2.56029948830632,3.53272092857652,342.575457014679
738335.43246612697839736938,-2.56029948830632,3.53272092857652,342.538529618213
738335.43246621743310242891,-2.56029948830632,3.53272092857652,342.501602221747
738335.43246630788780748844,-2.6095360169276,3.43424787133396,342.526220486058
738335.43246639834251254797,-2.73262733848079,3.24961088900418,342.526220486058
738335.43246648879721760750,-2.62184514908292,3.42193873917865,342.637002675456
738335.43246657925192266703,-2.2156437879574,3.98815881832331,342.661620939767
738335.43246666959021240473,-1.47709585863826,4.825179804885,342.353892635884
738335.43246676004491746426,-1.02165796889147,5.55141860204881,342.20618305002
738335.43246685049962252378,-1.57556891588082,5.20676290169988,342.243110446486
738335.43246694095432758331,-2.3510442416659,4.1112501398765,342.341583503728
738335.43246703140903264284,-2.8680277921893,3.20037436038291,342.501602221747
738335.43246712186373770237,-2.83110039572334,3.23730175684886,342.60007527899
738335.43246721220202744007,-2.72031820632547,3.37270221055737,342.587766146835
738335.43246730265673249960,-2.65877254554888,3.43424787133396,342.563147882524
738335.43246739311143755913,-2.58491775261696,3.53272092857652,342.60007527899
738335.43246748356614261866,-2.62184514908292,3.48348439995524,342.427747428816
738335.43246757402084767818,-2.49875382752973,3.60657572150843,342.563147882524
738335.43246766435913741589,-2.42489903459782,3.69273964659566,342.563147882524
738335.43246775481384247541,-2.54799035615101,3.55733919288715,342.587766146835
738335.43246784526854753494,-2.52337209184037,3.59426658935311,342.60007527899
738335.43246793572325259447,-2.49875382752973,3.61888485366375,342.538529618213
738335.43246802617795765400,-2.47413556321909,3.63119398581907,342.612384411145
738335.43246811663266271353,-2.47413556321909,3.6558122501297,342.60007527899
738335.43246820697095245123,-2.47413556321909,3.66812138228502,342.60007527899
738335.43246829742565751076,-2.46182643106377,3.66812138228502,342.513911353903
738335.43246838788036257029,-2.43720816675314,3.68043051444034,342.427747428816
738335.43246847833506762981,-2.43720816675314,3.70504877875098,342.452365693126
738335.43246856878977268934,-2.4125899024425,3.74197617521694,342.550838750369
738335.43246865924447774887,-2.40028077028718,3.75428530737225,342.489293089592
738335.43246874958276748657,-2.38797163813186,3.76659443952757,342.464674825282
738335.43246884003747254610,-2.31411684519995,3.85275836461481,342.476983957437
738335.43246893049217760563,-2.27718944873399,3.88968576108076,342.452365693126
738335.43246902094688266516,-2.28949858088931,3.90199489323608,342.501602221747
738335.43246911140158772469,-2.25257118442335,3.93892228970204,342.464674825282
738335.43246920185629278421,-2.22795292011272,3.97584968616799,342.513911353903
738335.43246929219458252192,-2.16640725933612,4.03739534694459,342.427747428816
738335.43246938264928758144,-2.10486159855953,4.1112501398765,342.378510900194
738335.43246947310399264097,-2.04331593778293,4.18510493280842,342.427747428816
738335.43246956355869770050,-1.98177027700634,4.23434146142969,342.427747428816
738335.43246965401340276003,-1.94484288054038,4.29588712220628,342.378510900194
738335.43246974435169249773,-1.92022461622974,4.33281451867224,342.366201768039
738335.43246983480639755726,-1.9571520126957,4.28357799005097,342.292346975107
738335.43246992526110261679,-2.04331593778293,4.1727958006531,342.427747428816
738335.43247001571580767632,-2.20333465580208,3.98815881832331,342.489293089592
738335.43247010617051273584,-2.32642597735527,3.84044923245949,342.501602221747
738335.43247019662521779537,-2.31411684519995,3.84044923245949,342.513911353903
738335.43247028696350753307,-2.47413556321909,3.68043051444034,342.587766146835
738335.43247037741821259260,-2.52337209184037,3.64350311797438,342.563147882524
738335.43247046787291765213,-2.6095360169276,3.54503006073183,342.563147882524
738335.43247055832762271166,-2.58491775261696,3.55733919288715,342.526220486058
738335.43247064878232777119,-2.52337209184037,3.64350311797438,342.526220486058
738335.43247073923703283072,-2.62184514908292,3.54503006073183,342.550838750369
738335.43247082957532256842,-2.62184514908292,3.55733919288715,342.550838750369
738335.43247092003002762794,-2.63415428123824,3.54503006073183,342.403129164505
738335.43247101048473268747,-2.63415428123824,3.53272092857652,342.41543829666
738335.43247110093943774700,-2.62184514908292,3.55733919288715,342.60007527899
738335.43247119139414280653,-2.6095360169276,3.56964832504247,342.60007527899
738335.43247128184884786606,-2.63415428123824,3.55733919288715,342.575457014679
738335.43247137218713760376,-2.62184514908292,3.55733919288715,342.563147882524
738335.43247146264184266329,-2.62184514908292,3.56964832504247,342.624693543301
738335.43247155309654772282,-2.63415428123824,3.56964832504247,342.649311807611
738335.43247164355125278234,-2.63415428123824,3.55733919288715,342.513911353903
738335.43247173400595784187,-2.63415428123824,3.55733919288715,342.649311807611
738335.43247182434424757957,-2.64646341339356,3.55733919288715,342.624693543301
738335.43247191479895263910,-2.65877254554888,3.54503006073183,342.526220486058
738335.43247200525365769863,-2.68339080985951,3.5204117964212,342.587766146835
738335.43247209570836275816,-2.6095360169276,3.59426658935311,342.624693543301
738335.43247218616306781769,-2.64646341339356,3.55733919288715,342.624693543301
738335.43247227661777287722,-2.67108167770419,3.53272092857652,342.563147882524
738335.43247236695606261492,-2.65877254554888,3.55733919288715,342.526220486058
738335.43247245741076767445,-2.65877254554888,3.55733919288715,342.526220486058
738335.43247254786547273397,-2.67108167770419,3.54503006073183,342.501602221747
738335.43247263832017779350,-2.69569994201483,3.53272092857652,342.526220486058
738335.43247272877488285303,-2.64646341339356,3.59426658935311,342.60007527899
738335.43247281922958791256,-2.70800907417015,3.5204117964212,342.60007527899
738335.43247290956787765026,-2.68339080985951,3.54503006073183,342.612384411145
738335.43247300002258270979,-2.68339080985951,3.55733919288715,342.649311807611
738335.43247309047728776932,-2.68339080985951,3.53272092857652,342.649311807611
738335.43247318093199282885,-2.70800907417015,3.5204117964212,342.587766146835
738335.43247327138669788837,-2.65877254554888,3.58195745719779,342.661620939767
738335.43247336184140294790,-2.65877254554888,3.56964832504247,342.637002675456
738335.43247345217969268560,-2.70800907417015,3.53272092857652,342.612384411145
738335.43247354263439774513,-2.70800907417015,3.54503006073183,342.526220486058
738335.43247363308910280466,-2.69569994201483,3.55733919288715,342.501602221747
738335.43247372354380786419,-2.69569994201483,3.55733919288715,342.526220486058
738335.43247381399851292372,-2.72031820632547,3.53272092857652,342.563147882524
738335.43247390433680266142,-2.72031820632547,3.53272092857652,342.538529618213
738335.43247399479150772095,-2.73262733848079,3.5204117964212,342.563147882524
738335.43247408524621278048,-2.72031820632547,3.53272092857652,342.587766146835
738335.43247417570091784000,-2.72031820632547,3.55733919288715,342.575457014679
738335.43247426615562289953,-2.70800907417015,3.55733919288715,342.587766146835
