time_dn,ecg_projection_ll_ra_mV,ecg_projection_la_ra_mV,ecg_projection_vx_rl_mV
738335.44444180687423795462,-1.82175155898719,4.52976063315734,343.375550604775
738335.44444189721252769232,-1.83406069114251,4.50514236884671,343.412478001241
738335.44444198766723275185,-1.90791548407442,4.39436017944884,343.38785973693
738335.44444207812193781137,-1.9571520126957,4.32050538651692,343.400168869086
738335.44444216857664287090,-2.11717073071485,4.13586840418714,343.412478001241
738335.44444225903134793043,-2.22795292011272,4.00046795047863,343.510951058484
738335.44444234948605298996,-2.31411684519995,3.9143040253914,343.449405397707
738335.44444243994075804949,-2.37566250597654,3.84044923245949,343.449405397707
738335.44444253027904778719,-2.40028077028718,3.82814010030417,343.486332794173
738335.44444262073375284672,-2.43720816675314,3.79121270383821,343.510951058484
738335.44444271118845790625,-2.46182643106377,3.76659443952757,343.523260190639
738335.44444280164316296577,-2.47413556321909,3.76659443952757,343.535569322794
738335.44444289209786802530,-2.48644469537441,3.74197617521694,343.54787845495
738335.44444298255257308483,-2.48644469537441,3.75428530737225,343.510951058484
738335.44444307289086282253,-2.48644469537441,3.74197617521694,343.560187587105
738335.44444316334556788206,-2.51106295968505,3.72966704306162,343.535569322794
738335.44444325380027294159,-2.51106295968505,3.72966704306162,343.54787845495
738335.44444334425497800112,-2.48644469537441,3.75428530737225,343.560187587105
738335.44444343470968306065,-2.51106295968505,3.72966704306162,343.57249671926
738335.44444352516438812017,-2.51106295968505,3.74197617521694,343.523260190639
738335.44444361550267785788,-2.51106295968505,3.72966704306162,343.57249671926
738335.44444370595738291740,-2.49875382752973,3.74197617521694,343.560187587105
738335.44444379641208797693,-2.51106295968505,3.74197617521694,343.584805851416
738335.44444388686679303646,-2.51106295968505,3.72966704306162,343.597114983571
738335.44444397732149809599,-2.52337209184037,3.72966704306162,343.57249671926
738335.44444406777620315552,-2.51106295968505,3.72966704306162,343.634042380037
738335.44444415811449289322,-2.51106295968505,3.72966704306162,343.609424115726
738335.44444424856919795275,-2.52337209184037,3.72966704306162,343.597114983571
738335.44444433902390301228,-2.51106295968505,3.74197617521694,343.498641926328
738335.44444442947860807180,-2.52337209184037,3.72966704306162,343.498641926328
738335.44444451993331313133,-2.52337209184037,3.72966704306162,343.510951058484
738335.44444461038801819086,-2.52337209184037,3.74197617521694,343.498641926328
738335.44444470072630792856,-2.54799035615101,3.72966704306162,343.424787133396
738335.44444479118101298809,-2.53568122399569,3.72966704306162,343.412478001241
738335.44444488163571804762,-2.51106295968505,3.74197617521694,343.584805851416
738335.44444497209042310715,-2.54799035615101,3.7173579109063,343.57249671926
738335.44444506254512816668,-2.56029948830632,3.70504877875098,343.621733247881
738335.44444515299983322620,-2.56029948830632,3.7173579109063,343.424787133396
738335.44444524333812296391,-2.56029948830632,3.70504877875098,343.498641926328
738335.44444533379282802343,-2.56029948830632,3.70504877875098,343.510951058484
738335.44444542424753308296,-2.57260862046164,3.69273964659566,343.498641926328
738335.44444551470223814249,-2.57260862046164,3.69273964659566,343.535569322794
738335.44444560515694320202,-2.57260862046164,3.69273964659566,343.54787845495
738335.44444569561164826155,-2.58491775261696,3.69273964659566,343.597114983571
738335.44444578594993799925,-2.59722688477228,3.68043051444034,343.584805851416
738335.44444587640464305878,-2.58491775261696,3.70504877875098,343.523260190639
738335.44444596685934811831,-2.58491775261696,3.69273964659566,343.535569322794
738335.44444605731405317783,-2.59722688477228,3.69273964659566,343.510951058484
738335.44444614776875823736,-2.6095360169276,3.68043051444034,343.498641926328
738335.44444623822346329689,-2.6095360169276,3.68043051444034,343.535569322794
738335.44444632856175303459,-2.58491775261696,3.70504877875098,343.510951058484
738335.44444641901645809412,-2.59722688477228,3.70504877875098,343.560187587105
738335.44444650947116315365,-2.59722688477228,3.69273964659566,343.57249671926
738335.44444659992586821318,-2.6095360169276,3.68043051444034,343.486332794173
738335.44444669038057327271,-2.62184514908292,3.68043051444034,343.510951058484
738335.44444678083527833223,-2.6095360169276,3.69273964659566,343.510951058484
738335.44444687117356806993,-2.6095360169276,3.68043051444034,343.535569322794
738335.44444696162827312946,-2.59722688477228,3.69273964659566,343.560187587105
738335.44444705208297818899,-2.59722688477228,3.69273964659566,343.584805851416
738335.44444714253768324852,-2.59722688477228,3.69273964659566,343.535569322794
738335.44444723299238830805,-2.59722688477228,3.68043051444034,343.498641926328
738335.44444732344709336758,-2.59722688477228,3.70504877875098,343.523260190639
738335.44444741378538310528,-2.58491775261696,3.69273964659566,343.54787845495
738335.44444750424008816481,-2.58491775261696,3.68043051444034,343.560187587105
738335.44444759469479322433,-2.58491775261696,3.70504877875098,343.57249671926
738335.44444768514949828386,-2.58491775261696,3.7173579109063,343.597114983571
738335.44444777560420334339,-2.58491775261696,3.70504877875098,343.57249671926
738335.44444786605890840292,-2.57260862046164,3.70504877875098,343.54787845495
738335.44444795639719814062,-2.58491775261696,3.69273964659566,343.57249671926
738335.44444804685190320015,-2.59722688477228,3.69273964659566,343.560187587105
738335.44444813730660825968,-2.58491775261696,3.68043051444034,343.449405397707
738335.44444822776131331921,-2.57260862046164,3.69273964659566,343.535569322794
738335.44444831821601837873,-2.56029948830632,3.70504877875098,343.400168869086
738335.44444840867072343826,-2.58491775261696,3.69273964659566,343.535569322794
738335.44444849900901317596,-2.58491775261696,3.69273964659566,343.560187587105
738335.44444858946371823549,-2.57260862046164,3.69273964659566,343.597114983571
738335.44444867991842329502,-2.58491775261696,3.68043051444034,343.523260190639
738335.44444877037312835455,-2.58491775261696,3.68043051444034,343.449405397707
738335.44444886082783341408,-2.59722688477228,3.66812138228502,343.474023662018
738335.44444895128253847361,-2.56029948830632,3.70504877875098,343.474023662018
738335.44444904162082821131,-2.56029948830632,3.72966704306162,343.437096265552
738335.44444913207553327084,-2.53568122399569,3.74197617521694,343.461714529862
738335.44444922253023833036,-2.53568122399569,3.72966704306162,343.523260190639
738335.44444931298494338989,-2.56029948830632,3.7173579109063,343.54787845495
738335.44444940343964844942,-2.58491775261696,3.7173579109063,343.57249671926
738335.44444949389435350895,-2.59722688477228,3.7173579109063,343.449405397707
738335.44444958423264324665,-2.6095360169276,3.69273964659566,343.57249671926
738335.44444967468734830618,-2.6095360169276,3.63119398581907,343.597114983571
738335.44444976514205336571,-2.6095360169276,3.61888485366375,343.560187587105
738335.44444985559675842524,-2.65877254554888,3.63119398581907,343.498641926328
738335.44444994605146348476,-2.65877254554888,3.64350311797438,343.57249671926
738335.44445003650616854429,-2.65877254554888,3.61888485366375,343.609424115726
738335.44445012684445828199,-2.65877254554888,3.61888485366375,343.523260190639
738335.44445021729916334152,-2.65877254554888,3.60657572150843,343.57249671926
738335.44445030775386840105,-2.63415428123824,3.60657572150843,343.609424115726
738335.44445039820857346058,-2.63415428123824,3.60657572150843,343.535569322794
738335.44445048866327852011,-2.63415428123824,3.59426658935311,343.486332794173
738335.44445057911798357964,-2.76955473494675,3.42193873917865,343.474023662018
738335.44445066945627331734,-2.79417299925738,3.39732047486801,343.486332794173
738335.44445075991097837687,-2.65877254554888,3.68043051444034,343.584805851416
738335.44445085036568343639,-2.03100680562761,4.39436017944884,343.412478001241
738335.44445094082038849592,-1.23091321553189,5.18214463738924,343.117058829513
738335.44445103127509355545,-1.18167668691061,5.4775638091169,343.141677093824
738335.44445112172979861498,-1.98177027700634,4.78825240841904,343.17860449029
738335.44445121206808835268,-2.64646341339356,3.59426658935311,343.277077547533
738335.44445130252279341221,-2.94188258512121,3.22499262469354,343.424787133396
738335.44445139297749847174,-2.84340952787866,3.36039307840205,343.461714529862
738335.44445148343220353127,-2.74493647063611,3.49579353211056,343.510951058484
738335.44445157388690859079,-2.64646341339356,3.60657572150843,343.523260190639
738335.44445166434161365032,-2.62184514908292,3.64350311797438,343.54787845495
738335.44445175479631870985,-2.63415428123824,3.6558122501297,343.510951058484
738335.44445184513460844755,-2.54799035615101,3.72966704306162,343.338623208309
738335.44445193558931350708,-2.58491775261696,3.69273964659566,343.54787845495
738335.44445202604401856661,-2.52337209184037,3.74197617521694,343.560187587105
738335.44445211649872362614,-2.51106295968505,3.72966704306162,343.54787845495
738335.44445220695342868567,-2.52337209184037,3.74197617521694,343.57249671926
738335.44445229740813374519,-2.53568122399569,3.75428530737225,343.609424115726
738335.44445238774642348289,-2.52337209184037,3.77890357168289,343.560187587105
738335.44445247820112854242,-2.51106295968505,3.77890357168289,343.54787845495
738335.44445256865583360195,-2.44951729890845,3.80352183599353,343.597114983571
738335.44445265911053866148,-2.43720816675314,3.82814010030417,343.584805851416
738335.44445274956524372101,-2.49875382752973,3.82814010030417,343.523260190639
738335.44445284001994878054,-2.48644469537441,3.82814010030417,343.535569322794
738335.44445293035823851824,-2.43720816675314,3.87737662892544,343.584805851416
738335.44445302081294357777,-2.37566250597654,3.95123142185736,343.535569322794
738335.44445311126764863729,-2.38797163813186,3.93892228970204,343.560187587105
738335.44445320172235369682,-2.33873510951058,3.98815881832331,343.535569322794
738335.44445329217705875635,-2.30180771304463,4.02508621478927,343.535569322794
738335.44445338263176381588,-2.24026205226803,4.09894100772118,343.523260190639
738335.44445347297005355358,-2.17871639149144,4.16048666849778,343.498641926328
738335.44445356342475861311,-2.17871639149144,4.23434146142969,343.510951058484
738335.44445365387946367264,-2.1540981271808,4.27126885789565,343.54787845495
738335.44445374433416873217,-2.09255246640421,4.33281451867224,343.412478001241
738335.44445383478887379169,-2.04331593778293,4.39436017944884,343.474023662018
738335.44445392524357885122,-1.99407940916166,4.44359670807011,343.510951058484
738335.44445401558186858892,-1.99407940916166,4.44359670807011,343.38785973693
738335.44445410603657364845,-2.05562506993825,4.35743278298288,343.36324147262
738335.44445419649127870798,-2.14178899502548,4.23434146142969,343.375550604775
738335.44445428694598376751,-2.25257118442335,4.09894100772118,343.474023662018
738335.44445437740068882704,-2.3510442416659,3.97584968616799,343.474023662018
738335.44445446785539388657,-2.47413556321909,3.84044923245949,343.424787133396
738335.44445455819368362427,-2.53568122399569,3.77890357168289,343.523260190639
738335.44445464864838868380,-2.59722688477228,3.70504877875098,343.510951058484
738335.44445473910309374332,-2.62184514908292,3.70504877875098,343.474023662018
738335.44445482955779880285,-2.64646341339356,3.69273964659566,343.510951058484
738335.44445492001250386238,-2.65877254554888,3.68043051444034,343.498641926328
738335.44445501046720892191,-2.67108167770419,3.66812138228502,343.597114983571
738335.44445510080549865961,-2.65877254554888,3.66812138228502,343.560187587105
738335.44445519126020371914,-2.67108167770419,3.68043051444034,343.621733247881
738335.44445528171490877867,-2.69569994201483,3.66812138228502,343.289386679688
738335.44445537216961383820,-2.68339080985951,3.6558122501297,343.498641926328
738335.44445546262431889772,-2.68339080985951,3.6558122501297,343.609424115726
738335.44445555307902395725,-2.68339080985951,3.66812138228502,343.523260190639
738335.44445564341731369495,-2.69569994201483,3.6558122501297,343.498641926328
738335.44445573387201875448,-2.69569994201483,3.6558122501297,343.535569322794
738335.44445582432672381401,-2.69569994201483,3.6558122501297,343.584805851416
738335.44445591478142887354,-2.68339080985951,3.6558122501297,343.57249671926
738335.44445600523613393307,-2.68339080985951,3.66812138228502,343.54787845495
738335.44445609569083899260,-2.69569994201483,3.6558122501297,343.498641926328
738335.44445618602912873030,-2.68339080985951,3.66812138228502,343.535569322794
738335.44445627648383378983,-2.68339080985951,3.68043051444034,343.523260190639
738335.44445636693853884935,-2.68339080985951,3.66812138228502,343.560187587105
738335.44445645739324390888,-2.67108167770419,3.68043051444034,343.57249671926
738335.44445654784794896841,-2.68339080985951,3.68043051444034,343.54787845495
738335.44445663830265402794,-2.67108167770419,3.68043051444034,343.597114983571
738335.44445672864094376564,-2.67108167770419,3.68043051444034,343.597114983571
738335.44445681909564882517,-2.67108167770419,3.68043051444034,343.560187587105
738335.44445690955035388470,-2.70800907417015,3.64350311797438,343.597114983571
738335.44445700000505894423,-2.70800907417015,3.6558122501297,343.57249671926
738335.44445709045976400375,-2.65877254554888,3.69273964659566,343.57249671926
738335.44445718091446906328,-2.69569994201483,3.6558122501297,343.498641926328
738335.44445727125275880098,-2.68339080985951,3.6558122501297,343.54787845495
738335.44445736170746386051,-2.69569994201483,3.6558122501297,343.54787845495
738335.44445745216216892004,-2.69569994201483,3.64350311797438,343.560187587105
738335.44445754261687397957,-2.69569994201483,3.66812138228502,343.486332794173
738335.44445763307157903910,-2.69569994201483,3.6558122501297,343.597114983571
738335.44445772352628409863,-2.69569994201483,3.6558122501297,343.57249671926
738335.44445781386457383633,-2.69569994201483,3.6558122501297,343.510951058484
738335.44445790431927889585,-2.70800907417015,3.64350311797438,343.597114983571
738335.44445799477398395538,-2.70800907417015,3.63119398581907,343.584805851416
738335.44445808522868901491,-2.70800907417015,3.64350311797438,343.535569322794
738335.44445817568339407444,-2.69569994201483,3.6558122501297,343.54787845495
738335.44445826613809913397,-2.70800907417015,3.6558122501297,343.584805851416
738335.44445835647638887167,-2.72031820632547,3.63119398581907,343.498641926328
738335.44445844693109393120,-2.72031820632547,3.63119398581907,343.449405397707
738335.44445853738579899073,-2.69569994201483,3.66812138228502,343.486332794173
738335.44445862784050405025,-2.70800907417015,3.64350311797438,343.486332794173
738335.44445871829520910978,-2.70800907417015,3.6558122501297,343.437096265552
738335.44445880874991416931,-2.70800907417015,3.64350311797438,343.314004943999
738335.44445889908820390701,-2.70800907417015,3.63119398581907,343.412478001241
738335.44445898954290896654,-2.69569994201483,3.64350311797438,343.535569322794
738335.44445907999761402607,-2.70800907417015,3.63119398581907,343.474023662018
738335.44445917045231908560,-2.72031820632547,3.61888485366375,343.474023662018
738335.44445926090702414513,-2.69569994201483,3.6558122501297,343.486332794173
738335.44445935136172920465,-2.69569994201483,3.6558122501297,343.54787845495
738335.44445944170001894236,-2.70800907417015,3.63119398581907,343.474023662018
738335.44445953215472400188,-2.72031820632547,3.60657572150843,343.560187587105
738335.44445962260942906141,-2.68339080985951,3.66812138228502,343.535569322794
738335.44445971306413412094,-2.70800907417015,3.63119398581907,343.510951058484
738335.44445980351883918047,-2.69569994201483,3.64350311797438,343.560187587105
738335.44445989397354424000,-2.72031820632547,3.61888485366375,343.523260190639
738335.44445998431183397770,-2.70800907417015,3.63119398581907,343.510951058484
738335.44446007476653903723,-2.72031820632547,3.60657572150843,343.54787845495
738335.44446016522124409676,-2.72031820632547,3.61888485366375,343.584805851416
738335.44446025567594915628,-2.64646341339356,3.69273964659566,343.584805851416
738335.44446034613065421581,-2.69569994201483,3.63119398581907,343.560187587105
738335.44446043658535927534,-2.70800907417015,3.63119398581907,343.486332794173
738335.44446052692364901304,-2.69569994201483,3.64350311797438,343.597114983571
738335.44446061737835407257,-2.73262733848079,3.60657572150843,343.510951058484
738335.44446070783305913210,-2.64646341339356,3.70504877875098,343.474023662018
738335.44446079828776419163,-2.56029948830632,3.76659443952757,343.54787845495
738335.44446088874246925116,-2.65877254554888,3.66812138228502,343.54787845495
738335.44446097919717431068,-2.63415428123824,3.7173579109063,343.57249671926
738335.44446106965187937021,-2.67108167770419,3.69273964659566,343.486332794173
738335.44446115999016910791,-2.68339080985951,3.68043051444034,343.584805851416
738335.44446125044487416744,-2.65877254554888,3.70504877875098,343.57249671926
738335.44446134089957922697,-2.67108167770419,3.6558122501297,343.54787845495
738335.44446143135428428650,-2.65877254554888,3.68043051444034,343.57249671926
738335.44446152180898934603,-2.72031820632547,3.61888485366375,343.597114983571
738335.44446161226369440556,-2.68339080985951,3.6558122501297,343.597114983571
738335.44446170260198414326,-2.69569994201483,3.6558122501297,343.523260190639
738335.44446179305668920279,-2.68339080985951,3.6558122501297,343.597114983571
738335.44446188351139426231,-2.68339080985951,3.64350311797438,343.57249671926
738335.44446197396609932184,-2.68339080985951,3.64350311797438,343.510951058484
738335.44446206442080438137,-2.68339080985951,3.64350311797438,343.57249671926
738335.44446215487550944090,-2.70800907417015,3.61888485366375,343.498641926328
738335.44446224521379917860,-2.89264605649993,3.37270221055737,343.449405397707
738335.44446233566850423813,-2.88033692434461,3.37270221055737,343.375550604775
738335.44446242612320929766,-2.43720816675314,3.93892228970204,343.498641926328
738335.44446251657791435719,-1.98177027700634,4.46821497238075,343.437096265552
738335.44446260703261941671,-1.19398581906593,5.2190720338552,343.117058829513
738335.44446269748732447624,-1.25553147984252,5.39139988402966,343.166295358135
738335.44446278782561421394,-2.06793420209357,4.66516108686585,343.326314076154
738335.44446287828031927347,-2.73262733848079,3.53272092857652,343.412478001241
738335.44446296873502433300,-2.90495518865525,3.28653828547014,343.412478001241
738335.44446305918972939253,-2.92957345296589,3.33577481409141,343.424787133396
738335.44446314964443445206,-2.85571866003398,3.44655700348928,343.486332794173
738335.44446324009913951159,-2.73262733848079,3.56964832504247,343.523260190639
738335.44446333043742924929,-2.65877254554888,3.6558122501297,343.486332794173
738335.44446342089213430882,-2.53568122399569,3.79121270383821,343.498641926328
738335.44446351134683936834,-2.54799035615101,3.76659443952757,343.498641926328
738335.44446360180154442787,-2.59722688477228,3.7173579109063,343.498641926328
738335.44446369225624948740,-2.56029948830632,3.75428530737225,343.486332794173
738335.44446378271095454693,-2.54799035615101,3.76659443952757,343.535569322794
738335.44446387304924428463,-2.54799035615101,3.76659443952757,343.449405397707
738335.44446396350394934416,-2.53568122399569,3.77890357168289,343.510951058484
738335.44446405395865440369,-2.46182643106377,3.85275836461481,343.474023662018
738335.44446414441335946321,-2.49875382752973,3.82814010030417,343.486332794173
738335.44446423486806452274,-2.52337209184037,3.79121270383821,343.486332794173
738335.44446432532276958227,-2.51106295968505,3.80352183599353,343.510951058484
738335.44446441566105931997,-2.36335337382122,3.96354055401268,343.461714529862
738335.44446450611576437950,-2.38797163813186,3.95123142185736,343.523260190639
738335.44446459657046943903,-2.44951729890845,3.88968576108076,343.461714529862
738335.44446468702517449856,-2.36335337382122,3.96354055401268,343.38785973693
738335.44446477747987955809,-2.33873510951058,3.98815881832331,343.461714529862
738335.44446486793458461761,-2.36335337382122,3.97584968616799,343.461714529862
738335.44446495827287435532,-2.28949858088931,4.03739534694459,343.474023662018
738335.44446504872757941484,-2.2156437879574,4.12355927203182,343.510951058484
738335.44446513918228447437,-2.20333465580208,4.14817753634246,343.486332794173
738335.44446522963698953390,-2.16640725933612,4.20972319711905,343.412478001241
738335.44446532009169459343,-2.10486159855953,4.27126885789565,343.449405397707
738335.44446541054639965296,-1.90791548407442,4.48052410453607,343.437096265552
738335.44446550088468939066,-1.9571520126957,4.43128757591479,343.326314076154
738335.44446559133939445019,-1.92022461622974,4.46821497238075,343.326314076154
738335.44446568179409950972,-1.93253374838506,4.43128757591479,343.314004943999
738335.44446577224880456924,-1.98177027700634,4.3697419151382,343.326314076154
738335.44446586270350962877,-2.09255246640421,4.23434146142969,343.240150151067
738335.44446595315821468830,-2.22795292011272,4.08663187556586,343.289386679688
738335.44446604349650442600,-2.30180771304463,3.98815881832331,343.474023662018
738335.44446613395120948553,-2.43720816675314,3.84044923245949,343.449405397707
738335.44446622440591454506,-2.49875382752973,3.77890357168289,343.449405397707
738335.44446631486061960459,-2.43720816675314,3.84044923245949,343.535569322794
738335.44446640531532466412,-2.56029948830632,3.72966704306162,343.54787845495
738335.44446649577002972364,-2.59722688477228,3.68043051444034,343.510951058484
738335.44446658610831946135,-2.62184514908292,3.66812138228502,343.474023662018
738335.44446667656302452087,-2.56029948830632,3.72966704306162,343.449405397707
738335.44446676701772958040,-2.54799035615101,3.72966704306162,343.424787133396
738335.44446685747243463993,-2.58491775261696,3.69273964659566,343.474023662018
738335.44446694792713969946,-2.6095360169276,3.68043051444034,343.535569322794
738335.44446703838184475899,-2.59722688477228,3.68043051444034,343.412478001241
738335.44446712872013449669,-2.54799035615101,3.74197617521694,343.461714529862
738335.44446721917483955622,-2.59722688477228,3.69273964659566,343.486332794173
738335.44446730962954461575,-2.59722688477228,3.69273964659566,343.461714529862
738335.44446740008424967527,-2.58491775261696,3.69273964659566,343.461714529862
738335.44446749053895473480,-2.58491775261696,3.70504877875098,343.535569322794
738335.44446758099365979433,-2.58491775261696,3.70504877875098,343.486332794173
738335.44446767133194953203,-2.57260862046164,3.70504877875098,343.523260190639
738335.44446776178665459156,-2.57260862046164,3.7173579109063,343.510951058484
738335.44446785224135965109,-2.57260862046164,3.7173579109063,343.560187587105
738335.44446794269606471062,-2.57260862046164,3.7173579109063,343.54787845495
738335.44446803315076977015,-2.58491775261696,3.70504877875098,343.461714529862
738335.44446812360547482967,-2.58491775261696,3.69273964659566,343.461714529862
738335.44446821394376456738,-2.56029948830632,3.70504877875098,343.498641926328
738335.44446830439846962690,-2.57260862046164,3.7173579109063,343.486332794173
738335.44446839485317468643,-2.58491775261696,3.69273964659566,343.57249671926
738335.44446848530787974596,-2.59722688477228,3.69273964659566,343.54787845495
738335.44446857576258480549,-2.58491775261696,3.68043051444034,343.486332794173
738335.44446866621728986502,-2.58491775261696,3.69273964659566,343.474023662018
738335.44446875655557960272,-2.57260862046164,3.69273964659566,343.510951058484
738335.44446884701028466225,-2.58491775261696,3.70504877875098,343.560187587105
738335.44446893746498972178,-2.6095360169276,3.68043051444034,343.560187587105
738335.44446902791969478130,-2.6095360169276,3.66812138228502,343.57249671926
738335.44446911837439984083,-2.58491775261696,3.69273964659566,343.498641926328
738335.44446920882910490036,-2.59722688477228,3.68043051444034,343.486332794173
738335.44446929916739463806,-2.62184514908292,3.6558122501297,343.560187587105
738335.44446938962209969759,-2.58491775261696,3.70504877875098,343.437096265552
738335.44446948007680475712,-2.59722688477228,3.68043051444034,343.338623208309
738335.44446957053150981665,-2.62184514908292,3.66812138228502,343.461714529862
738335.44446966098621487617,-2.63415428123824,3.64350311797438,343.474023662018
738335.44446975144091993570,-2.58491775261696,3.70504877875098,343.461714529862
738335.44446984177920967340,-2.59722688477228,3.68043051444034,343.449405397707
738335.44446993223391473293,-2.62184514908292,3.64350311797438,343.535569322794
738335.44447002268861979246,-2.62184514908292,3.6558122501297,343.584805851416
738335.44447011314332485199,-2.6095360169276,3.6558122501297,343.597114983571
738335.44447020359802991152,-2.6095360169276,3.68043051444034,343.54787845495
738335.44447029405273497105,-2.6095360169276,3.66812138228502,343.510951058484
738335.44447038450744003057,-2.62184514908292,3.6558122501297,343.560187587105
738335.44447047484572976828,-2.62184514908292,3.6558122501297,343.560187587105
738335.44447056530043482780,-2.63415428123824,3.6558122501297,343.498641926328
738335.44447065575513988733,-2.62184514908292,3.6558122501297,343.560187587105
738335.44447074620984494686,-2.6095360169276,3.6558122501297,343.584805851416
738335.44447083666455000639,-2.62184514908292,3.6558122501297,343.609424115726
738335.44447092711925506592,-2.65877254554888,3.61888485366375,343.510951058484
738335.44447101745754480362,-2.59722688477228,3.66812138228502,343.486332794173
738335.44447110791224986315,-2.6095360169276,3.6558122501297,343.437096265552
738335.44447119836695492268,-2.62184514908292,3.64350311797438,343.486332794173
738335.44447128882165998220,-2.62184514908292,3.64350311797438,343.486332794173
738335.44447137927636504173,-2.62184514908292,3.64350311797438,343.474023662018
738335.44447146973107010126,-2.62184514908292,3.64350311797438,343.510951058484
738335.44447156006935983896,-2.62184514908292,3.64350311797438,343.486332794173
738335.44447165052406489849,-2.62184514908292,3.64350311797438,343.474023662018
738335.44447174097876995802,-2.62184514908292,3.64350311797438,343.474023662018
738335.44447183143347501755,-2.64646341339356,3.63119398581907,343.449405397707
738335.44447192188818007708,-2.63415428123824,3.63119398581907,343.535569322794
738335.44447201234288513660,-2.62184514908292,3.64350311797438,343.510951058484
738335.44447210268117487431,-2.6095360169276,3.66812138228502,343.560187587105
738335.44447219313587993383,-2.62184514908292,3.6558122501297,343.535569322794
738335.44447228359058499336,-2.63415428123824,3.63119398581907,343.461714529862
738335.44447237404529005289,-2.63415428123824,3.63119398581907,343.486332794173
738335.44447246449999511242,-2.64646341339356,3.64350311797438,343.498641926328
738335.44447255495470017195,-2.63415428123824,3.64350311797438,343.498641926328
738335.44447264529298990965,-2.62184514908292,3.64350311797438,343.510951058484
738335.44447273574769496918,-2.64646341339356,3.61888485366375,343.498641926328
738335.44447282620240002871,-2.62184514908292,3.63119398581907,343.498641926328
738335.44447291665710508823,-2.62184514908292,3.6558122501297,343.424787133396
738335.44447300711181014776,-2.58491775261696,3.66812138228502,343.375550604775
738335.44447309756651520729,-2.53568122399569,3.7173579109063,343.510951058484
738335.44447318790480494499,-2.57260862046164,3.68043051444034,343.535569322794
738335.44447327835951000452,-2.58491775261696,3.68043051444034,343.424787133396
738335.44447336881421506405,-2.59722688477228,3.70504877875098,343.57249671926
738335.44447345926892012358,-2.59722688477228,3.70504877875098,343.560187587105
738335.44447354972362518311,-2.62184514908292,3.66812138228502,343.437096265552
738335.44447364017833024263,-2.63415428123824,3.63119398581907,343.523260190639
738335.44447373051661998034,-2.64646341339356,3.61888485366375,343.57249671926
738335.44447382097132503986,-2.64646341339356,3.61888485366375,343.54787845495
738335.44447391142603009939,-2.64646341339356,3.61888485366375,343.523260190639
738335.44447400188073515892,-2.64646341339356,3.61888485366375,343.584805851416
738335.44447409233544021845,-2.64646341339356,3.61888485366375,343.535569322794
738335.44447418279014527798,-2.64646341339356,3.60657572150843,343.486332794173
738335.44447427312843501568,-2.64646341339356,3.61888485366375,343.535569322794
738335.44447436358314007521,-2.64646341339356,3.63119398581907,343.560187587105
738335.44447445403784513474,-2.65877254554888,3.60657572150843,343.57249671926
738335.44447454449255019426,-2.78186386710206,3.39732047486801,343.437096265552
738335.44447463494725525379,-2.81879126356802,3.36039307840205,343.498641926328
738335.44447472540196031332,-2.53568122399569,3.77890357168289,343.54787845495
738335.44447481574025005102,-1.85867895545315,4.49283323669139,343.277077547533
738335.44447490619495511055,-1.13244015828934,5.20676290169988,342.944730979339
738335.44447499664966017008,-1.13244015828934,5.44063641265094,342.907803582873
738335.44447508710436522961,-2.00638854131698,4.65285195471053,343.227841018911
738335.44447517755907028913,-2.75724560279143,3.47117526779992,343.264768415377
738335.44447526801377534866,-2.95419171727653,3.23730175684886,343.474023662018
738335.44447535835206508636,-2.84340952787866,3.37270221055737,343.523260190639
738335.44447544880677014589,-2.69569994201483,3.53272092857652,343.523260190639
738335.44447553926147520542,-2.67108167770419,3.56964832504247,343.36324147262
738335.44447562971618026495,-2.65877254554888,3.59426658935311,343.461714529862
738335.44447572017088532448,-2.49875382752973,3.70504877875098,343.461714529862
738335.44447581062559038401,-2.58491775261696,3.6558122501297,343.510951058484
738335.44447590096388012171,-2.59722688477228,3.64350311797438,343.474023662018
738335.44447599141858518124,-2.58491775261696,3.66812138228502,343.535569322794
738335.44447608187329024076,-2.57260862046164,3.68043051444034,343.510951058484
738335.44447617232799530029,-2.54799035615101,3.69273964659566,343.424787133396
738335.44447626278270035982,-2.53568122399569,3.7173579109063,343.461714529862
738335.44447635323740541935,-2.53568122399569,3.72966704306162,343.461714529862
738335.44447644357569515705,-2.53568122399569,3.7173579109063,343.38785973693
738335.44447653403040021658,-2.49875382752973,3.75428530737225,343.38785973693
738335.44447662448510527611,-2.48644469537441,3.76659443952757,343.400168869086
738335.44447671493981033564,-2.47413556321909,3.79121270383821,343.449405397707
738335.44447680539451539516,-2.46182643106377,3.81583096814885,343.437096265552
738335.44447689584922045469,-2.42489903459782,3.84044923245949,343.461714529862
738335.44447698618751019239,-2.40028077028718,3.85275836461481,343.486332794173
738335.44447707664221525192,-2.37566250597654,3.87737662892544,343.437096265552
738335.44447716709692031145,-2.33873510951058,3.93892228970204,343.400168869086
738335.44447725755162537098,-2.30180771304463,3.96354055401268,343.424787133396
738335.44447734800633043051,-2.26488031657867,4.02508621478927,343.437096265552
738335.44447743846103549004,-2.2156437879574,4.07432274341055,343.412478001241
738335.44447752879932522774,-2.14178899502548,4.14817753634246,343.424787133396
738335.44447761925403028727,-2.09255246640421,4.20972319711905,343.449405397707
738335.44447770970873534679,-2.04331593778293,4.25895972574033,343.424787133396
738335.44447780016344040632,-2.01869767347229,4.29588712220628,343.36324147262
738335.44447789061814546585,-1.98177027700634,4.33281451867224,343.350932340465
738335.44447798107285052538,-1.98177027700634,4.3081962543616,343.36324147262
738335.44447807141114026308,-2.03100680562761,4.24665059358501,343.36324147262
738335.44447816186584532261,-2.11717073071485,4.14817753634246,343.412478001241
738335.44447825232055038214,-2.26488031657867,3.97584968616799,343.437096265552
738335.44447834277525544167,-2.38797163813186,3.84044923245949,343.449405397707
738335.44447843322996050119,-2.4125899024425,3.80352183599353,343.461714529862
738335.44447852368466556072,-2.52337209184037,3.70504877875098,343.486332794173
738335.44447861402295529842,-2.57260862046164,3.64350311797438,343.54787845495
738335.44447870447766035795,-2.59722688477228,3.63119398581907,343.461714529862
738335.44447879493236541748,-2.6095360169276,3.63119398581907,343.535569322794
738335.44447888538707047701,-2.63415428123824,3.60657572150843,343.535569322794
738335.44447897584177553654,-2.63415428123824,3.61888485366375,343.510951058484
738335.44447906629648059607,-2.63415428123824,3.60657572150843,343.523260190639
738335.44447915663477033377,-2.64646341339356,3.58195745719779,343.57249671926
738335.44447924708947539330,-2.63415428123824,3.60657572150843,343.560187587105
738335.44447933754418045282,-2.64646341339356,3.60657572150843,343.461714529862
738335.44447942799888551235,-2.63415428123824,3.61888485366375,343.350932340465
738335.44447951845359057188,-2.64646341339356,3.60657572150843,343.38785973693
738335.44447960890829563141,-2.64646341339356,3.60657572150843,343.412478001241
738335.44447969924658536911,-2.64646341339356,3.60657572150843,343.36324147262
738335.44447978970129042864,-2.65877254554888,3.58195745719779,343.400168869086
738335.44447988015599548817,-2.64646341339356,3.59426658935311,343.449405397707
738335.44447997061070054770,-2.63415428123824,3.60657572150843,343.350932340465
738335.44448006106540560722,-2.64646341339356,3.58195745719779,343.314004943999
738335.44448015152011066675,-2.64646341339356,3.59426658935311,343.486332794173
738335.44448024197481572628,-2.64646341339356,3.60657572150843,343.38785973693
738335.44448033231310546398,-2.63415428123824,3.61888485366375,343.486332794173
738335.44448042276781052351,-2.63415428123824,3.60657572150843,343.510951058484
738335.44448051322251558304,-2.67108167770419,3.56964832504247,343.375550604775
738335.44448060367722064257,-2.65877254554888,3.56964832504247,343.449405397707
738335.44448069413192570210,-2.65877254554888,3.58195745719779,343.523260190639
738335.44448078458663076162,-2.62184514908292,3.61888485366375,343.424787133396
738335.44448087492492049932,-2.69569994201483,3.54503006073183,343.437096265552
738335.44448096537962555885,-2.64646341339356,3.61888485366375,343.498641926328
738335.44448105583433061838,-2.64646341339356,3.63119398581907,343.510951058484
738335.44448114628903567791,-2.64646341339356,3.64350311797438,343.54787845495
738335.44448123674374073744,-2.65877254554888,3.61888485366375,343.560187587105
738335.44448132719844579697,-2.67108167770419,3.55733919288715,343.54787845495
738335.44448141753673553467,-2.70800907417015,3.58195745719779,343.584805851416
738335.44448150799144059420,-2.69569994201483,3.56964832504247,343.486332794173
738335.44448159844614565372,-2.63415428123824,3.64350311797438,343.609424115726
738335.44448168890085071325,-2.64646341339356,3.66812138228502,343.474023662018
738335.44448177935555577278,-2.69569994201483,3.61888485366375,343.486332794173
738335.44448186981026083231,-2.69569994201483,3.55733919288715,343.57249671926
738335.44448196014855057001,-2.58491775261696,3.72966704306162,343.461714529862
738335.44448205060325562954,-2.67108167770419,3.59426658935311,343.510951058484
738335.44448214105796068907,-2.65877254554888,3.55733919288715,343.57249671926
738335.44448223151266574860,-2.63415428123824,3.66812138228502,343.535569322794
738335.44448232196737080812,-2.54799035615101,3.74197617521694,343.560187587105
738335.44448241242207586765,-2.65877254554888,3.55733919288715,343.597114983571
738335.44448250276036560535,-2.64646341339356,3.59426658935311,343.54787845495
738335.44448259321507066488,-2.64646341339356,3.56964832504247,343.474023662018
738335.44448268366977572441,-2.62184514908292,3.58195745719779,343.535569322794
738335.44448277412448078394,-2.63415428123824,3.58195745719779,343.523260190639
738335.44448286457918584347,-2.65877254554888,3.58195745719779,343.424787133396
738335.44448295503389090300,-2.59722688477228,3.61888485366375,343.57249671926
738335.44448304537218064070,-2.59722688477228,3.64350311797438,343.535569322794
738335.44448313582688570023,-2.63415428123824,3.60657572150843,343.510951058484
738335.44448322628159075975,-2.64646341339356,3.56964832504247,343.560187587105
738335.44448331673629581928,-2.6095360169276,3.61888485366375,343.560187587105
738335.44448340719100087881,-2.6095360169276,3.60657572150843,343.510951058484
738335.44448349764570593834,-2.62184514908292,3.60657572150843,343.437096265552
738335.44448358798399567604,-2.59722688477228,3.63119398581907,343.38785973693
738335.44448367843870073557,-2.63415428123824,3.58195745719779,343.54787845495
738335.44448376889340579510,-2.62184514908292,3.59426658935311,343.498641926328
738335.44448385934811085463,-2.6095360169276,3.60657572150843,343.449405397707
738335.44448394980281591415,-2.65877254554888,3.55733919288715,343.584805851416
738335.44448404025752097368,-2.59722688477228,3.59426658935311,343.510951058484
738335.44448413059581071138,-2.64646341339356,3.54503006073183,343.36324147262
738335.44448422105051577091,-2.65877254554888,3.55733919288715,343.437096265552
738335.44448431150522083044,-2.64646341339356,3.56964832504247,343.400168869086
738335.44448440195992588997,-2.6095360169276,3.60657572150843,343.424787133396
738335.44448449241463094950,-2.68339080985951,3.53272092857652,343.437096265552
738335.44448458286933600903,-2.65877254554888,3.56964832504247,343.498641926328
738335.44448467320762574673,-2.65877254554888,3.55733919288715,343.474023662018
738335.44448476366233080626,-2.64646341339356,3.54503006073183,343.510951058484
738335.44448485411703586578,-2.67108167770419,3.55733919288715,343.535569322794
738335.44448494457174092531,-2.65877254554888,3.55733919288715,343.523260190639
738335.44448503502644598484,-2.67108167770419,3.53272092857652,343.474023662018
738335.44448512548115104437,-2.64646341339356,3.56964832504247,343.523260190639
738335.44448521581944078207,-2.63415428123824,3.56964832504247,343.560187587105
738335.44448530627414584160,-2.64646341339356,3.56964832504247,343.461714529862
738335.44448539672885090113,-2.6095360169276,3.60657572150843,343.424787133396
738335.44448548718355596066,-2.57260862046164,3.61888485366375,343.449405397707
738335.44448557763826102018,-2.58491775261696,3.60657572150843,343.461714529862
738335.44448566809296607971,-2.62184514908292,3.58195745719779,343.474023662018
738335.44448575843125581741,-2.6095360169276,3.61888485366375,343.535569322794
738335.44448584888596087694,-2.59722688477228,3.6558122501297,343.498641926328
738335.44448593934066593647,-2.59722688477228,3.61888485366375,343.400168869086
738335.44448602979537099600,-2.65877254554888,3.54503006073183,343.449405397707
738335.44448612025007605553,-2.68339080985951,3.5204117964212,343.474023662018
738335.44448621070478111506,-2.69569994201483,3.49579353211056,343.510951058484
738335.44448630104307085276,-2.62184514908292,3.58195745719779,343.54787845495
738335.44448639149777591228,-2.65877254554888,3.53272092857652,343.535569322794
738335.44448648195248097181,-2.67108167770419,3.53272092857652,343.474023662018
738335.44448657240718603134,-2.68339080985951,3.49579353211056,343.560187587105
738335.44448666286189109087,-2.65877254554888,3.50810266426588,343.54787845495
738335.44448675331659615040,-2.64646341339356,3.54503006073183,343.510951058484
738335.44448684365488588810,-2.65877254554888,3.58195745719779,343.510951058484
738335.44448693410959094763,-2.74493647063611,3.38501134271269,343.510951058484
738335.44448702456429600716,-2.84340952787866,3.21268349253822,343.510951058484
738335.44448711501900106668,-2.76955473494675,3.31115654978078,343.338623208309
738335.44448720547370612621,-2.42489903459782,3.82814010030417,343.597114983571
738335.44448729592841118574,-1.698660237434,4.64054282255521,343.350932340465
738335.44448738626670092344,-1.09551276182338,5.39139988402966,343.030894904426
738335.44448747672140598297,-1.39093193355103,5.4160181483403,343.006276640116
738335.44448756717611104250,-2.28949858088931,4.34512365082756,343.301695811843
738335.44448765763081610203,-2.76955473494675,3.38501134271269,343.400168869086
738335.44448774808552116156,-2.90495518865525,3.20037436038291,343.486332794173
738335.44448783854022622108,-2.8064821314127,3.33577481409141,343.54787845495
738335.44448792887851595879,-2.68339080985951,3.44655700348928,343.560187587105
738335.44448801933322101831,-2.6095360169276,3.54503006073183,343.535569322794
738335.44448810978792607784,-2.57260862046164,3.56964832504247,343.437096265552
738335.44448820024263113737,-2.57260862046164,3.56964832504247,343.498641926328
738335.44448829069733619690,-2.56029948830632,3.56964832504247,343.510951058484
738335.44448838115204125643,-2.58491775261696,3.54503006073183,343.38785973693
738335.44448847149033099413,-2.51106295968505,3.61888485366375,343.424787133396
738335.44448856194503605366,-2.48644469537441,3.6558122501297,343.437096265552
738335.44448865239974111319,-2.51106295968505,3.60657572150843,343.486332794173
738335.44448874285444617271,-2.52337209184037,3.61888485366375,343.375550604775
738335.44448883330915123224,-2.46182643106377,3.69273964659566,343.400168869086
738335.44448892376385629177,-2.48644469537441,3.68043051444034,343.38785973693
738335.44448901410214602947,-2.46182643106377,3.69273964659566,343.412478001241
738335.44448910455685108900,-2.43720816675314,3.72966704306162,343.461714529862
738335.44448919501155614853,-2.42489903459782,3.72966704306162,343.338623208309
738335.44448928546626120806,-2.4125899024425,3.74197617521694,343.38785973693
738335.44448937592096626759,-2.38797163813186,3.77890357168289,343.412478001241
738335.44448946637567132711,-2.33873510951058,3.84044923245949,343.400168869086
738335.44448955683037638664,-2.32642597735527,3.84044923245949,343.38785973693
738335.44448964716866612434,-2.28949858088931,3.88968576108076,343.412478001241
738335.44448973762337118387,-2.24026205226803,3.95123142185736,343.437096265552
738335.44448982807807624340,-2.19102552364676,3.98815881832331,343.314004943999
738335.44448991853278130293,-2.16640725933612,4.04970447909991,343.412478001241
738335.44449000898748636246,-2.06793420209357,4.14817753634246,343.252459283222
738335.44449009944219142199,-2.00638854131698,4.20972319711905,343.301695811843
738335.44449018978048115969,-1.98177027700634,4.27126885789565,343.227841018911
738335.44449028023518621922,-1.92022461622974,4.3081962543616,343.227841018911
738335.44449037068989127874,-1.89560635191911,4.33281451867224,343.203222754601
738335.44449046114459633827,-1.9571520126957,4.28357799005097,343.17860449029
738335.44449055159930139780,-2.08024333424889,4.13586840418714,343.240150151067
738335.44449064205400645733,-2.1540981271808,4.02508621478927,343.314004943999
738335.44449073239229619503,-2.27718944873399,3.88968576108076,343.350932340465
738335.44449082284700125456,-2.32642597735527,3.84044923245949,343.350932340465
738335.44449091330170631409,-2.42489903459782,3.7173579109063,343.449405397707
738335.44449100375641137362,-2.47413556321909,3.66812138228502,343.474023662018
738335.44449109421111643314,-2.52337209184037,3.61888485366375,343.510951058484
738335.44449118466582149267,-2.53568122399569,3.55733919288715,343.412478001241
738335.44449127500411123037,-2.57260862046164,3.55733919288715,343.486332794173
738335.44449136545881628990,-2.57260862046164,3.58195745719779,343.486332794173
738335.44449145591352134943,-2.57260862046164,3.56964832504247,343.412478001241
738335.44449154636822640896,-2.58491775261696,3.56964832504247,343.412478001241
738335.44449163682293146849,-2.58491775261696,3.55733919288715,343.449405397707
738335.44449172727763652802,-2.57260862046164,3.55733919288715,343.461714529862
738335.44449181761592626572,-2.58491775261696,3.55733919288715,343.461714529862
738335.44449190807063132524,-2.57260862046164,3.54503006073183,343.474023662018
738335.44449199852533638477,-2.54799035615101,3.58195745719779,343.523260190639
738335.44449208898004144430,-2.58491775261696,3.55733919288715,343.535569322794
738335.44449217943474650383,-2.57260862046164,3.55733919288715,343.510951058484
738335.44449226988945156336,-2.59722688477228,3.55733919288715,343.486332794173
738335.44449236022774130106,-2.58491775261696,3.54503006073183,343.523260190639
738335.44449245068244636059,-2.59722688477228,3.5204117964212,343.535569322794
738335.44449254113715142012,-2.57260862046164,3.56964832504247,343.449405397707
738335.44449263159185647964,-2.57260862046164,3.55733919288715,343.474023662018
738335.44449272204656153917,-2.58491775261696,3.55733919288715,343.461714529862
738335.44449281250126659870,-2.56029948830632,3.54503006073183,343.424787133396
738335.44449290283955633640,-2.58491775261696,3.53272092857652,343.424787133396
738335.44449299329426139593,-2.58491775261696,3.53272092857652,343.424787133396
738335.44449308374896645546,-2.62184514908292,3.49579353211056,343.449405397707
738335.44449317420367151499,-2.57260862046164,3.56964832504247,343.486332794173
738335.44449326465837657452,-2.58491775261696,3.55733919288715,343.437096265552
738335.44449335511308163404,-2.59722688477228,3.54503006073183,343.474023662018
738335.44449344545137137175,-2.57260862046164,3.58195745719779,343.523260190639
738335.44449353590607643127,-2.64646341339356,3.55733919288715,343.535569322794
738335.44449362636078149080,-2.6095360169276,3.58195745719779,343.449405397707
738335.44449371681548655033,-2.54799035615101,3.58195745719779,343.461714529862
738335.44449380727019160986,-2.57260862046164,3.58195745719779,343.486332794173
738335.44449389772489666939,-2.6095360169276,3.56964832504247,343.449405397707
738335.44449398806318640709,-2.63415428123824,3.53272092857652,343.400168869086
738335.44449407851789146662,-2.64646341339356,3.54503006073183,343.301695811843
738335.44449416897259652615,-2.70800907417015,3.48348439995524,343.400168869086
738335.44449425942730158567,-2.65877254554888,3.49579353211056,343.437096265552
738335.44449434988200664520,-2.70800907417015,3.47117526779992,343.38785973693
738335.44449444033671170473,-2.59722688477228,3.61888485366375,343.498641926328
738335.44449453067500144243,-2.58491775261696,3.59426658935311,343.57249671926
738335.44449462112970650196,-2.51106295968505,3.61888485366375,343.535569322794
738335.44449471158441156149,-2.54799035615101,3.59426658935311,343.461714529862
738335.44449480203911662102,-2.56029948830632,3.59426658935311,343.54787845495
738335.44449489249382168055,-2.54799035615101,3.56964832504247,343.560187587105
738335.44449498294852674007,-2.57260862046164,3.58195745719779,343.510951058484
738335.44449507328681647778,-2.57260862046164,3.55733919288715,343.474023662018
738335.44449516374152153730,-2.57260862046164,3.56964832504247,343.560187587105
738335.44449525419622659683,-2.58491775261696,3.55733919288715,343.486332794173
738335.44449534465093165636,-2.58491775261696,3.56964832504247,343.461714529862
738335.44449543510563671589,-2.58491775261696,3.55733919288715,343.437096265552
738335.44449552556034177542,-2.6095360169276,3.56964832504247,343.461714529862
738335.44449561589863151312,-2.58491775261696,3.58195745719779,343.461714529862
738335.44449570635333657265,-2.57260862046164,3.58195745719779,343.474023662018
738335.44449579680804163218,-2.59722688477228,3.55733919288715,343.54787845495
738335.44449588726274669170,-2.6095360169276,3.54503006073183,343.54787845495
738335.44449597771745175123,-2.58491775261696,3.55733919288715,343.57249671926
738335.44449606817215681076,-2.56029948830632,3.55733919288715,343.523260190639
738335.44449615851044654846,-2.56029948830632,3.58195745719779,343.584805851416
738335.44449624896515160799,-2.56029948830632,3.58195745719779,343.461714529862
738335.44449633941985666752,-2.57260862046164,3.56964832504247,343.498641926328
738335.44449642987456172705,-2.62184514908292,3.5204117964212,343.449405397707
738335.44449652032926678658,-2.57260862046164,3.56964832504247,343.449405397707
738335.44449661078397184610,-2.58491775261696,3.55733919288715,343.474023662018
738335.44449670112226158381,-2.6095360169276,3.53272092857652,343.474023662018
738335.44449679157696664333,-2.59722688477228,3.55733919288715,343.54787845495
738335.44449688203167170286,-2.57260862046164,3.58195745719779,343.449405397707
738335.44449697248637676239,-2.58491775261696,3.55733919288715,343.474023662018
738335.44449706294108182192,-2.57260862046164,3.55733919288715,343.523260190639
738335.44449715339578688145,-2.56029948830632,3.56964832504247,343.54787845495
738335.44449724373407661915,-2.59722688477228,3.53272092857652,343.54787845495
738335.44449733418878167868,-2.63415428123824,3.5204117964212,343.486332794173
738335.44449742464348673820,-2.47413556321909,3.6558122501297,343.486332794173
738335.44449751509819179773,-2.57260862046164,3.55733919288715,343.523260190639
738335.44449760555289685726,-2.6095360169276,3.53272092857652,343.338623208309
738335.44449769600760191679,-2.57260862046164,3.58195745719779,343.400168869086
738335.44449778634589165449,-2.49875382752973,3.64350311797438,343.474023662018
738335.44449787680059671402,-2.51106295968505,3.63119398581907,343.523260190639
738335.44449796725530177355,-2.58491775261696,3.55733919288715,343.461714529862
738335.44449805771000683308,-2.58491775261696,3.56964832504247,343.486332794173
738335.44449814816471189260,-2.40028077028718,3.75428530737225,343.535569322794
738335.44449823861941695213,-2.47413556321909,3.69273964659566,343.510951058484
738335.44449832895770668983,-2.56029948830632,3.56964832504247,343.510951058484
738335.44449841941241174936,-2.63415428123824,3.49579353211056,343.535569322794
738335.44449850986711680889,-2.58491775261696,3.5204117964212,343.54787845495
738335.44449860032182186842,-2.59722688477228,3.49579353211056,343.486332794173
738335.44449869077652692795,-2.62184514908292,3.4588661356446,343.523260190639
738335.44449878123123198748,-2.44951729890845,3.64350311797438,343.486332794173
738335.44449887168593704700,-2.49875382752973,3.58195745719779,343.535569322794
738335.44449896202422678471,-2.64646341339356,3.44655700348928,343.597114983571
738335.44449905247893184423,-2.53568122399569,3.56964832504247,343.57249671926
738335.44449914293363690376,-2.57260862046164,3.54503006073183,343.54787845495
738335.44449923338834196329,-2.62184514908292,3.49579353211056,343.54787845495
738335.44449932384304702282,-2.75724560279143,3.23730175684886,343.498641926328
738335.44449941429775208235,-2.6095360169276,3.39732047486801,343.535569322794
738335.44449950463604182005,-2.37566250597654,3.84044923245949,343.560187587105
738335.44449959509074687958,-1.77251503036592,4.64054282255521,343.36324147262
738335.44449968554545193911,-1.20629495122125,5.45294554480626,343.067822300892
738335.44449977600015699863,-1.26784061199784,5.73605558437859,343.141677093824
738335.44449986645486205816,-2.20333465580208,4.59130629393394,343.36324147262
738335.44449995690956711769,-2.79417299925738,3.33577481409141,343.38785973693
738335.44450004724785685539,-2.95419171727653,3.10190130314035,343.474023662018
738335.44450013770256191492,-2.67108167770419,3.42193873917865,343.54787845495
738335.44450022815726697445,-2.68339080985951,3.43424787133396,343.584805851416
738335.44450031861197203398,-2.6095360169276,3.50810266426588,343.54787845495
738335.44450040906667709351,-2.53568122399569,3.61888485366375,343.584805851416
738335.44450049952138215303,-2.44951729890845,3.69273964659566,343.584805851416
738335.44450058985967189074,-2.49875382752973,3.64350311797438,343.486332794173
738335.44450068031437695026,-2.49875382752973,3.6558122501297,343.597114983571
738335.44450077076908200979,-2.51106295968505,3.64350311797438,343.57249671926
738335.44450086122378706932,-2.36335337382122,3.79121270383821,343.474023662018
738335.44450095167849212885,-2.57260862046164,3.58195745719779,343.486332794173
738335.44450104213319718838,-2.42489903459782,3.72966704306162,343.38785973693
738335.44450113247148692608,-2.38797163813186,3.77890357168289,343.264768415377
738335.44450122292619198561,-2.36335337382122,3.81583096814885,343.314004943999
738335.44450131338089704514,-2.42489903459782,3.72966704306162,343.474023662018
738335.44450140383560210466,-2.4125899024425,3.76659443952757,343.437096265552
738335.44450149429030716419,-2.3510442416659,3.81583096814885,343.486332794173
738335.44450158474501222372,-2.33873510951058,3.82814010030417,343.437096265552
738335.44450167508330196142,-2.32642597735527,3.86506749677012,343.474023662018
738335.44450176553800702095,-2.31411684519995,3.88968576108076,343.474023662018
738335.44450185599271208048,-2.31411684519995,3.90199489323608,343.474023662018
738335.44450194644741714001,-2.30180771304463,3.92661315754672,343.461714529862
738335.44450203690212219954,-2.19102552364676,4.06201361125523,343.498641926328
738335.44450212735682725906,-2.16640725933612,4.1112501398765,343.510951058484
738335.44450221769511699677,-2.16640725933612,4.12355927203182,343.38785973693
738335.44450230814982205629,-2.11717073071485,4.18510493280842,343.486332794173
738335.44450239860452711582,-2.05562506993825,4.27126885789565,343.449405397707
738335.44450248905923217535,-1.99407940916166,4.35743278298288,343.338623208309
738335.44450257951393723488,-1.96946114485102,4.38205104729352,343.38785973693
738335.44450266996864229441,-1.92022461622974,4.45590584022543,343.375550604775
738335.44450276030693203211,-1.93253374838506,4.44359670807011,343.412478001241
738335.44450285076163709164,-2.05562506993825,4.3081962543616,343.400168869086
738335.44450294121634215117,-2.10486159855953,4.23434146142969,343.400168869086
738335.44450303167104721069,-2.14178899502548,4.16048666849778,343.400168869086
738335.44450312212575227022,-2.3510442416659,3.92661315754672,343.461714529862
738335.44450321258045732975,-2.42489903459782,3.84044923245949,343.474023662018
738335.44450330291874706745,-2.47413556321909,3.77890357168289,343.510951058484
738335.44450339337345212698,-2.52337209184037,3.72966704306162,343.474023662018
738335.44450348382815718651,-2.54799035615101,3.70504877875098,343.437096265552
738335.44450357428286224604,-2.58491775261696,3.68043051444034,343.449405397707
738335.44450366473756730556,-2.59722688477228,3.6558122501297,343.449405397707
738335.44450375519227236509,-2.58491775261696,3.6558122501297,343.449405397707
738335.44450384553056210279,-2.59722688477228,3.64350311797438,343.474023662018
738335.44450393598526716232,-2.59722688477228,3.6558122501297,343.535569322794
738335.44450402643997222185,-2.59722688477228,3.6558122501297,343.54787845495
738335.44450411689467728138,-2.59722688477228,3.6558122501297,343.523260190639
738335.44450420734938234091,-2.65877254554888,3.60657572150843,343.560187587105
738335.44450429780408740044,-2.59722688477228,3.66812138228502,343.57249671926
738335.44450438814237713814,-2.57260862046164,3.69273964659566,343.54787845495
738335.44450447859708219767,-2.62184514908292,3.63119398581907,343.498641926328
738335.44450456905178725719,-2.62184514908292,3.64350311797438,343.535569322794
738335.44450465950649231672,-2.6095360169276,3.66812138228502,343.437096265552
738335.44450474996119737625,-2.59722688477228,3.70504877875098,343.375550604775
738335.44450484041590243578,-2.6095360169276,3.68043051444034,343.523260190639
738335.44450493075419217348,-2.6095360169276,3.68043051444034,343.535569322794
738335.44450502120889723301,-2.62184514908292,3.69273964659566,343.510951058484
738335.44450511166360229254,-2.65877254554888,3.63119398581907,343.461714529862
738335.44450520211830735207,-2.58491775261696,3.70504877875098,343.498641926328
738335.44450529257301241159,-2.59722688477228,3.70504877875098,343.523260190639
738335.44450538302771747112,-2.69569994201483,3.59426658935311,343.474023662018
738335.44450547336600720882,-2.64646341339356,3.64350311797438,343.486332794173
738335.44450556382071226835,-2.6095360169276,3.66812138228502,343.437096265552
738335.44450565427541732788,-2.56029948830632,3.72966704306162,343.486332794173
738335.44450574473012238741,-2.6095360169276,3.66812138228502,343.54787845495
738335.44450583518482744694,-2.70800907417015,3.56964832504247,343.486332794173
738335.44450592563953250647,-2.49875382752973,3.77890357168289,343.535569322794
738335.44450601597782224417,-2.67108167770419,3.61888485366375,343.523260190639
738335.44450610643252730370,-2.65877254554888,3.63119398581907,343.498641926328
738335.44450619688723236322,-2.64646341339356,3.64350311797438,343.486332794173
738335.44450628734193742275,-2.63415428123824,3.6558122501297,343.584805851416
738335.44450637779664248228,-2.62184514908292,3.6558122501297,343.54787845495
738335.44450646825134754181,-2.62184514908292,3.66812138228502,343.486332794173
738335.44450655858963727951,-2.62184514908292,3.66812138228502,343.535569322794
738335.44450664904434233904,-2.62184514908292,3.6558122501297,343.510951058484
738335.44450673949904739857,-2.63415428123824,3.64350311797438,343.498641926328
738335.44450682995375245810,-2.68339080985951,3.59426658935311,343.510951058484
738335.44450692040845751762,-2.6095360169276,3.68043051444034,343.560187587105
738335.44450701086316257715,-2.6095360169276,3.69273964659566,343.560187587105
738335.44450710120145231485,-2.65877254554888,3.60657572150843,343.57249671926
738335.44450719165615737438,-2.68339080985951,3.60657572150843,343.560187587105
738335.44450728211086243391,-2.65877254554888,3.61888485366375,343.597114983571
738335.44450737256556749344,-2.6095360169276,3.68043051444034,343.54787845495
738335.44450746302027255297,-2.67108167770419,3.63119398581907,343.510951058484
738335.44450755347497761250,-2.65877254554888,3.64350311797438,343.560187587105
738335.44450764381326735020,-2.65877254554888,3.63119398581907,343.597114983571
738335.44450773426797240973,-2.67108167770419,3.63119398581907,343.560187587105
738335.44450782472267746925,-2.65877254554888,3.63119398581907,343.54787845495
738335.44450791517738252878,-2.64646341339356,3.63119398581907,343.535569322794
738335.44450800563208758831,-2.65877254554888,3.63119398581907,343.54787845495
738335.44450809608679264784,-2.72031820632547,3.56964832504247,343.57249671926
738335.44450818642508238554,-2.65877254554888,3.63119398581907,343.424787133396
738335.44450827687978744507,-2.56029948830632,3.7173579109063,343.412478001241
738335.44450836733449250460,-2.69569994201483,3.59426658935311,343.57249671926
738335.44450845778919756413,-2.68339080985951,3.59426658935311,343.584805851416
738335.44450854824390262365,-2.62184514908292,3.6558122501297,343.510951058484
738335.44450863869860768318,-2.64646341339356,3.63119398581907,343.560187587105
738335.44450872915331274271,-2.65877254554888,3.61888485366375,343.584805851416
738335.44450881949160248041,-2.65877254554888,3.60657572150843,343.498641926328
738335.44450890994630753994,-2.65877254554888,3.61888485366375,343.597114983571
738335.44450900040101259947,-2.65877254554888,3.61888485366375,343.449405397707
738335.44450909085571765900,-2.65877254554888,3.63119398581907,343.449405397707
738335.44450918131042271852,-2.63415428123824,3.6558122501297,343.437096265552
738335.44450927176512777805,-2.59722688477228,3.68043051444034,343.424787133396
738335.44450936210341751575,-2.51106295968505,3.76659443952757,343.449405397707
738335.44450945255812257528,-2.62184514908292,3.6558122501297,343.424787133396
738335.44450954301282763481,-2.59722688477228,3.69273964659566,343.437096265552
738335.44450963346753269434,-2.62184514908292,3.68043051444034,343.437096265552
738335.44450972392223775387,-2.64646341339356,3.66812138228502,343.523260190639
738335.44450981437694281340,-2.64646341339356,3.6558122501297,343.510951058484
738335.44450990471523255110,-2.65877254554888,3.61888485366375,343.54787845495
738335.44450999516993761063,-2.67108167770419,3.60657572150843,343.54787845495
738335.44451008562464267015,-2.68339080985951,3.59426658935311,343.474023662018
738335.44451017607934772968,-2.69569994201483,3.58195745719779,343.597114983571
738335.44451026653405278921,-2.69569994201483,3.59426658935311,343.498641926328
738335.44451035698875784874,-2.67108167770419,3.61888485366375,343.523260190639
738335.44451044732704758644,-2.68339080985951,3.59426658935311,343.449405397707
738335.44451053778175264597,-2.70800907417015,3.55733919288715,343.449405397707
738335.44451062823645770550,-2.69569994201483,3.58195745719779,343.54787845495
738335.44451071869116276503,-2.69569994201483,3.54503006073183,343.486332794173
738335.44451080914586782455,-2.8680277921893,3.29884741762546,343.523260190639
738335.44451089960057288408,-2.79417299925738,3.44655700348928,343.621733247881
738335.44451098993886262178,-2.3510442416659,4.06201361125523,343.646351512192
738335.44451108039356768131,-1.60018718019145,4.91134372997223,343.350932340465
738335.44451117084827274084,-1.15705842259997,5.58834599851477,343.17860449029
738335.44451126130297780037,-1.25553147984252,5.64989165929136,343.055513168737
738335.44451135175768285990,-2.04331593778293,4.84979806919563,343.252459283222
738335.44451144221238791943,-2.72031820632547,3.58195745719779,343.301695811843
738335.44451153255067765713,-2.99111911374248,3.20037436038291,343.461714529862
738335.44451162300538271666,-2.91726432081057,3.32346568193609,343.461714529862
738335.44451171346008777618,-2.8064821314127,3.43424787133396,343.437096265552
738335.44451180391479283571,-2.72031820632547,3.55733919288715,343.38785973693
738335.44451189436949789524,-2.56029948830632,3.70504877875098,343.560187587105
738335.44451198482420295477,-2.62184514908292,3.64350311797438,343.535569322794
738335.44451207516249269247,-2.63415428123824,3.63119398581907,343.486332794173
738335.44451216561719775200,-2.62184514908292,3.6558122501297,343.535569322794
738335.44451225607190281153,-2.6095360169276,3.66812138228502,343.57249671926
738335.44451234652660787106,-2.58491775261696,3.69273964659566,343.474023662018
738335.44451243698131293058,-2.59722688477228,3.68043051444034,343.510951058484
738335.44451252743601799011,-2.53568122399569,3.74197617521694,343.535569322794
738335.44451261777430772781,-2.57260862046164,3.70504877875098,343.437096265552
738335.44451270822901278734,-2.54799035615101,3.74197617521694,343.523260190639
738335.44451279868371784687,-2.52337209184037,3.76659443952757,343.535569322794
738335.44451288913842290640,-2.46182643106377,3.84044923245949,343.498641926328
738335.44451297959312796593,-2.51106295968505,3.76659443952757,343.486332794173
738335.44451307004783302546,-2.49875382752973,3.79121270383821,343.498641926328
738335.44451316038612276316,-2.47413556321909,3.81583096814885,343.498641926328
738335.44451325084082782269,-2.44951729890845,3.86506749677012,343.510951058484
738335.44451334129553288221,-2.37566250597654,3.92661315754672,343.474023662018
738335.44451343175023794174,-2.38797163813186,3.92661315754672,343.510951058484
738335.44451352220494300127,-2.31411684519995,4.02508621478927,343.486332794173
738335.44451361265964806080,-2.27718944873399,4.06201361125523,343.400168869086
738335.44451370299793779850,-2.24026205226803,4.1112501398765,343.375550604775
738335.44451379345264285803,-2.19102552364676,4.19741406496373,343.400168869086
738335.44451388390734791756,-2.11717073071485,4.25895972574033,343.412478001241
738335.44451397436205297709,-2.08024333424889,4.29588712220628,343.412478001241
738335.44451406481675803661,-2.00638854131698,4.39436017944884,343.424787133396
738335.44451415527146309614,-2.00638854131698,4.39436017944884,343.289386679688
738335.44451424560975283384,-2.04331593778293,4.33281451867224,343.264768415377
738335.44451433606445789337,-2.08024333424889,4.28357799005097,343.301695811843
738335.44451442651916295290,-2.22795292011272,4.09894100772118,343.350932340465
738335.44451451697386801243,-2.33873510951058,3.97584968616799,343.375550604775
738335.44451460742857307196,-2.43720816675314,3.84044923245949,343.461714529862
738335.44451469788327813148,-2.51106295968505,3.74197617521694,343.437096265552
738335.44451478822156786919,-2.56029948830632,3.68043051444034,343.510951058484
738335.44451487867627292871,-2.58491775261696,3.64350311797438,343.412478001241
738335.44451496913097798824,-2.58491775261696,3.64350311797438,343.424787133396
738335.44451505958568304777,-2.65877254554888,3.59426658935311,343.486332794173
738335.44451515004038810730,-2.58491775261696,3.6558122501297,343.474023662018
738335.44451524049509316683,-2.64646341339356,3.60657572150843,343.461714529862
738335.44451533083338290453,-2.65877254554888,3.58195745719779,343.375550604775
738335.44451542128808796406,-2.62184514908292,3.63119398581907,343.54787845495
738335.44451551174279302359,-2.67108167770419,3.56964832504247,343.54787845495
738335.44451560219749808311,-2.65877254554888,3.58195745719779,343.54787845495
738335.44451569265220314264,-2.64646341339356,3.59426658935311,343.535569322794
738335.44451578310690820217,-2.64646341339356,3.59426658935311,343.510951058484
738335.44451587344519793987,-2.64646341339356,3.60657572150843,343.486332794173
738335.44451596389990299940,-2.65877254554888,3.59426658935311,343.486332794173
738335.44451605435460805893,-2.68339080985951,3.54503006073183,343.54787845495
738335.44451614480931311846,-2.59722688477228,3.63119398581907,343.54787845495
738335.44451623526401817799,-2.63415428123824,3.61888485366375,343.57249671926
738335.44451632571872323751,-2.63415428123824,3.60657572150843,343.523260190639
738335.44451641605701297522,-2.65877254554888,3.58195745719779,343.57249671926
738335.44451650651171803474,-2.64646341339356,3.59426658935311,343.560187587105
738335.44451659696642309427,-2.65877254554888,3.59426658935311,343.54787845495
738335.44451668742112815380,-2.6095360169276,3.63119398581907,343.535569322794
738335.44451677787583321333,-2.63415428123824,3.60657572150843,343.560187587105
738335.44451686833053827286,-2.64646341339356,3.59426658935311,343.560187587105
738335.44451695866882801056,-2.63415428123824,3.60657572150843,343.523260190639
738335.44451704912353307009,-2.65877254554888,3.58195745719779,343.584805851416
738335.44451713957823812962,-2.64646341339356,3.59426658935311,343.597114983571
738335.44451723003294318914,-2.62184514908292,3.63119398581907,343.560187587105
738335.44451732048764824867,-2.65877254554888,3.56964832504247,343.523260190639
738335.44451741094235330820,-2.65877254554888,3.56964832504247,343.560187587105
738335.44451750128064304590,-2.65877254554888,3.58195745719779,343.560187587105
738335.44451759173534810543,-2.65877254554888,3.56964832504247,343.486332794173
738335.44451768219005316496,-2.65877254554888,3.58195745719779,343.57249671926
738335.44451777264475822449,-2.65877254554888,3.58195745719779,343.474023662018
738335.44451786309946328402,-2.65877254554888,3.58195745719779,343.474023662018
738335.44451795355416834354,-2.65877254554888,3.58195745719779,343.523260190639
738335.44451804400887340307,-2.67108167770419,3.55733919288715,343.486332794173
738335.44451813434716314077,-2.68339080985951,3.55733919288715,343.498641926328
738335.44451822480186820030,-2.64646341339356,3.59426658935311,343.498641926328
738335.44451831525657325983,-2.65877254554888,3.58195745719779,343.486332794173
738335.44451840571127831936,-2.67108167770419,3.56964832504247,343.510951058484
738335.44451849616598337889,-2.65877254554888,3.56964832504247,343.535569322794
738335.44451858662068843842,-2.67108167770419,3.56964832504247,343.510951058484
738335.44451867695897817612,-2.67108167770419,3.56964832504247,343.535569322794
738335.44451876741368323565,-2.67108167770419,3.56964832504247,343.437096265552
738335.44451885786838829517,-2.68339080985951,3.54503006073183,343.36324147262
738335.44451894832309335470,-2.65877254554888,3.58195745719779,343.535569322794
738335.44451903877779841423,-2.64646341339356,3.58195745719779,343.510951058484
738335.44451912923250347376,-2.68339080985951,3.55733919288715,343.486332794173
738335.44451921957079321146,-2.69569994201483,3.53272092857652,343.584805851416
738335.44451931002549827099,-2.64646341339356,3.58195745719779,343.560187587105
738335.44451940048020333052,-2.67108167770419,3.55733919288715,343.486332794173
738335.44451949093490839005,-2.67108167770419,3.56964832504247,343.57249671926
738335.44451958138961344957,-2.67108167770419,3.55733919288715,343.461714529862
738335.44451967184431850910,-2.65877254554888,3.56964832504247,343.510951058484
738335.44451976218260824680,-2.65877254554888,3.56964832504247,343.560187587105
738335.44451985263731330633,-2.69569994201483,3.53272092857652,343.510951058484
738335.44451994309201836586,-2.68339080985951,3.55733919288715,343.510951058484
738335.44452003354672342539,-2.59722688477228,3.64350311797438,343.54787845495
738335.44452012400142848492,-2.69569994201483,3.53272092857652,343.560187587105
738335.44452021445613354445,-2.69569994201483,3.5204117964212,343.523260190639
738335.44452030479442328215,-2.65877254554888,3.56964832504247,343.523260190639
738335.44452039524912834167,-2.69569994201483,3.53272092857652,343.560187587105
738335.44452048570383340120,-2.70800907417015,3.54503006073183,343.57249671926
738335.44452057615853846073,-2.67108167770419,3.55733919288715,343.535569322794
738335.44452066661324352026,-2.67108167770419,3.58195745719779,343.510951058484
738335.44452075706794857979,-2.65877254554888,3.55733919288715,343.57249671926
738335.44452084740623831749,-2.53568122399569,3.66812138228502,343.584805851416
738335.44452093786094337702,-2.65877254554888,3.55733919288715,343.498641926328
738335.44452102831564843655,-2.67108167770419,3.55733919288715,343.54787845495
738335.44452111877035349607,-2.57260862046164,3.64350311797438,343.57249671926
738335.44452120922505855560,-2.59722688477228,3.61888485366375,343.584805851416
738335.44452129967976361513,-2.57260862046164,3.64350311797438,343.523260190639
738335.44452139001805335283,-2.56029948830632,3.6558122501297,343.57249671926
738335.44452148047275841236,-2.54799035615101,3.66812138228502,343.560187587105
738335.44452157092746347189,-2.62184514908292,3.61888485366375,343.535569322794
738335.44452166138216853142,-2.62184514908292,3.63119398581907,343.609424115726
738335.44452175183687359095,-2.58491775261696,3.66812138228502,343.597114983571
738335.44452184229157865047,-2.6095360169276,3.59426658935311,343.486332794173
738335.44452193262986838818,-2.68339080985951,3.53272092857652,343.57249671926
738335.44452202308457344770,-2.68339080985951,3.54503006073183,343.584805851416
738335.44452211353927850723,-2.62184514908292,3.61888485366375,343.560187587105
738335.44452220399398356676,-2.65877254554888,3.56964832504247,343.584805851416
738335.44452229444868862629,-2.68339080985951,3.54503006073183,343.57249671926
738335.44452238490339368582,-2.73262733848079,3.50810266426588,343.350932340465
738335.44452247524168342352,-2.52337209184037,3.69273964659566,343.486332794173
738335.44452256569638848305,-2.64646341339356,3.56964832504247,343.424787133396
738335.44452265615109354258,-2.68339080985951,3.5204117964212,343.437096265552
738335.44452274660579860210,-2.78186386710206,3.33577481409141,343.535569322794
738335.44452283706050366163,-2.85571866003398,3.2619200211595,343.560187587105
738335.44452292751520872116,-2.53568122399569,3.76659443952757,343.609424115726
738335.44452301785349845886,-1.72327850174464,4.72670674764244,343.36324147262
738335.44452310830820351839,-1.25553147984252,5.39139988402966,343.129367961669
738335.44452319876290857792,-1.37862280139571,5.58834599851477,343.129367961669
738335.44452328921761363745,-2.11717073071485,4.70208848333181,343.252459283222
738335.44452337967231869698,-2.76955473494675,3.44655700348928,343.314004943999
738335.44452347012702375650,-2.91726432081057,3.22499262469354,343.449405397707
738335.44452356046531349421,-2.81879126356802,3.37270221055737,343.523260190639
738335.44452365092001855373,-2.68339080985951,3.49579353211056,343.510951058484
738335.44452374137472361326,-2.6095360169276,3.59426658935311,343.498641926328
738335.44452383182942867279,-2.59722688477228,3.60657572150843,343.510951058484
738335.44452392228413373232,-2.59722688477228,3.63119398581907,343.461714529862
738335.44452401273883879185,-2.59722688477228,3.61888485366375,343.474023662018
738335.44452410307712852955,-2.42489903459782,3.75428530737225,343.424787133396
738335.44452419353183358908,-2.51106295968505,3.68043051444034,343.437096265552
738335.44452428398653864861,-2.58491775261696,3.64350311797438,343.449405397707
738335.44452437444124370813,-2.52337209184037,3.66812138228502,343.400168869086
738335.44452446489594876766,-2.48644469537441,3.70504877875098,343.486332794173
738335.44452455535065382719,-2.48644469537441,3.7173579109063,343.437096265552
738335.44452464568894356489,-2.47413556321909,3.74197617521694,343.523260190639
738335.44452473614364862442,-2.46182643106377,3.75428530737225,343.54787845495
738335.44452482659835368395,-2.44951729890845,3.77890357168289,343.498641926328
738335.44452491705305874348,-2.42489903459782,3.80352183599353,343.560187587105
738335.44452500750776380301,-2.4125899024425,3.84044923245949,343.584805851416
738335.44452509796246886253,-2.38797163813186,3.85275836461481,343.474023662018
738335.44452518830075860023,-2.37566250597654,3.87737662892544,343.510951058484
738335.44452527875546365976,-2.40028077028718,3.86506749677012,343.535569322794
738335.44452536921016871929,-2.26488031657867,4.01277708263395,343.486332794173
738335.44452545966487377882,-2.25257118442335,4.02508621478927,343.535569322794
738335.44452555011957883835,-2.24026205226803,4.04970447909991,343.498641926328
738335.44452564057428389788,-2.19102552364676,4.1112501398765,343.461714529862
738335.44452573091257363558,-2.10486159855953,4.19741406496373,343.474023662018
738335.44452582136727869511,-2.06793420209357,4.25895972574033,343.264768415377
738335.44452591182198375463,-2.00638854131698,4.32050538651692,343.38785973693
738335.44452600227668881416,-1.96946114485102,4.39436017944884,343.412478001241
738335.44452609273139387369,-1.9571520126957,4.40666931160415,343.474023662018
738335.44452618318609893322,-1.94484288054038,4.40666931160415,343.474023662018
738335.44452627352438867092,-2.00638854131698,4.32050538651692,343.400168869086
738335.44452636397909373045,-2.11717073071485,4.1727958006531,343.350932340465
738335.44452645443379878998,-2.25257118442335,4.00046795047863,343.350932340465
738335.44452654488850384951,-2.33873510951058,3.88968576108076,343.424787133396
738335.44452663534320890903,-2.42489903459782,3.79121270383821,343.424787133396
738335.44452672579791396856,-2.49875382752973,3.7173579109063,343.461714529862
738335.44452681613620370626,-2.53568122399569,3.6558122501297,343.474023662018
738335.44452690659090876579,-2.57260862046164,3.61888485366375,343.57249671926
738335.44452699704561382532,-2.52337209184037,3.64350311797438,343.461714529862
738335.44452708750031888485,-2.58491775261696,3.59426658935311,343.498641926328
738335.44452717795502394438,-2.58491775261696,3.59426658935311,343.57249671926
738335.44452726840972900391,-2.58491775261696,3.60657572150843,343.523260190639
738335.44452735886443406343,-2.58491775261696,3.59426658935311,343.523260190639
738335.44452744920272380114,-2.59722688477228,3.58195745719779,343.57249671926
738335.44452753965742886066,-2.58491775261696,3.58195745719779,343.597114983571
738335.44452763011213392019,-2.58491775261696,3.59426658935311,343.449405397707
738335.44452772056683897972,-2.6095360169276,3.59426658935311,343.54787845495
738335.44452781102154403925,-2.59722688477228,3.59426658935311,343.560187587105
738335.44452790147624909878,-2.59722688477228,3.59426658935311,343.498641926328
738335.44452799181453883648,-2.59722688477228,3.60657572150843,343.474023662018
738335.44452808226924389601,-2.59722688477228,3.59426658935311,343.510951058484
738335.44452817272394895554,-2.6095360169276,3.58195745719779,343.486332794173
738335.44452826317865401506,-2.6095360169276,3.58195745719779,343.523260190639
738335.44452835363335907459,-2.58491775261696,3.60657572150843,343.523260190639
738335.44452844408806413412,-2.64646341339356,3.54503006073183,343.560187587105
738335.44452853442635387182,-2.59722688477228,3.59426658935311,343.560187587105
738335.44452862488105893135,-2.56029948830632,3.63119398581907,343.461714529862
738335.44452871533576399088,-2.64646341339356,3.54503006073183,343.486332794173
738335.44452880579046905041,-2.62184514908292,3.55733919288715,343.54787845495
738335.44452889624517410994,-2.62184514908292,3.56964832504247,343.54787845495
738335.44452898669987916946,-2.62184514908292,3.56964832504247,343.54787845495
738335.44452907703816890717,-2.6095360169276,3.56964832504247,343.510951058484
738335.44452916749287396669,-2.63415428123824,3.55733919288715,343.474023662018
738335.44452925794757902622,-2.63415428123824,3.55733919288715,343.461714529862
738335.44452934840228408575,-2.64646341339356,3.54503006073183,343.277077547533
738335.44452943885698914528,-2.62184514908292,3.56964832504247,343.375550604775
738335.44452952931169420481,-2.63415428123824,3.54503006073183,343.486332794173
738335.44452961964998394251,-2.63415428123824,3.54503006073183,343.54787845495
738335.44452971010468900204,-2.64646341339356,3.54503006073183,343.584805851416
738335.44452980055939406157,-2.64646341339356,3.53272092857652,343.523260190639
738335.44452989101409912109,-2.63415428123824,3.54503006073183,343.584805851416
738335.44452998146880418062,-2.64646341339356,3.5204117964212,343.57249671926
738335.44453007192350924015,-2.64646341339356,3.53272092857652,343.523260190639
738335.44453016226179897785,-2.65877254554888,3.5204117964212,343.54787845495
738335.44453025271650403738,-2.63415428123824,3.55733919288715,343.54787845495
738335.44453034317120909691,-2.67108167770419,3.50810266426588,343.535569322794
738335.44453043362591415644,-2.65877254554888,3.53272092857652,343.54787845495
738335.44453052408061921597,-2.67108167770419,3.5204117964212,343.54787845495
738335.44453061453532427549,-2.64646341339356,3.53272092857652,343.57249671926
738335.44453070487361401320,-2.65877254554888,3.5204117964212,343.498641926328
738335.44453079532831907272,-2.67108167770419,3.53272092857652,343.57249671926
738335.44453088578302413225,-2.65877254554888,3.53272092857652,343.597114983571
738335.44453097623772919178,-2.67108167770419,3.53272092857652,343.474023662018
738335.44453106669243425131,-2.67108167770419,3.5204117964212,343.535569322794
738335.44453115714713931084,-2.67108167770419,3.5204117964212,343.474023662018
738335.44453124748542904854,-2.67108167770419,3.5204117964212,343.584805851416
738335.44453133794013410807,-2.65877254554888,3.53272092857652,343.461714529862
738335.44453142839483916759,-2.67108167770419,3.5204117964212,343.449405397707
738335.44453151884954422712,-2.67108167770419,3.5204117964212,343.449405397707
738335.44453160930424928665,-2.67108167770419,3.5204117964212,343.535569322794
738335.44453169975895434618,-2.67108167770419,3.5204117964212,343.498641926328
738335.44453179009724408388,-2.67108167770419,3.5204117964212,343.424787133396
738335.44453188055194914341,-2.68339080985951,3.5204117964212,343.424787133396
738335.44453197100665420294,-2.67108167770419,3.5204117964212,343.474023662018
738335.44453206146135926247,-2.68339080985951,3.5204117964212,343.498641926328
738335.44453215191606432199,-2.68339080985951,3.49579353211056,343.498641926328
738335.44453224237076938152,-2.68339080985951,3.50810266426588,343.523260190639
738335.44453233270905911922,-2.68339080985951,3.5204117964212,343.523260190639
738335.44453242316376417875,-2.67108167770419,3.5204117964212,343.498641926328
738335.44453251361846923828,-2.69569994201483,3.50810266426588,343.560187587105
738335.44453260407317429781,-2.68339080985951,3.53272092857652,343.523260190639
738335.44453269452787935734,-2.70800907417015,3.49579353211056,343.474023662018
738335.44453278498258441687,-2.69569994201483,3.50810266426588,343.54787845495
738335.44453287532087415457,-2.69569994201483,3.50810266426588,343.36324147262
738335.44453296577557921410,-2.68339080985951,3.53272092857652,343.350932340465
738335.44453305623028427362,-2.64646341339356,3.55733919288715,343.510951058484
738335.44453314668498933315,-2.63415428123824,3.56964832504247,343.560187587105
738335.44453323713969439268,-2.62184514908292,3.59426658935311,343.510951058484
738335.44453332759439945221,-2.63415428123824,3.56964832504247,343.498641926328
738335.44453341793268918991,-2.64646341339356,3.56964832504247,343.523260190639
738335.44453350838739424944,-2.64646341339356,3.58195745719779,343.560187587105
738335.44453359884209930897,-2.67108167770419,3.59426658935311,343.560187587105
738335.44453368929680436850,-2.68339080985951,3.55733919288715,343.474023662018
738335.44453377975150942802,-2.69569994201483,3.5204117964212,343.523260190639
738335.44453387020621448755,-2.72031820632547,3.49579353211056,343.510951058484
738335.44453396054450422525,-2.73262733848079,3.49579353211056,343.57249671926
738335.44453405099920928478,-2.73262733848079,3.49579353211056,343.461714529862
738335.44453414145391434431,-2.73262733848079,3.48348439995524,343.54787845495
738335.44453423190861940384,-2.73262733848079,3.48348439995524,343.54787845495
738335.44453432236332446337,-2.74493647063611,3.50810266426588,343.461714529862
738335.44453441281802952290,-2.73262733848079,3.49579353211056,343.523260190639
738335.44453450315631926060,-2.73262733848079,3.49579353211056,343.449405397707
738335.44453459361102432013,-2.76955473494675,3.4588661356446,343.412478001241
738335.44453468406572937965,-2.8680277921893,3.24961088900418,343.449405397707
738335.44453477452043443918,-2.85571866003398,3.28653828547014,343.510951058484
738335.44453486497513949871,-2.54799035615101,3.80352183599353,343.535569322794
738335.44453495542984455824,-1.82175155898719,4.65285195471053,343.36324147262
738335.44453504576813429594,-1.29245887630848,5.4160181483403,343.067822300892
738335.44453513622283935547,-1.58787804803613,5.4160181483403,343.117058829513
738335.44453522667754441500,-2.37566250597654,4.33281451867224,343.227841018911
738335.44453531713224947453,-2.92957345296589,3.22499262469354,343.240150151067
738335.44453540758695453405,-3.04035564236376,3.10190130314035,343.38785973693
738335.44453549804165959358,-2.97880998158717,3.20037436038291,343.424787133396
738335.44453558837994933128,-2.8680277921893,3.34808394624673,343.498641926328
738335.44453567883465439081,-2.76955473494675,3.47117526779992,343.498641926328
738335.44453576928935945034,-2.72031820632547,3.53272092857652,343.510951058484
738335.44453585974406450987,-2.75724560279143,3.49579353211056,343.510951058484
738335.44453595019876956940,-2.59722688477228,3.6558122501297,343.510951058484
738335.44453604065347462893,-2.67108167770419,3.58195745719779,343.424787133396
738335.44453613099176436663,-2.68339080985951,3.55733919288715,343.400168869086
738335.44453622144646942616,-2.67108167770419,3.59426658935311,343.437096265552
738335.44453631190117448568,-2.65877254554888,3.60657572150843,343.486332794173
738335.44453640235587954521,-2.63415428123824,3.63119398581907,343.338623208309
738335.44453649281058460474,-2.63415428123824,3.61888485366375,343.314004943999
738335.44453658326528966427,-2.64646341339356,3.60657572150843,343.486332794173
738335.44453667371999472380,-2.62184514908292,3.6558122501297,343.523260190639
738335.44453676405828446150,-2.53568122399569,3.72966704306162,343.498641926328
738335.44453685451298952103,-2.56029948830632,3.7173579109063,343.461714529862
738335.44453694496769458055,-2.57260862046164,3.72966704306162,343.486332794173
738335.44453703542239964008,-2.53568122399569,3.76659443952757,343.412478001241
738335.44453712587710469961,-2.51106295968505,3.80352183599353,343.400168869086
738335.44453721633180975914,-2.49875382752973,3.81583096814885,343.461714529862
738335.44453730667009949684,-2.46182643106377,3.86506749677012,343.449405397707
738335.44453739712480455637,-2.42489903459782,3.9143040253914,343.523260190639
738335.44453748757950961590,-2.37566250597654,3.97584968616799,343.461714529862
738335.44453757803421467543,-2.33873510951058,4.02508621478927,343.424787133396
738335.44453766848891973495,-2.28949858088931,4.09894100772118,343.486332794173
738335.44453775894362479448,-2.24026205226803,4.16048666849778,343.474023662018
738335.44453784928191453218,-2.25257118442335,4.16048666849778,343.474023662018
738335.44453793973661959171,-2.10486159855953,4.29588712220628,343.375550604775
738335.44453803019132465124,-2.14178899502548,4.28357799005097,343.437096265552
738335.44453812064602971077,-2.12947986287016,4.28357799005097,343.437096265552
738335.44453821110073477030,-2.20333465580208,4.19741406496373,343.375550604775
738335.44453830155543982983,-2.31411684519995,4.04970447909991,343.486332794173
738335.44453839189372956753,-2.42489903459782,3.9143040253914,343.474023662018
738335.44453848234843462706,-2.53568122399569,3.76659443952757,343.412478001241
738335.44453857280313968658,-2.6095360169276,3.69273964659566,343.498641926328
738335.44453866325784474611,-2.67108167770419,3.61888485366375,343.523260190639
738335.44453875371254980564,-2.70800907417015,3.59426658935311,343.449405397707
738335.44453884416725486517,-2.74493647063611,3.55733919288715,343.523260190639
738335.44453893450554460287,-2.74493647063611,3.55733919288715,343.54787845495
738335.44453902496024966240,-2.76955473494675,3.54503006073183,343.54787845495
738335.44453911541495472193,-2.78186386710206,3.54503006073183,343.449405397707
738335.44453920586965978146,-2.75724560279143,3.53272092857652,343.535569322794
738335.44453929632436484098,-2.81879126356802,3.48348439995524,343.474023662018
738335.44453938677906990051,-2.79417299925738,3.53272092857652,343.461714529862
738335.44453947711735963821,-2.75724560279143,3.56964832504247,343.449405397707
738335.44453956757206469774,-2.79417299925738,3.54503006073183,343.424787133396
738335.44453965802676975727,-2.79417299925738,3.54503006073183,343.400168869086
738335.44453974848147481680,-2.8064821314127,3.53272092857652,343.437096265552
738335.44453983893617987633,-2.8064821314127,3.54503006073183,343.424787133396
738335.44453992939088493586,-2.8064821314127,3.54503006073183,343.338623208309
738335.44454001972917467356,-2.79417299925738,3.54503006073183,343.375550604775
738335.44454011018387973309,-2.79417299925738,3.55733919288715,343.474023662018
738335.44454020063858479261,-2.8064821314127,3.53272092857652,343.523260190639
738335.44454029109328985214,-2.8064821314127,3.54503006073183,343.57249671926
738335.44454038154799491167,-2.8064821314127,3.53272092857652,343.424787133396
738335.44454047200269997120,-2.8064821314127,3.53272092857652,343.486332794173
738335.44454056234098970890,-2.8064821314127,3.54503006073183,343.486332794173
738335.44454065279569476843,-2.8064821314127,3.54503006073183,343.461714529862
738335.44454074325039982796,-2.8064821314127,3.54503006073183,343.474023662018
738335.44454083370510488749,-2.81879126356802,3.53272092857652,343.54787845495
738335.44454092415980994701,-2.79417299925738,3.55733919288715,343.54787845495
738335.44454101461451500654,-2.81879126356802,3.54503006073183,343.523260190639
738335.44454110495280474424,-2.81879126356802,3.54503006073183,343.474023662018
738335.44454119540750980377,-2.83110039572334,3.53272092857652,343.510951058484
738335.44454128586221486330,-2.83110039572334,3.54503006073183,343.498641926328
738335.44454137631691992283,-2.83110039572334,3.53272092857652,343.54787845495
738335.44454146677162498236,-2.83110039572334,3.53272092857652,343.57249671926
738335.44454155722633004189,-2.83110039572334,3.53272092857652,343.449405397707
738335.44454164756461977959,-2.83110039572334,3.53272092857652,343.560187587105
738335.44454173801932483912,-2.83110039572334,3.5204117964212,343.54787845495
738335.44454182847402989864,-2.85571866003398,3.50810266426588,343.523260190639
738335.44454191892873495817,-2.84340952787866,3.50810266426588,343.560187587105
738335.44454200938344001770,-2.84340952787866,3.5204117964212,343.597114983571
738335.44454209983814507723,-2.90495518865525,3.4588661356446,343.57249671926
738335.44454219017643481493,-2.79417299925738,3.56964832504247,343.498641926328
738335.44454228063113987446,-2.8064821314127,3.55733919288715,343.560187587105
738335.44454237108584493399,-2.8680277921893,3.49579353211056,343.560187587105
738335.44454246154054999352,-2.85571866003398,3.49579353211056,343.584805851416
738335.44454255199525505304,-2.85571866003398,3.49579353211056,343.510951058484
738335.44454264244996011257,-2.84340952787866,3.50810266426588,343.535569322794
738335.44454273278824985027,-2.88033692434461,3.47117526779992,343.461714529862
738335.44454282324295490980,-2.90495518865525,3.44655700348928,343.498641926328
738335.44454291369765996933,-2.85571866003398,3.49579353211056,343.486332794173
738335.44454300415236502886,-2.63415428123824,3.70504877875098,343.461714529862
738335.44454309460707008839,-2.8680277921893,3.49579353211056,343.486332794173
738335.44454318506177514791,-2.85571866003398,3.48348439995524,343.474023662018
738335.44454327540006488562,-2.83110039572334,3.5204117964212,343.486332794173
738335.44454336585476994514,-2.79417299925738,3.55733919288715,343.510951058484
738335.44454345630947500467,-2.83110039572334,3.50810266426588,343.449405397707
738335.44454354676418006420,-2.85571866003398,3.48348439995524,343.36324147262
738335.44454363721888512373,-2.83110039572334,3.5204117964212,343.498641926328
738335.44454372767359018326,-2.78186386710206,3.55733919288715,343.510951058484
738335.44454381801187992096,-2.8064821314127,3.53272092857652,343.54787845495
738335.44454390846658498049,-2.8064821314127,3.53272092857652,343.560187587105
738335.44454399892129004002,-2.83110039572334,3.50810266426588,343.449405397707
738335.44454408937599509954,-2.76955473494675,3.56964832504247,343.57249671926
738335.44454417983070015907,-2.70800907417015,3.61888485366375,343.523260190639
738335.44454427028540521860,-2.74493647063611,3.56964832504247,343.461714529862
738335.44454436062369495630,-2.79417299925738,3.5204117964212,343.510951058484
738335.44454445107840001583,-2.79417299925738,3.55733919288715,343.498641926328
738335.44454454153310507536,-2.68339080985951,3.68043051444034,343.523260190639
738335.44454463198781013489,-2.79417299925738,3.58195745719779,343.449405397707
738335.44454472244251519442,-2.73262733848079,3.61888485366375,343.461714529862
738335.44454481289722025394,-2.84340952787866,3.48348439995524,343.474023662018
738335.44454490323550999165,-2.83110039572334,3.49579353211056,343.461714529862
738335.44454499369021505117,-2.83110039572334,3.49579353211056,343.449405397707
738335.44454508414492011070,-2.84340952787866,3.48348439995524,343.449405397707
738335.44454517459962517023,-2.8064821314127,3.5204117964212,343.486332794173
738335.44454526505433022976,-2.90495518865525,3.40962960702333,343.474023662018
738335.44454535550903528929,-2.72031820632547,3.59426658935311,343.449405397707
738335.44454544584732502699,-2.76955473494675,3.53272092857652,343.523260190639
738335.44454553630203008652,-2.83110039572334,3.49579353211056,343.560187587105
738335.44454562675673514605,-2.89264605649993,3.38501134271269,343.474023662018
738335.44454571721144020557,-2.97880998158717,3.22499262469354,343.474023662018
738335.44454580766614526510,-2.92957345296589,3.36039307840205,343.54787845495
738335.44454589812085032463,-2.3510442416659,4.09894100772118,343.597114983571
738335.44454598845914006233,-1.67404197312337,4.84979806919563,343.314004943999
738335.44454607891384512186,-1.28014974415316,5.4775638091169,343.129367961669
738335.44454616936855018139,-1.88329721976379,5.09598071230201,343.227841018911
738335.44454625982325524092,-2.67108167770419,3.88968576108076,343.36324147262
738335.44454635027796030045,-3.02804651020844,3.15113783176163,343.400168869086
738335.44454644073266535997,-3.0649739066744,3.16344696391695,343.36324147262
738335.44454653118737041950,-3.02804651020844,3.23730175684886,343.510951058484
738335.44454662152566015720,-2.92957345296589,3.34808394624673,343.54787845495
738335.44454671198036521673,-2.73262733848079,3.55733919288715,343.510951058484
738335.44454680243507027626,-2.70800907417015,3.59426658935311,343.535569322794
738335.44454689288977533579,-2.79417299925738,3.49579353211056,343.54787845495
738335.44454698334448039532,-2.6095360169276,3.69273964659566,343.474023662018
738335.44454707379918545485,-2.72031820632547,3.56964832504247,343.326314076154
738335.44454716413747519255,-2.70800907417015,3.59426658935311,343.510951058484
738335.44454725459218025208,-2.69569994201483,3.60657572150843,343.535569322794
738335.44454734504688531160,-2.62184514908292,3.68043051444034,343.412478001241
738335.44454743550159037113,-2.64646341339356,3.6558122501297,343.523260190639
738335.44454752595629543066,-2.70800907417015,3.60657572150843,343.498641926328
738335.44454761641100049019,-2.53568122399569,3.77890357168289,343.437096265552
738335.44454770674929022789,-2.62184514908292,3.69273964659566,343.449405397707
738335.44454779720399528742,-2.57260862046164,3.75428530737225,343.461714529862
738335.44454788765870034695,-2.58491775261696,3.72966704306162,343.424787133396
738335.44454797811340540648,-2.53568122399569,3.79121270383821,343.412478001241
738335.44454806856811046600,-2.52337209184037,3.77890357168289,343.424787133396
738335.44454815902281552553,-2.47413556321909,3.85275836461481,343.474023662018
738335.44454824936110526323,-2.44951729890845,3.87737662892544,343.437096265552
738335.44454833981581032276,-2.4125899024425,3.93892228970204,343.400168869086
738335.44454843027051538229,-2.38797163813186,3.96354055401268,343.449405397707
738335.44454852072522044182,-2.32642597735527,4.02508621478927,343.437096265552
738335.44454861117992550135,-2.27718944873399,4.09894100772118,343.412478001241
738335.44454870163463056087,-2.22795292011272,4.16048666849778,343.375550604775
738335.44454879197292029858,-2.17871639149144,4.22203232927437,343.437096265552
738335.44454888242762535810,-2.11717073071485,4.29588712220628,343.36324147262
738335.44454897288233041763,-2.08024333424889,4.34512365082756,343.264768415377
738335.44454906333703547716,-2.06793420209357,4.35743278298288,343.338623208309
738335.44454915379174053669,-2.16640725933612,4.24665059358501,343.289386679688
738335.44454924424644559622,-2.17871639149144,4.20972319711905,343.314004943999
738335.44454933458473533392,-2.38797163813186,3.96354055401268,343.338623208309
738335.44454942503944039345,-2.44951729890845,3.87737662892544,343.350932340465
738335.44454951549414545298,-2.54799035615101,3.75428530737225,343.375550604775
738335.44454960594885051250,-2.59722688477228,3.69273964659566,343.400168869086
738335.44454969640355557203,-2.67108167770419,3.60657572150843,343.424787133396
738335.44454978685826063156,-2.69569994201483,3.58195745719779,343.449405397707
738335.44454987719655036926,-2.74493647063611,3.54503006073183,343.449405397707
738335.44454996765125542879,-2.73262733848079,3.54503006073183,343.449405397707
738335.44455005810596048832,-2.72031820632547,3.56964832504247,343.498641926328
738335.44455014856066554785,-2.89264605649993,3.39732047486801,343.535569322794
738335.44455023901537060738,-2.88033692434461,3.40962960702333,343.535569322794
738335.44455032947007566690,-2.42489903459782,3.87737662892544,343.449405397707
738335.44455041980836540461,-2.79417299925738,3.50810266426588,343.54787845495
738335.44455051026307046413,-2.79417299925738,3.50810266426588,343.486332794173
738335.44455060071777552366,-2.75724560279143,3.53272092857652,343.36324147262
738335.44455069117248058319,-2.73262733848079,3.55733919288715,343.486332794173
738335.44455078162718564272,-2.74493647063611,3.55733919288715,343.510951058484
738335.44455087208189070225,-2.73262733848079,3.55733919288715,343.523260190639
738335.44455096242018043995,-2.73262733848079,3.55733919288715,343.461714529862
738335.44455105287488549948,-2.73262733848079,3.56964832504247,343.510951058484
738335.44455114332959055901,-2.75724560279143,3.54503006073183,343.523260190639
738335.44455123378429561853,-2.79417299925738,3.5204117964212,343.498641926328
738335.44455132423900067806,-2.73262733848079,3.58195745719779,343.54787845495
738335.44455141469370573759,-2.75724560279143,3.55733919288715,343.54787845495
738335.44455150503199547529,-2.74493647063611,3.55733919288715,343.498641926328
738335.44455159548670053482,-2.72031820632547,3.58195745719779,343.54787845495
738335.44455168594140559435,-2.75724560279143,3.54503006073183,343.510951058484
738335.44455177639611065388,-2.67108167770419,3.63119398581907,343.510951058484
738335.44455186685081571341,-2.78186386710206,3.53272092857652,343.584805851416
738335.44455195730552077293,-2.75724560279143,3.55733919288715,343.57249671926
738335.44455204764381051064,-2.74493647063611,3.56964832504247,343.560187587105
738335.44455213809851557016,-2.75724560279143,3.55733919288715,343.510951058484
738335.44455222855322062969,-2.8064821314127,3.50810266426588,343.535569322794
738335.44455231900792568922,-2.74493647063611,3.58195745719779,343.560187587105
738335.44455240946263074875,-2.78186386710206,3.54503006073183,343.498641926328
738335.44455249991733580828,-2.8680277921893,3.4588661356446,343.54787845495
738335.44455259025562554598,-2.65877254554888,3.6558122501297,343.461714529862
738335.44455268071033060551,-2.67108167770419,3.64350311797438,343.474023662018
738335.44455277116503566504,-2.81879126356802,3.49579353211056,343.510951058484
738335.44455286161974072456,-2.79417299925738,3.53272092857652,343.474023662018
738335.44455295207444578409,-2.78186386710206,3.54503006073183,343.486332794173
738335.44455304252915084362,-2.78186386710206,3.53272092857652,343.54787845495
738335.44455313286744058132,-2.83110039572334,3.49579353211056,343.486332794173
738335.44455322332214564085,-2.78186386710206,3.54503006073183,343.474023662018
738335.44455331377685070038,-2.72031820632547,3.60657572150843,343.510951058484
738335.44455340423155575991,-2.78186386710206,3.55733919288715,343.474023662018
738335.44455349468626081944,-2.81879126356802,3.5204117964212,343.498641926328
738335.44455358514096587896,-2.85571866003398,3.48348439995524,343.510951058484
738335.44455367547925561666,-2.65877254554888,3.68043051444034,343.523260190639
738335.44455376593396067619,-2.78186386710206,3.54503006073183,343.510951058484
738335.44455385638866573572,-2.81879126356802,3.5204117964212,343.510951058484
738335.44455394684337079525,-2.83110039572334,3.50810266426588,343.510951058484
738335.44455403729807585478,-2.83110039572334,3.50810266426588,343.474023662018
738335.44455412775278091431,-2.73262733848079,3.60657572150843,343.338623208309
738335.44455421809107065201,-2.75724560279143,3.59426658935311,343.584805851416
738335.44455430854577571154,-2.84340952787866,3.5204117964212,343.560187587105
738335.44455439900048077106,-2.84340952787866,3.5204117964212,343.54787845495
738335.44455448945518583059,-2.75724560279143,3.59426658935311,343.57249671926
738335.44455457990989089012,-2.81879126356802,3.53272092857652,343.560187587105
738335.44455467036459594965,-2.83110039572334,3.5204117964212,343.560187587105
738335.44455476070288568735,-2.78186386710206,3.55733919288715,343.535569322794
738335.44455485115759074688,-2.68339080985951,3.66812138228502,343.560187587105
738335.44455494161229580641,-2.90495518865525,3.4588661356446,343.560187587105
738335.44455503206700086594,-2.83110039572334,3.53272092857652,343.498641926328
738335.44455512252170592546,-2.72031820632547,3.63119398581907,343.560187587105
738335.44455521297641098499,-2.74493647063611,3.60657572150843,343.597114983571
738335.44455530331470072269,-2.8064821314127,3.54503006073183,343.449405397707
738335.44455539376940578222,-2.81879126356802,3.54503006073183,343.54787845495
738335.44455548422411084175,-2.79417299925738,3.55733919288715,343.560187587105
738335.44455557467881590128,-2.79417299925738,3.56964832504247,343.535569322794
738335.44455566513352096081,-2.78186386710206,3.58195745719779,343.560187587105
738335.44455575558822602034,-2.83110039572334,3.54503006073183,343.54787845495
738335.44455584604293107986,-2.74493647063611,3.61888485366375,343.54787845495
738335.44455593638122081757,-2.64646341339356,3.70504877875098,343.424787133396
738335.44455602683592587709,-2.76955473494675,3.58195745719779,343.535569322794
738335.44455611729063093662,-2.75724560279143,3.61888485366375,343.535569322794
738335.44455620774533599615,-2.74493647063611,3.6558122501297,343.54787845495
738335.44455629820004105568,-2.79417299925738,3.60657572150843,343.535569322794
738335.44455638865474611521,-2.70800907417015,3.68043051444034,343.474023662018
738335.44455647899303585291,-2.8064821314127,3.55733919288715,343.510951058484
738335.44455656944774091244,-2.8064821314127,3.55733919288715,343.461714529862
738335.44455665990244597197,-2.8680277921893,3.49579353211056,343.461714529862
738335.44455675035715103149,-2.8680277921893,3.49579353211056,343.474023662018
738335.44455684081185609102,-2.65877254554888,3.70504877875098,343.461714529862
738335.44455693126656115055,-2.83110039572334,3.53272092857652,343.461714529862
738335.44455702160485088825,-2.84340952787866,3.50810266426588,343.535569322794
738335.44455711205955594778,-2.8064821314127,3.55733919288715,343.498641926328
738335.44455720251426100731,-2.78186386710206,3.55733919288715,343.510951058484
738335.44455729296896606684,-2.78186386710206,3.50810266426588,343.486332794173
738335.44455738342367112637,-2.99111911374248,3.23730175684886,343.535569322794
738335.44455747387837618589,-2.79417299925738,3.58195745719779,343.634042380037
738335.44455756421666592360,-2.22795292011272,4.29588712220628,343.314004943999
738335.44455765467137098312,-1.83406069114251,4.71439761548713,343.17860449029
738335.44455774512607604265,-1.29245887630848,5.44063641265094,343.067822300892
738335.44455783558078110218,-1.60018718019145,5.4160181483403,343.203222754601
738335.44455792603548616171,-2.4125899024425,4.3697419151382,343.264768415377
738335.44455801649019122124,-2.97880998158717,3.27422915331482,343.338623208309
738335.44455810682848095894,-3.05266477451908,3.21268349253822,343.486332794173
738335.44455819728318601847,-2.95419171727653,3.36039307840205,343.449405397707
738335.44455828773789107800,-2.83110039572334,3.48348439995524,343.510951058484
738335.44455837819259613752,-2.74493647063611,3.56964832504247,343.510951058484
738335.44455846864730119705,-2.74493647063611,3.59426658935311,343.535569322794
738335.44455855910200625658,-2.67108167770419,3.64350311797438,343.461714529862
738335.44455864944029599428,-2.70800907417015,3.61888485366375,343.535569322794
738335.44455873989500105381,-2.65877254554888,3.6558122501297,343.523260190639
738335.44455883034970611334,-2.67108167770419,3.66812138228502,343.461714529862
738335.44455892080441117287,-2.65877254554888,3.69273964659566,343.461714529862
738335.44455901125911623240,-2.64646341339356,3.69273964659566,343.437096265552
738335.44455910171382129192,-2.62184514908292,3.7173579109063,343.424787133396
738335.44455919205211102962,-2.6095360169276,3.72966704306162,343.424787133396
738335.44455928250681608915,-2.59722688477228,3.75428530737225,343.424787133396
738335.44455937296152114868,-2.6095360169276,3.74197617521694,343.498641926328
738335.44455946341622620821,-2.62184514908292,3.70504877875098,343.449405397707
738335.44455955387093126774,-2.56029948830632,3.77890357168289,343.510951058484
738335.44455964432563632727,-2.47413556321909,3.87737662892544,343.535569322794
738335.44455973466392606497,-2.49875382752973,3.86506749677012,343.535569322794
738335.44455982511863112450,-2.49875382752973,3.85275836461481,343.486332794173
738335.44455991557333618402,-2.44951729890845,3.9143040253914,343.535569322794
738335.44456000602804124355,-2.42489903459782,3.95123142185736,343.57249671926
738335.44456009648274630308,-2.36335337382122,4.01277708263395,343.424787133396
738335.44456018693745136261,-2.32642597735527,4.06201361125523,343.486332794173
738335.44456027727574110031,-2.28949858088931,4.12355927203182,343.486332794173
738335.44456036773044615984,-2.2156437879574,4.19741406496373,343.449405397707
738335.44456045818515121937,-2.1540981271808,4.27126885789565,343.474023662018
738335.44456054863985627890,-2.20333465580208,4.24665059358501,343.498641926328
738335.44456063909456133842,-1.94484288054038,4.49283323669139,343.437096265552
738335.44456072954926639795,-2.04331593778293,4.39436017944884,343.412478001241
738335.44456081988755613565,-2.12947986287016,4.3081962543616,343.449405397707
738335.44456091034226119518,-2.22795292011272,4.1727958006531,343.461714529862
738335.44456100079696625471,-2.33873510951058,4.02508621478927,343.400168869086
738335.44456109125167131424,-2.51106295968505,3.82814010030417,343.264768415377
738335.44456118170637637377,-2.47413556321909,3.85275836461481,343.437096265552
738335.44456127216108143330,-2.62184514908292,3.69273964659566,343.437096265552
738335.44456136249937117100,-2.67108167770419,3.64350311797438,343.486332794173
738335.44456145295407623053,-2.62184514908292,3.68043051444034,343.424787133396
738335.44456154340878129005,-2.79417299925738,3.50810266426588,343.523260190639
738335.44456163386348634958,-2.53568122399569,3.76659443952757,343.486332794173
738335.44456172431819140911,-2.68339080985951,3.63119398581907,343.486332794173
738335.44456181477289646864,-2.73262733848079,3.58195745719779,343.523260190639
738335.44456190511118620634,-2.74493647063611,3.58195745719779,343.449405397707
738335.44456199556589126587,-2.72031820632547,3.59426658935311,343.474023662018
738335.44456208602059632540,-2.72031820632547,3.59426658935311,343.535569322794
738335.44456217647530138493,-2.70800907417015,3.60657572150843,343.474023662018
738335.44456226693000644445,-2.70800907417015,3.60657572150843,343.474023662018
738335.44456235738471150398,-2.72031820632547,3.60657572150843,343.523260190639
738335.44456244772300124168,-2.8064821314127,3.5204117964212,343.535569322794
738335.44456253817770630121,-2.59722688477228,3.74197617521694,343.523260190639
738335.44456262863241136074,-2.68339080985951,3.64350311797438,343.57249671926
738335.44456271908711642027,-2.73262733848079,3.59426658935311,343.597114983571
738335.44456280954182147980,-2.73262733848079,3.58195745719779,343.510951058484
738335.44456289999652653933,-2.69569994201483,3.61888485366375,343.57249671926
738335.44456299033481627703,-2.72031820632547,3.60657572150843,343.57249671926
738335.44456308078952133656,-2.70800907417015,3.60657572150843,343.609424115726
738335.44456317124422639608,-2.72031820632547,3.59426658935311,343.510951058484
738335.44456326169893145561,-2.72031820632547,3.59426658935311,343.54787845495
738335.44456335215363651514,-2.70800907417015,3.63119398581907,343.609424115726
738335.44456344260834157467,-2.73262733848079,3.60657572150843,343.584805851416
738335.44456353294663131237,-2.76955473494675,3.56964832504247,343.474023662018
738335.44456362340133637190,-2.67108167770419,3.68043051444034,343.486332794173
738335.44456371385604143143,-2.72031820632547,3.61888485366375,343.498641926328
738335.44456380431074649096,-2.75724560279143,3.58195745719779,343.449405397707
738335.44456389476545155048,-2.72031820632547,3.61888485366375,343.510951058484
738335.44456398522015661001,-2.70800907417015,3.61888485366375,343.560187587105
738335.44456407555844634771,-2.73262733848079,3.60657572150843,343.57249671926
738335.44456416601315140724,-2.70800907417015,3.63119398581907,343.54787845495
738335.44456425646785646677,-2.75724560279143,3.59426658935311,343.597114983571
738335.44456434692256152630,-2.70800907417015,3.63119398581907,343.634042380037
738335.44456443737726658583,-2.75724560279143,3.56964832504247,343.461714529862
738335.44456452783197164536,-2.75724560279143,3.58195745719779,343.560187587105
738335.44456461817026138306,-2.74493647063611,3.59426658935311,343.38785973693
738335.44456470862496644258,-2.67108167770419,3.66812138228502,343.437096265552
738335.44456479907967150211,-2.78186386710206,3.55733919288715,343.560187587105
738335.44456488953437656164,-2.78186386710206,3.55733919288715,343.523260190639
738335.44456497998908162117,-2.73262733848079,3.63119398581907,343.535569322794
738335.44456507044378668070,-2.76955473494675,3.59426658935311,343.54787845495
738335.44456516089849174023,-2.8064821314127,3.56964832504247,343.498641926328
738335.44456525123678147793,-2.72031820632547,3.6558122501297,343.498641926328
738335.44456534169148653746,-2.78186386710206,3.56964832504247,343.510951058484
738335.44456543214619159698,-2.84340952787866,3.5204117964212,343.486332794173
738335.44456552260089665651,-2.75724560279143,3.60657572150843,343.57249671926
738335.44456561305560171604,-2.74493647063611,3.61888485366375,343.584805851416
738335.44456570351030677557,-2.76955473494675,3.59426658935311,343.584805851416
738335.44456579384859651327,-2.76955473494675,3.59426658935311,343.474023662018
738335.44456588430330157280,-2.8064821314127,3.56964832504247,343.535569322794
738335.44456597475800663233,-2.8064821314127,3.55733919288715,343.510951058484
738335.44456606521271169186,-2.68339080985951,3.66812138228502,343.510951058484
738335.44456615566741675138,-2.81879126356802,3.55733919288715,343.57249671926
738335.44456624612212181091,-2.72031820632547,3.64350311797438,343.621733247881
738335.44456633646041154861,-2.76955473494675,3.60657572150843,343.621733247881
738335.44456642691511660814,-2.76955473494675,3.59426658935311,343.560187587105
738335.44456651736982166767,-2.78186386710206,3.59426658935311,343.584805851416
738335.44456660782452672720,-2.75724560279143,3.61888485366375,343.560187587105
738335.44456669827923178673,-2.75724560279143,3.63119398581907,343.498641926328
738335.44456678873393684626,-2.76955473494675,3.61888485366375,343.54787845495
738335.44456687907222658396,-2.75724560279143,3.61888485366375,343.54787845495
738335.44456696952693164349,-2.76955473494675,3.61888485366375,343.54787845495
738335.44456705998163670301,-2.78186386710206,3.59426658935311,343.535569322794
738335.44456715043634176254,-2.78186386710206,3.60657572150843,343.621733247881
738335.44456724089104682207,-2.74493647063611,3.64350311797438,343.621733247881
738335.44456733134575188160,-2.76955473494675,3.60657572150843,343.597114983571
738335.44456742168404161930,-2.75724560279143,3.61888485366375,343.54787845495
738335.44456751213874667883,-2.76955473494675,3.60657572150843,343.609424115726
738335.44456760259345173836,-2.73262733848079,3.64350311797438,343.560187587105
738335.44456769304815679789,-2.69569994201483,3.68043051444034,343.474023662018
738335.44456778350286185741,-2.69569994201483,3.66812138228502,343.560187587105
738335.44456787395756691694,-2.73262733848079,3.63119398581907,343.584805851416
738335.44456796429585665464,-2.69569994201483,3.69273964659566,343.584805851416
738335.44456805475056171417,-2.68339080985951,3.70504877875098,343.621733247881
738335.44456814520526677370,-2.72031820632547,3.70504877875098,343.38785973693
738335.44456823565997183323,-2.75724560279143,3.63119398581907,343.461714529862
738335.44456832611467689276,-2.76955473494675,3.60657572150843,343.609424115726
738335.44456841656938195229,-2.73262733848079,3.64350311797438,343.57249671926
738335.44456850690767168999,-2.79417299925738,3.58195745719779,343.535569322794
738335.44456859736237674952,-2.75724560279143,3.60657572150843,343.54787845495
738335.44456868781708180904,-2.78186386710206,3.58195745719779,343.498641926328
738335.44456877827178686857,-2.74493647063611,3.61888485366375,343.510951058484
738335.44456886872649192810,-2.74493647063611,3.60657572150843,343.535569322794
738335.44456895918119698763,-2.74493647063611,3.60657572150843,343.498641926328
738335.44456904951948672533,-2.79417299925738,3.55733919288715,343.461714529862
738335.44456913997419178486,-2.75724560279143,3.58195745719779,343.474023662018
738335.44456923042889684439,-2.84340952787866,3.42193873917865,343.486332794173
738335.44456932088360190392,-2.92957345296589,3.32346568193609,343.54787845495
738335.44456941133830696344,-2.67108167770419,3.74197617521694,343.597114983571
738335.44456950179301202297,-1.99407940916166,4.51745150100202,343.437096265552
738335.44456959213130176067,-1.28014974415316,5.37909075187434,343.092440565203
738335.44456968258600682020,-1.45247759432763,5.52680033773817,343.166295358135
738335.44456977304071187973,-2.25257118442335,4.65285195471053,343.36324147262
738335.44456986349541693926,-2.79417299925738,3.50810266426588,343.338623208309
738335.44456995395012199879,-3.04035564236376,3.21268349253822,343.535569322794
738335.44457004440482705832,-2.94188258512121,3.36039307840205,343.535569322794
738335.44457013474311679602,-2.81879126356802,3.49579353211056,343.57249671926
738335.44457022519782185555,-2.72031820632547,3.59426658935311,343.523260190639
738335.44457031565252691507,-2.69569994201483,3.63119398581907,343.523260190639
738335.44457040610723197460,-2.64646341339356,3.68043051444034,343.560187587105
738335.44457049656193703413,-2.59722688477228,3.72966704306162,343.412478001241
738335.44457058701664209366,-2.64646341339356,3.68043051444034,343.510951058484
738335.44457067735493183136,-2.63415428123824,3.69273964659566,343.498641926328
738335.44457076780963689089,-2.62184514908292,3.70504877875098,343.510951058484
738335.44457085826434195042,-2.6095360169276,3.70504877875098,343.560187587105
738335.44457094871904700994,-2.58491775261696,3.74197617521694,343.57249671926
738335.44457103917375206947,-2.52337209184037,3.80352183599353,343.474023662018
738335.44457112962845712900,-2.6095360169276,3.7173579109063,343.498641926328
738335.44457121996674686670,-2.53568122399569,3.80352183599353,343.498641926328
738335.44457131042145192623,-2.47413556321909,3.85275836461481,343.486332794173
738335.44457140087615698576,-2.53568122399569,3.79121270383821,343.523260190639
738335.44457149133086204529,-2.48644469537441,3.86506749677012,343.54787845495
738335.44457158178556710482,-2.49875382752973,3.86506749677012,343.560187587105
738335.44457167224027216434,-2.49875382752973,3.86506749677012,343.36324147262
738335.44457176257856190205,-2.33873510951058,4.01277708263395,343.424787133396
738335.44457185303326696157,-2.38797163813186,3.97584968616799,343.498641926328
738335.44457194348797202110,-2.3510442416659,4.02508621478927,343.474023662018
738335.44457203394267708063,-2.30180771304463,4.07432274341055,343.523260190639
738335.44457212439738214016,-2.30180771304463,4.09894100772118,343.523260190639
738335.44457221485208719969,-2.1540981271808,4.24665059358501,343.449405397707
738335.44457230519037693739,-2.10486159855953,4.32050538651692,343.461714529862
738335.44457239564508199692,-2.05562506993825,4.38205104729352,343.474023662018
738335.44457248609978705645,-2.08024333424889,4.3697419151382,343.449405397707
738335.44457257655449211597,-2.14178899502548,4.27126885789565,343.350932340465
738335.44457266700919717550,-1.92022461622974,4.49283323669139,343.449405397707
738335.44457275746390223503,-2.01869767347229,4.3697419151382,343.461714529862
738335.44457284780219197273,-2.20333465580208,4.16048666849778,343.449405397707
738335.44457293825689703226,-2.30180771304463,4.02508621478927,343.474023662018
738335.44457302871160209179,-2.4125899024425,3.90199489323608,343.510951058484
738335.44457311916630715132,-2.48644469537441,3.80352183599353,343.510951058484
738335.44457320962101221085,-2.54799035615101,3.74197617521694,343.449405397707
738335.44457330007571727037,-2.58491775261696,3.70504877875098,343.535569322794
738335.44457339041400700808,-2.6095360169276,3.66812138228502,343.57249671926
738335.44457348086871206760,-2.63415428123824,3.64350311797438,343.461714529862
738335.44457357132341712713,-2.63415428123824,3.64350311797438,343.510951058484
738335.44457366177812218666,-2.64646341339356,3.60657572150843,343.54787845495
738335.44457375223282724619,-2.65877254554888,3.60657572150843,343.584805851416
738335.44457384268753230572,-2.62184514908292,3.6558122501297,343.597114983571
738335.44457393302582204342,-2.64646341339356,3.63119398581907,343.523260190639
738335.44457402348052710295,-2.74493647063611,3.53272092857652,343.486332794173
738335.44457411393523216248,-2.54799035615101,3.7173579109063,343.523260190639
738335.44457420438993722200,-2.6095360169276,3.66812138228502,343.510951058484
738335.44457429484464228153,-2.67108167770419,3.60657572150843,343.510951058484
738335.44457438529934734106,-2.67108167770419,3.60657572150843,343.461714529862
738335.44457447575405240059,-2.65877254554888,3.59426658935311,343.523260190639
738335.44457456609234213829,-2.64646341339356,3.61888485366375,343.560187587105
738335.44457465654704719782,-2.64646341339356,3.63119398581907,343.474023662018
738335.44457474700175225735,-2.64646341339356,3.61888485366375,343.449405397707
738335.44457483745645731688,-2.64646341339356,3.63119398581907,343.461714529862
738335.44457492791116237640,-2.64646341339356,3.63119398581907,343.424787133396
738335.44457501836586743593,-2.63415428123824,3.63119398581907,343.424787133396
738335.44457510870415717363,-2.64646341339356,3.61888485366375,343.510951058484
738335.44457519915886223316,-2.63415428123824,3.63119398581907,343.350932340465
738335.44457528961356729269,-2.64646341339356,3.63119398581907,343.400168869086
738335.44457538006827235222,-2.65877254554888,3.60657572150843,343.474023662018
738335.44457547052297741175,-2.63415428123824,3.63119398581907,343.486332794173
738335.44457556097768247128,-2.63415428123824,3.64350311797438,343.560187587105
738335.44457565131597220898,-2.68339080985951,3.59426658935311,343.597114983571
738335.44457574177067726851,-2.68339080985951,3.59426658935311,343.597114983571
738335.44457583222538232803,-2.63415428123824,3.61888485366375,343.54787845495
738335.44457592268008738756,-2.63415428123824,3.61888485366375,343.621733247881
738335.44457601313479244709,-2.64646341339356,3.60657572150843,343.609424115726
738335.44457610358949750662,-2.67108167770419,3.59426658935311,343.498641926328
738335.44457619392778724432,-2.65877254554888,3.60657572150843,343.57249671926
738335.44457628438249230385,-2.65877254554888,3.60657572150843,343.57249671926
738335.44457637483719736338,-2.65877254554888,3.59426658935311,343.560187587105
738335.44457646529190242290,-2.65877254554888,3.59426658935311,343.523260190639
738335.44457655574660748243,-2.65877254554888,3.60657572150843,343.621733247881
738335.44457664620131254196,-2.65877254554888,3.60657572150843,343.609424115726
738335.44457673653960227966,-2.68339080985951,3.59426658935311,343.57249671926
738335.44457682699430733919,-2.64646341339356,3.60657572150843,343.560187587105
738335.44457691744901239872,-2.64646341339356,3.60657572150843,343.584805851416
738335.44457700790371745825,-2.65877254554888,3.59426658935311,343.609424115726
738335.44457709835842251778,-2.68339080985951,3.56964832504247,343.535569322794
738335.44457718881312757730,-2.73262733848079,3.54503006073183,343.486332794173
738335.44457727915141731501,-2.62184514908292,3.64350311797438,343.461714529862
738335.44457736960612237453,-2.65877254554888,3.60657572150843,343.523260190639
738335.44457746006082743406,-2.68339080985951,3.58195745719779,343.486332794173
738335.44457755051553249359,-2.68339080985951,3.58195745719779,343.54787845495
738335.44457764097023755312,-2.64646341339356,3.61888485366375,343.584805851416
738335.44457773142494261265,-2.68339080985951,3.58195745719779,343.54787845495
738335.44457782176323235035,-2.67108167770419,3.59426658935311,343.535569322794
