time_dn,ecg_projection_ll_ra_mV,ecg_projection_la_ra_mV,ecg_projection_vx_rl_mV
738254.48772725346498191357,-1.3047680084638,-5.8714560380871,347.240618101545
738254.48772734391968697309,-1.3047680084638,-5.85914690593178,347.240618101545
738254.48772743437439203262,-1.29245887630848,-5.84683777377646,347.265236365856
738254.48772752482909709215,-1.29245887630848,-5.84683777377646,347.04367198706
738254.48772761528380215168,-1.29245887630848,-5.84683777377646,347.154454176458
738254.48772770562209188938,-1.3047680084638,-5.84683777377646,347.265236365856
738254.48772779607679694891,-1.3047680084638,-5.84683777377646,347.215999837235
738254.48772788653150200844,-1.3047680084638,-5.84683777377646,347.191381572924
738254.48772797698620706797,-1.3047680084638,-5.85914690593178,347.240618101545
738254.48772806744091212749,-1.3047680084638,-5.85914690593178,347.252927233701
738254.48772815789561718702,-1.3047680084638,-5.85914690593178,347.179072440769
738254.48772824835032224655,-1.3047680084638,-5.8714560380871,347.22830896939
738254.48772833880502730608,-1.31707714061912,-5.8714560380871,347.277545498011
738254.48772842925973236561,-1.31707714061912,-5.8714560380871,347.22830896939
738254.48772851959802210331,-1.31707714061912,-5.88376517024242,347.203690705079
738254.48772861005272716284,-1.31707714061912,-5.88376517024242,347.22830896939
738254.48772870050743222237,-1.32938627277444,-5.89607430239774,347.265236365856
738254.48772879096213728189,-1.32938627277444,-5.88376517024242,347.179072440769
738254.48772888141684234142,-1.31707714061912,-5.88376517024242,347.265236365856
738254.48772897187154740095,-1.32938627277444,-5.89607430239774,347.240618101545
738254.48772906232625246048,-1.32938627277444,-5.89607430239774,347.191381572924
738254.48772915278095752001,-1.32938627277444,-5.89607430239774,347.240618101545
738254.48772924323566257954,-1.32938627277444,-5.88376517024242,347.105217647837
738254.48772933357395231724,-1.32938627277444,-5.89607430239774,347.117526779992
738254.48772942402865737677,-1.32938627277444,-5.89607430239774,347.129835912147
738254.48772951448336243629,-1.32938627277444,-5.89607430239774,347.129835912147
738254.48772960493806749582,-1.32938627277444,-5.89607430239774,347.129835912147
738254.48772969539277255535,-1.32938627277444,-5.89607430239774,347.154454176458
738254.48772978584747761488,-1.32938627277444,-5.90838343455306,347.179072440769
738254.48772987630218267441,-1.34169540492976,-5.90838343455306,347.142145044303
738254.48772996675688773394,-1.34169540492976,-5.90838343455306,347.129835912147
738254.48773005721159279346,-1.34169540492976,-5.90838343455306,347.154454176458
738254.48773014766629785299,-1.32938627277444,-5.89607430239774,347.179072440769
738254.48773023800458759069,-1.31707714061912,-5.88376517024242,347.166763308613
738254.48773032845929265022,-1.3047680084638,-5.8714560380871,347.166763308613
738254.48773041891399770975,-1.3047680084638,-5.8714560380871,347.179072440769
738254.48773050936870276928,-1.29245887630848,-5.85914690593178,347.179072440769
738254.48773059982340782881,-1.26784061199784,-5.82221950946582,347.191381572924
738254.48773069027811288834,-1.28014974415316,-5.83452864162114,347.179072440769
738254.48773078073281794786,-1.31707714061912,-5.85914690593178,347.179072440769
738254.48773087118752300739,-1.3047680084638,-5.84683777377646,347.215999837235
738254.48773096164222806692,-1.31707714061912,-5.8714560380871,347.203690705079
738254.48773105198051780462,-1.32938627277444,-5.88376517024242,346.994435458439
738254.48773114243522286415,-1.34169540492976,-5.90838343455306,347.068290251371
738254.48773123288992792368,-1.35400453708508,-5.92069256670838,347.166763308613
738254.48773132334463298321,-1.35400453708508,-5.92069256670838,347.142145044303
738254.48773141379933804274,-1.35400453708508,-5.92069256670838,347.154454176458
738254.48773150425404310226,-1.35400453708508,-5.92069256670838,347.203690705079
738254.48773159470874816179,-1.35400453708508,-5.93300169886369,347.203690705079
738254.48773168516345322132,-1.35400453708508,-5.93300169886369,347.215999837235
738254.48773177561815828085,-1.34169540492976,-5.95761996317433,347.166763308613
738254.48773186595644801855,-1.24322234768721,-5.84683777377646,347.326782026632
738254.48773195641115307808,-1.03396710104678,-5.4775638091169,347.499109876807
738254.48773204686585813761,-0.603147475610625,-4.73901587979776,347.339091158788
738254.48773213732056319714,-0.123091321553189,-3.85275836461481,346.982126326284
738254.48773222777526825666,-0.529292682678711,-4.09894100772118,346.883653269041
738254.48773231822997331619,-1.35400453708508,-5.71143732006795,346.674398022401
738254.48773240868467837572,-1.61249631234677,-6.25303913490198,346.760561947488
738254.48773249913938343525,-1.44016846217231,-6.04378388826156,346.982126326284
738254.48773258959408849478,-1.32938627277444,-5.92069256670838,347.166763308613
738254.48773267993237823248,-1.31707714061912,-5.89607430239774,347.154454176458
738254.48773277038708329201,-1.31707714061912,-5.90838343455306,347.203690705079
738254.48773286084178835154,-1.31707714061912,-5.90838343455306,347.22830896939
738254.48773295129649341106,-1.31707714061912,-5.89607430239774,347.179072440769
738254.48773304175119847059,-1.31707714061912,-5.89607430239774,347.277545498011
738254.48773313220590353012,-1.31707714061912,-5.88376517024242,347.289854630167
738254.48773322266060858965,-1.3047680084638,-5.8714560380871,347.215999837235
738254.48773331311531364918,-1.29245887630848,-5.85914690593178,347.240618101545
738254.48773340357001870871,-1.28014974415316,-5.84683777377646,347.154454176458
738254.48773349390830844641,-1.26784061199784,-5.83452864162114,347.179072440769
738254.48773358436301350594,-1.28014974415316,-5.83452864162114,347.203690705079
738254.48773367481771856546,-1.25553147984252,-5.82221950946582,347.22830896939
738254.48773376527242362499,-1.25553147984252,-5.80991037731051,347.277545498011
738254.48773385572712868452,-1.24322234768721,-5.79760124515519,347.22830896939
738254.48773394618183374405,-1.23091321553189,-5.77298298084455,347.240618101545
738254.48773403663653880358,-1.20629495122125,-5.74836471653391,347.252927233701
738254.48773412709124386311,-1.19398581906593,-5.72374645222327,347.215999837235
738254.48773421754594892263,-1.16936755475529,-5.69912818791264,347.265236365856
738254.48773430788423866034,-1.13244015828934,-5.64989165929136,347.265236365856
738254.48773439833894371986,-1.1078218939787,-5.6129642628254,347.277545498011
738254.48773448879364877939,-1.07089449751274,-5.57603686635945,347.339091158788
738254.48773457924835383892,-1.03396710104678,-5.52680033773817,347.203690705079
738254.48773466970305889845,-0.997039704580828,-5.48987294127221,347.277545498011
738254.48773476015776395798,-0.960112308114872,-5.44063641265094,347.314472894477
738254.48773485061246901751,-0.935494043804234,-5.40370901618498,347.351400290943
738254.48773494106717407703,-0.923184911648915,-5.39139988402966,347.376018555254
738254.48773503152187913656,-0.923184911648915,-5.39139988402966,347.351400290943
738254.48773512186016887426,-0.935494043804234,-5.39139988402966,347.351400290943
738254.48773521231487393379,-0.984730572425509,-5.42832728049562,347.302163762322
738254.48773530276957899332,-1.03396710104678,-5.50218207342753,347.302163762322
738254.48773539322428405285,-1.1078218939787,-5.58834599851477,347.191381572924
738254.48773548367898911238,-1.13244015828934,-5.62527339498072,347.302163762322
738254.48773557413369417191,-1.19398581906593,-5.69912818791264,347.179072440769
738254.48773566458839923143,-1.24322234768721,-5.76067384868923,347.22830896939
738254.48773575504310429096,-1.26784061199784,-5.79760124515519,347.252927233701
738254.48773584549780935049,-1.29245887630848,-5.82221950946582,347.22830896939
738254.48773593583609908819,-1.3047680084638,-5.84683777377646,347.215999837235
738254.48773602629080414772,-1.3047680084638,-5.85914690593178,347.203690705079
738254.48773611674550920725,-1.31707714061912,-5.8714560380871,347.265236365856
738254.48773620720021426678,-1.31707714061912,-5.8714560380871,347.265236365856
738254.48773629765491932631,-1.31707714061912,-5.8714560380871,347.240618101545
738254.48773638810962438583,-1.32938627277444,-5.8714560380871,347.22830896939
738254.48773647856432944536,-1.32938627277444,-5.8714560380871,347.22830896939
738254.48773656901903450489,-1.31707714061912,-5.8714560380871,347.203690705079
738254.48773665947373956442,-1.31707714061912,-5.8714560380871,347.252927233701
738254.48773674981202930212,-1.3047680084638,-5.8714560380871,347.289854630167
738254.48773684026673436165,-1.3047680084638,-5.8714560380871,347.203690705079
738254.48773693072143942118,-1.3047680084638,-5.8714560380871,347.265236365856
738254.48773702117614448071,-1.3047680084638,-5.85914690593178,347.22830896939
738254.48773711163084954023,-1.3047680084638,-5.85914690593178,347.22830896939
738254.48773720208555459976,-1.3047680084638,-5.85914690593178,347.240618101545
738254.48773729254025965929,-1.3047680084638,-5.85914690593178,347.265236365856
738254.48773738299496471882,-1.3047680084638,-5.85914690593178,347.277545498011
738254.48773747344966977835,-1.3047680084638,-5.85914690593178,347.179072440769
738254.48773756378795951605,-1.3047680084638,-5.85914690593178,347.277545498011
738254.48773765424266457558,-1.3047680084638,-5.85914690593178,347.215999837235
738254.48773774469736963511,-1.3047680084638,-5.85914690593178,347.154454176458
738254.48773783515207469463,-1.3047680084638,-5.85914690593178,347.191381572924
738254.48773792560677975416,-1.31707714061912,-5.8714560380871,347.031362854905
738254.48773801606148481369,-1.31707714061912,-5.8714560380871,347.129835912147
738254.48773810651618987322,-1.32938627277444,-5.8714560380871,347.031362854905
738254.48773819697089493275,-1.32938627277444,-5.88376517024242,347.031362854905
738254.48773828742559999228,-1.32938627277444,-5.88376517024242,347.117526779992
738254.48773837776388972998,-1.31707714061912,-5.88376517024242,347.142145044303
738254.48773846821859478951,-1.3047680084638,-5.85914690593178,347.166763308613
738254.48773855867329984903,-1.32938627277444,-5.88376517024242,347.166763308613
738254.48773864912800490856,-1.31707714061912,-5.88376517024242,347.142145044303
738254.48773873958270996809,-1.36631366924039,-5.92069256670838,347.142145044303
738254.48773883003741502762,-1.3047680084638,-5.85914690593178,347.154454176458
738254.48773892049212008715,-1.29245887630848,-5.85914690593178,347.154454176458
738254.48773901094682514668,-1.3047680084638,-5.85914690593178,347.215999837235
738254.48773910140153020620,-1.34169540492976,-5.90838343455306,347.117526779992
738254.48773919173981994390,-1.34169540492976,-5.89607430239774,347.166763308613
738254.48773928219452500343,-1.34169540492976,-5.90838343455306,347.129835912147
738254.48773937264923006296,-1.34169540492976,-5.90838343455306,347.142145044303
738254.48773946310393512249,-1.31707714061912,-5.85914690593178,347.154454176458
738254.48773955355864018202,-1.34169540492976,-5.89607430239774,347.154454176458
738254.48773964401334524155,-1.32938627277444,-5.88376517024242,347.215999837235
738254.48773973446805030107,-1.3047680084638,-5.85914690593178,347.191381572924
738254.48773982492275536060,-1.37862280139571,-5.92069256670838,347.129835912147
738254.48773991537746042013,-1.23091321553189,-5.78529211299987,347.203690705079
738254.48774000571575015783,-1.32938627277444,-5.8714560380871,347.129835912147
738254.48774009617045521736,-1.34169540492976,-5.89607430239774,347.203690705079
738254.48774018662516027689,-1.31707714061912,-5.85914690593178,347.22830896939
738254.48774027707986533642,-1.3047680084638,-5.85914690593178,347.179072440769
738254.48774036753457039595,-1.29245887630848,-5.85914690593178,347.215999837235
738254.48774045798927545547,-1.28014974415316,-5.82221950946582,347.265236365856
738254.48774054844398051500,-1.25553147984252,-5.78529211299987,347.191381572924
738254.48774063889868557453,-1.28014974415316,-5.83452864162114,347.215999837235
738254.48774072935339063406,-1.24322234768721,-5.78529211299987,347.215999837235
738254.48774081969168037176,-1.28014974415316,-5.79760124515519,347.240618101545
738254.48774091014638543129,-1.29245887630848,-5.83452864162114,347.22830896939
738254.48774100060109049082,-1.31707714061912,-5.85914690593178,347.252927233701
738254.48774109105579555035,-1.31707714061912,-5.8714560380871,347.252927233701
738254.48774118151050060987,-1.29245887630848,-5.84683777377646,347.154454176458
738254.48774127196520566940,-1.35400453708508,-5.89607430239774,347.215999837235
738254.48774136241991072893,-1.29245887630848,-5.84683777377646,347.154454176458
738254.48774145287461578846,-1.34169540492976,-5.89607430239774,347.105217647837
738254.48774154332932084799,-1.32938627277444,-5.88376517024242,347.129835912147
738254.48774163378402590752,-1.32938627277444,-5.88376517024242,347.068290251371
738254.48774172412231564522,-1.31707714061912,-5.89607430239774,347.031362854905
738254.48774181457702070475,-1.26784061199784,-5.88376517024242,347.203690705079
738254.48774190503172576427,-1.07089449751274,-5.58834599851477,347.376018555254
738254.48774199548643082380,-0.726238797163813,-4.98519852290414,347.277545498011
738254.48774208594113588333,-0.11078218939787,-3.95123142185736,346.994435458439
738254.48774217639584094286,-0.270800907417015,-3.74197617521694,346.871344136886
738254.48774226685054600239,-1.07089449751274,-5.03443505152542,346.662088890245
738254.48774235730525106192,-1.5632597837255,-6.08071128472752,346.686707154556
738254.48774244775995612144,-1.39093193355103,-5.95761996317433,346.920580665507
738254.48774253809824585915,-1.3047680084638,-5.85914690593178,347.092908515681
738254.48774262855295091867,-1.29245887630848,-5.84683777377646,347.105217647837
738254.48774271900765597820,-1.28014974415316,-5.84683777377646,347.179072440769
738254.48774280946236103773,-1.29245887630848,-5.8714560380871,347.179072440769
738254.48774289991706609726,-1.28014974415316,-5.85914690593178,347.191381572924
738254.48774299037177115679,-1.28014974415316,-5.85914690593178,347.179072440769
738254.48774308082647621632,-1.26784061199784,-5.85914690593178,347.240618101545
738254.48774317128118127584,-1.26784061199784,-5.84683777377646,347.252927233701
738254.48774326173588633537,-1.26784061199784,-5.83452864162114,347.154454176458
738254.48774335207417607307,-1.26784061199784,-5.83452864162114,347.240618101545
738254.48774344252888113260,-1.23091321553189,-5.79760124515519,347.252927233701
738254.48774353298358619213,-1.25553147984252,-5.80991037731051,347.22830896939
738254.48774362343829125166,-1.24322234768721,-5.79760124515519,347.215999837235
738254.48774371389299631119,-1.23091321553189,-5.78529211299987,347.191381572924
738254.48774380434770137072,-1.21860408337657,-5.77298298084455,347.252927233701
738254.48774389480240643024,-1.20629495122125,-5.74836471653391,347.252927233701
738254.48774398525711148977,-1.19398581906593,-5.72374645222327,347.252927233701
738254.48774407571181654930,-1.18167668691061,-5.71143732006795,347.289854630167
738254.48774416605010628700,-1.13244015828934,-5.674509923602,347.363709423098
738254.48774425650481134653,-1.12013102613402,-5.64989165929136,347.400636819564
738254.48774434695951640606,-1.09551276182338,-5.62527339498072,347.363709423098
738254.48774443741422146559,-1.05858536535742,-5.58834599851477,347.339091158788
738254.48774452786892652512,-1.02165796889147,-5.53910946989349,347.41294595172
738254.48774461832363158464,-0.972421440270191,-5.48987294127221,347.339091158788
738254.48774470877833664417,-0.960112308114872,-5.45294554480626,347.289854630167
738254.48774479923304170370,-0.923184911648915,-5.4160181483403,347.339091158788
738254.48774488968774676323,-0.910875779493596,-5.40370901618498,347.326782026632
738254.48774498002603650093,-0.898566647338277,-5.39139988402966,347.314472894477
738254.48774507048074156046,-0.898566647338277,-5.37909075187434,347.289854630167
738254.48774516093544661999,-0.923184911648915,-5.39139988402966,347.289854630167
738254.48774525139015167952,-0.947803175959553,-5.42832728049562,347.191381572924
738254.48774534184485673904,-0.997039704580828,-5.4775638091169,347.289854630167
738254.48774543229956179857,-1.08320362966806,-5.57603686635945,347.265236365856
738254.48774552275426685810,-1.14474929044465,-5.64989165929136,347.265236365856
738254.48774561320897191763,-1.18167668691061,-5.71143732006795,347.252927233701
738254.48774570366367697716,-1.23091321553189,-5.74836471653391,347.154454176458
738254.48774579400196671486,-1.24322234768721,-5.78529211299987,347.22830896939
738254.48774588445667177439,-1.26784061199784,-5.80991037731051,347.240618101545
738254.48774597491137683392,-1.28014974415316,-5.82221950946582,347.22830896939
738254.48774606536608189344,-1.28014974415316,-5.83452864162114,347.179072440769
738254.48774615582078695297,-1.28014974415316,-5.83452864162114,347.240618101545
738254.48774624627549201250,-1.29245887630848,-5.84683777377646,347.252927233701
738254.48774633673019707203,-1.29245887630848,-5.83452864162114,347.142145044303
738254.48774642718490213156,-1.29245887630848,-5.84683777377646,347.215999837235
738254.48774651763960719109,-1.29245887630848,-5.85914690593178,347.22830896939
738254.48774660797789692879,-1.3047680084638,-5.84683777377646,347.240618101545
738254.48774669843260198832,-1.29245887630848,-5.85914690593178,347.179072440769
738254.48774678888730704784,-1.29245887630848,-5.83452864162114,347.252927233701
738254.48774687934201210737,-1.29245887630848,-5.84683777377646,347.22830896939
738254.48774696979671716690,-1.29245887630848,-5.84683777377646,347.154454176458
738254.48774706025142222643,-1.29245887630848,-5.85914690593178,347.240618101545
738254.48774715070612728596,-1.28014974415316,-5.83452864162114,347.22830896939
738254.48774724116083234549,-1.29245887630848,-5.84683777377646,347.203690705079
738254.48774733161553740501,-1.29245887630848,-5.84683777377646,347.142145044303
738254.48774742195382714272,-1.29245887630848,-5.84683777377646,347.154454176458
738254.48774751240853220224,-1.29245887630848,-5.84683777377646,347.166763308613
738254.48774760286323726177,-1.29245887630848,-5.84683777377646,347.166763308613
738254.48774769331794232130,-1.29245887630848,-5.84683777377646,347.191381572924
738254.48774778377264738083,-1.3047680084638,-5.84683777377646,347.166763308613
738254.48774787422735244036,-1.3047680084638,-5.84683777377646,347.179072440769
738254.48774796468205749989,-1.3047680084638,-5.84683777377646,347.179072440769
738254.48774805513676255941,-1.3047680084638,-5.85914690593178,347.191381572924
738254.48774814559146761894,-1.3047680084638,-5.84683777377646,347.179072440769
738254.48774823592975735664,-1.29245887630848,-5.84683777377646,347.142145044303
738254.48774832638446241617,-1.3047680084638,-5.85914690593178,347.179072440769
738254.48774841683916747570,-1.31707714061912,-5.8714560380871,347.240618101545
738254.48774850729387253523,-1.31707714061912,-5.8714560380871,347.240618101545
738254.48774859774857759476,-1.32938627277444,-5.88376517024242,347.252927233701
738254.48774868820328265429,-1.31707714061912,-5.85914690593178,347.129835912147
738254.48774877865798771381,-1.31707714061912,-5.85914690593178,347.031362854905
738254.48774886911269277334,-1.32938627277444,-5.88376517024242,347.22830896939
738254.48774895956739783287,-1.32938627277444,-5.8714560380871,347.179072440769
738254.48774904990568757057,-1.31707714061912,-5.85914690593178,347.203690705079
738254.48774914036039263010,-1.32938627277444,-5.8714560380871,347.252927233701
738254.48774923081509768963,-1.32938627277444,-5.8714560380871,347.117526779992
738254.48774932126980274916,-1.32938627277444,-5.88376517024242,347.068290251371
738254.48774941172450780869,-1.32938627277444,-5.88376517024242,347.117526779992
738254.48774950217921286821,-1.32938627277444,-5.88376517024242,347.117526779992
738254.48774959263391792774,-1.32938627277444,-5.88376517024242,347.129835912147
738254.48774968308862298727,-1.32938627277444,-5.88376517024242,347.179072440769
738254.48774977354332804680,-1.32938627277444,-5.88376517024242,347.240618101545
738254.48774986388161778450,-1.31707714061912,-5.88376517024242,347.215999837235
738254.48774995433632284403,-1.32938627277444,-5.88376517024242,347.166763308613
738254.48775004479102790356,-1.34169540492976,-5.8714560380871,347.240618101545
738254.48775013524573296309,-1.31707714061912,-5.8714560380871,347.22830896939
738254.48775022570043802261,-1.32938627277444,-5.8714560380871,347.179072440769
738254.48775031615514308214,-1.32938627277444,-5.8714560380871,347.191381572924
738254.48775040660984814167,-1.32938627277444,-5.88376517024242,347.203690705079
738254.48775049706455320120,-1.31707714061912,-5.88376517024242,347.105217647837
738254.48775058751925826073,-1.32938627277444,-5.88376517024242,347.105217647837
738254.48775067785754799843,-1.31707714061912,-5.8714560380871,347.154454176458
738254.48775076831225305796,-1.3047680084638,-5.85914690593178,347.191381572924
738254.48775085876695811749,-1.3047680084638,-5.85914690593178,347.154454176458
738254.48775094922166317701,-1.29245887630848,-5.83452864162114,347.166763308613
738254.48775103967636823654,-1.25553147984252,-5.79760124515519,347.203690705079
738254.48775113013107329607,-1.26784061199784,-5.82221950946582,347.154454176458
738254.48775122058577835560,-1.3047680084638,-5.83452864162114,347.129835912147
738254.48775131104048341513,-1.31707714061912,-5.80991037731051,347.142145044303
738254.48775140149518847466,-1.31707714061912,-5.84683777377646,347.154454176458
738254.48775149183347821236,-1.32938627277444,-5.8714560380871,347.191381572924
738254.48775158228818327188,-1.34169540492976,-5.89607430239774,347.215999837235
738254.48775167274288833141,-1.35400453708508,-5.90838343455306,347.203690705079
738254.48775176319759339094,-1.35400453708508,-5.89607430239774,347.203690705079
738254.48775185365229845047,-1.35400453708508,-5.90838343455306,347.154454176458
738254.48775194410700351000,-1.35400453708508,-5.90838343455306,347.129835912147
738254.48775203456170856953,-1.35400453708508,-5.90838343455306,347.179072440769
738254.48775212501641362906,-1.34169540492976,-5.90838343455306,347.166763308613
738254.48775221547111868858,-1.3047680084638,-5.93300169886369,346.957508061973
738254.48775230592582374811,-1.25553147984252,-5.8714560380871,347.068290251371
738254.48775239626411348581,-1.08320362966806,-5.55141860204881,347.41294595172
738254.48775248671881854534,-0.726238797163813,-4.91134372997223,347.351400290943
738254.48775257717352360487,-0.196946114485102,-3.93892228970204,347.055981119215
738254.48775266762822866440,-0.406201361125523,-3.84044923245949,346.969817194128
738254.48775275808293372393,-1.20629495122125,-5.29292682678711,346.563615833003
738254.48775284853763878345,-1.60018718019145,-6.20380260628071,346.600543229469
738254.48775293899234384298,-1.44016846217231,-6.04378388826156,346.846725872575
738254.48775302944704890251,-1.32938627277444,-5.89607430239774,346.994435458439
738254.48775311990175396204,-1.31707714061912,-5.85914690593178,347.092908515681
738254.48775321024004369974,-1.31707714061912,-5.8714560380871,347.179072440769
738254.48775330069474875927,-1.3047680084638,-5.88376517024242,347.166763308613
738254.48775339114945381880,-1.31707714061912,-5.8714560380871,347.215999837235
738254.48775348160415887833,-1.3047680084638,-5.8714560380871,347.265236365856
738254.48775357205886393785,-1.29245887630848,-5.85914690593178,347.240618101545
738254.48775366251356899738,-1.29245887630848,-5.84683777377646,347.240618101545
738254.48775375296827405691,-1.28014974415316,-5.83452864162114,347.240618101545
738254.48775384342297911644,-1.28014974415316,-5.82221950946582,347.240618101545
738254.48775393387768417597,-1.28014974415316,-5.80991037731051,347.252927233701
738254.48775402421597391367,-1.26784061199784,-5.80991037731051,347.277545498011
738254.48775411467067897320,-1.25553147984252,-5.78529211299987,347.289854630167
738254.48775420512538403273,-1.25553147984252,-5.78529211299987,347.240618101545
738254.48775429558008909225,-1.23091321553189,-5.76067384868923,347.265236365856
738254.48775438603479415178,-1.21860408337657,-5.74836471653391,347.351400290943
738254.48775447648949921131,-1.20629495122125,-5.73605558437859,347.314472894477
738254.48775456694420427084,-1.18167668691061,-5.69912818791264,347.22830896939
738254.48775465739890933037,-1.16936755475529,-5.66220079144668,347.252927233701
738254.48775474785361438990,-1.14474929044465,-5.63758252713604,347.265236365856
738254.48775483819190412760,-1.1078218939787,-5.60065513067009,347.302163762322
738254.48775492864660918713,-1.08320362966806,-5.55141860204881,347.339091158788
738254.48775501910131424665,-1.03396710104678,-5.50218207342753,347.376018555254
738254.48775510955601930618,-0.997039704580828,-5.46525467696158,347.351400290943
738254.48775520001072436571,-0.972421440270191,-5.4160181483403,347.326782026632
738254.48775529046542942524,-0.935494043804234,-5.37909075187434,347.326782026632
738254.48775538092013448477,-0.923184911648915,-5.35447248756371,347.351400290943
738254.48775547137483954430,-0.910875779493596,-5.34216335540839,347.339091158788
738254.48775556182954460382,-0.923184911648915,-5.34216335540839,347.314472894477
738254.48775565216783434153,-0.947803175959553,-5.36678161971903,347.289854630167
738254.48775574262253940105,-0.997039704580828,-5.42832728049562,347.031362854905
738254.48775583307724446058,-1.05858536535742,-5.50218207342753,347.203690705079
738254.48775592353194952011,-1.13244015828934,-5.58834599851477,347.179072440769
738254.48775601398665457964,-1.16936755475529,-5.66220079144668,347.191381572924
738254.48775610444135963917,-1.20629495122125,-5.69912818791264,347.203690705079
738254.48775619489606469870,-1.23091321553189,-5.74836471653391,347.22830896939
738254.48775628535076975822,-1.25553147984252,-5.78529211299987,347.179072440769
738254.48775637580547481775,-1.26784061199784,-5.79760124515519,347.142145044303
738254.48775646614376455545,-1.29245887630848,-5.82221950946582,347.179072440769
738254.48775655659846961498,-1.28014974415316,-5.82221950946582,347.179072440769
738254.48775664705317467451,-1.29245887630848,-5.82221950946582,347.203690705079
738254.48775673750787973404,-1.29245887630848,-5.82221950946582,347.166763308613
738254.48775682796258479357,-1.29245887630848,-5.82221950946582,347.129835912147
738254.48775691841728985310,-1.29245887630848,-5.83452864162114,347.105217647837
738254.48775700887199491262,-1.29245887630848,-5.82221950946582,347.142145044303
738254.48775709932669997215,-1.28014974415316,-5.83452864162114,347.142145044303
738254.48775718978140503168,-1.28014974415316,-5.82221950946582,347.080599383526
738254.48775728011969476938,-1.28014974415316,-5.83452864162114,347.191381572924
738254.48775737057439982891,-1.28014974415316,-5.82221950946582,347.22830896939
738254.48775746102910488844,-1.28014974415316,-5.82221950946582,347.22830896939
738254.48775755148380994797,-1.26784061199784,-5.83452864162114,347.166763308613
738254.48775764193851500750,-1.28014974415316,-5.80991037731051,347.22830896939
738254.48775773239322006702,-1.26784061199784,-5.80991037731051,347.22830896939
738254.48775782284792512655,-1.28014974415316,-5.82221950946582,347.277545498011
738254.48775791330263018608,-1.29245887630848,-5.82221950946582,347.191381572924
738254.48775800375733524561,-1.26784061199784,-5.80991037731051,347.191381572924
738254.48775809409562498331,-1.28014974415316,-5.82221950946582,347.215999837235
738254.48775818455033004284,-1.28014974415316,-5.82221950946582,347.142145044303
738254.48775827500503510237,-1.28014974415316,-5.82221950946582,347.166763308613
738254.48775836545974016190,-1.28014974415316,-5.82221950946582,347.166763308613
738254.48775845591444522142,-1.29245887630848,-5.82221950946582,347.154454176458
738254.48775854636915028095,-1.28014974415316,-5.82221950946582,347.154454176458
738254.48775863682385534048,-1.26784061199784,-5.82221950946582,347.154454176458
738254.48775872727856040001,-1.28014974415316,-5.83452864162114,347.142145044303
738254.48775881773326545954,-1.28014974415316,-5.83452864162114,347.142145044303
738254.48775890807155519724,-1.28014974415316,-5.83452864162114,347.142145044303
738254.48775899852626025677,-1.28014974415316,-5.83452864162114,347.240618101545
738254.48775908898096531630,-1.28014974415316,-5.83452864162114,347.22830896939
738254.48775917943567037582,-1.28014974415316,-5.83452864162114,347.191381572924
738254.48775926989037543535,-1.29245887630848,-5.83452864162114,347.006744590594
738254.48775936034508049488,-1.28014974415316,-5.83452864162114,347.055981119215
738254.48775945079978555441,-1.28014974415316,-5.83452864162114,347.179072440769
738254.48775954125449061394,-1.28014974415316,-5.84683777377646,347.179072440769
738254.48775963170919567347,-1.29245887630848,-5.83452864162114,347.166763308613
738254.48775972204748541117,-1.29245887630848,-5.84683777377646,347.179072440769
738254.48775981250219047070,-1.29245887630848,-5.84683777377646,347.179072440769
738254.48775990295689553022,-1.29245887630848,-5.85914690593178,347.203690705079
738254.48775999341160058975,-1.29245887630848,-5.84683777377646,347.142145044303
738254.48776008386630564928,-1.26784061199784,-5.82221950946582,347.191381572924
738254.48776017432101070881,-1.26784061199784,-5.80991037731051,347.240618101545
738254.48776026477571576834,-1.28014974415316,-5.82221950946582,347.191381572924
738254.48776035523042082787,-1.25553147984252,-5.80991037731051,347.142145044303
738254.48776044568512588739,-1.24322234768721,-5.77298298084455,347.179072440769
738254.48776053602341562510,-1.21860408337657,-5.74836471653391,347.252927233701
738254.48776062647812068462,-1.25553147984252,-5.79760124515519,347.129835912147
738254.48776071693282574415,-1.25553147984252,-5.78529211299987,347.191381572924
738254.48776080738753080368,-1.26784061199784,-5.80991037731051,347.203690705079
738254.48776089784223586321,-1.28014974415316,-5.82221950946582,347.179072440769
738254.48776098829694092274,-1.3047680084638,-5.85914690593178,347.179072440769
738254.48776107875164598227,-1.3047680084638,-5.85914690593178,347.166763308613
738254.48776116920635104179,-1.3047680084638,-5.8714560380871,347.166763308613
738254.48776125966105610132,-1.31707714061912,-5.8714560380871,347.203690705079
738254.48776134999934583902,-1.31707714061912,-5.8714560380871,347.215999837235
738254.48776144045405089855,-1.3047680084638,-5.85914690593178,347.129835912147
738254.48776153090875595808,-1.3047680084638,-5.8714560380871,347.191381572924
738254.48776162136346101761,-1.3047680084638,-5.88376517024242,347.203690705079
738254.48776171181816607714,-1.28014974415316,-5.89607430239774,347.22830896939
738254.48776180227287113667,-1.15705842259997,-5.68681905575732,347.289854630167
738254.48776189272757619619,-0.886257515182958,-5.18214463738924,347.499109876807
738254.48776198318228125572,-0.356964832504247,-4.35743278298288,347.289854630167
738254.48776207363698631525,-0.147709585863826,-3.81583096814885,346.945198929818
738254.48776216397527605295,-0.800093590095726,-4.70208848333181,346.822107608264
738254.48776225442998111248,-1.48940499079358,-6.24073000274667,346.686707154556
738254.48776234488468617201,-1.55095065157018,-6.27765739921262,346.797489343954
738254.48776243533939123154,-1.39093193355103,-6.05609302041688,346.945198929818
738254.48776252579409629107,-1.3047680084638,-5.88376517024242,347.04367198706
738254.48776261624880135059,-1.28014974415316,-5.85914690593178,347.092908515681
738254.48776270670350641012,-1.26784061199784,-5.84683777377646,347.092908515681
738254.48776279715821146965,-1.26784061199784,-5.83452864162114,347.006744590594
738254.48776288761291652918,-1.25553147984252,-5.83452864162114,347.01905372275
738254.48776297795120626688,-1.24322234768721,-5.80991037731051,347.166763308613
738254.48776306840591132641,-1.25553147984252,-5.80991037731051,347.154454176458
738254.48776315886061638594,-1.24322234768721,-5.79760124515519,347.179072440769
738254.48776324931532144547,-1.23091321553189,-5.79760124515519,347.179072440769
738254.48776333977002650499,-1.23091321553189,-5.77298298084455,347.240618101545
738254.48776343022473156452,-1.23091321553189,-5.76067384868923,347.191381572924
738254.48776352067943662405,-1.20629495122125,-5.74836471653391,347.191381572924
738254.48776361113414168358,-1.19398581906593,-5.72374645222327,347.22830896939
738254.48776370158884674311,-1.19398581906593,-5.71143732006795,347.252927233701
738254.48776379204355180264,-1.18167668691061,-5.71143732006795,347.265236365856
738254.48776388238184154034,-1.15705842259997,-5.674509923602,347.265236365856
738254.48776397283654659986,-1.13244015828934,-5.63758252713604,347.277545498011
738254.48776406329125165939,-1.12013102613402,-5.6129642628254,347.339091158788
738254.48776415374595671892,-1.09551276182338,-5.57603686635945,347.314472894477
738254.48776424420066177845,-1.07089449751274,-5.53910946989349,347.326782026632
738254.48776433465536683798,-1.00934883673615,-5.48987294127221,347.363709423098
738254.48776442511007189751,-0.984730572425509,-5.42832728049562,347.302163762322
738254.48776451556477695704,-0.935494043804234,-5.37909075187434,347.351400290943
738254.48776460601948201656,-0.910875779493596,-5.31754509109775,347.388327687409
738254.48776469635777175426,-0.87394838302764,-5.26830856247648,347.388327687409
738254.48776478681247681379,-0.861639250872321,-5.24369029816584,347.400636819564
738254.48776487726718187332,-0.837020986561683,-5.2190720338552,347.388327687409
738254.48776496772188693285,-0.849330118717002,-5.23138116601052,347.289854630167
738254.48776505817659199238,-0.886257515182958,-5.28061769463179,347.339091158788
738254.48776514863129705191,-0.935494043804234,-5.34216335540839,347.277545498011
738254.48776523908600211143,-0.997039704580828,-5.44063641265094,347.314472894477
738254.48776532954070717096,-1.07089449751274,-5.52680033773817,347.240618101545
738254.48776541999541223049,-1.09551276182338,-5.57603686635945,347.22830896939
738254.48776551033370196819,-1.14474929044465,-5.63758252713604,347.289854630167
738254.48776560078840702772,-1.18167668691061,-5.71143732006795,347.265236365856
738254.48776569124311208725,-1.21860408337657,-5.76067384868923,347.240618101545
738254.48776578169781714678,-1.23091321553189,-5.78529211299987,347.22830896939
738254.48776587215252220631,-1.24322234768721,-5.80991037731051,347.240618101545
738254.48776596260722726583,-1.25553147984252,-5.82221950946582,347.252927233701
738254.48776605306193232536,-1.25553147984252,-5.82221950946582,347.203690705079
738254.48776614351663738489,-1.26784061199784,-5.83452864162114,347.22830896939
738254.48776623397134244442,-1.26784061199784,-5.83452864162114,347.22830896939
738254.48776632430963218212,-1.26784061199784,-5.83452864162114,347.068290251371
738254.48776641476433724165,-1.24322234768721,-5.80991037731051,347.105217647837
738254.48776650521904230118,-1.24322234768721,-5.82221950946582,347.265236365856
738254.48776659567374736071,-1.24322234768721,-5.80991037731051,347.129835912147
738254.48776668612845242023,-1.24322234768721,-5.80991037731051,347.22830896939
738254.48776677658315747976,-1.24322234768721,-5.80991037731051,347.240618101545
738254.48776686703786253929,-1.23091321553189,-5.79760124515519,347.166763308613
738254.48776695749256759882,-1.24322234768721,-5.79760124515519,347.240618101545
738254.48776704794727265835,-1.24322234768721,-5.79760124515519,347.215999837235
738254.48776713828556239605,-1.24322234768721,-5.79760124515519,347.240618101545
738254.48776722874026745558,-1.24322234768721,-5.80991037731051,347.154454176458
738254.48776731919497251511,-1.24322234768721,-5.80991037731051,347.215999837235
738254.48776740964967757463,-1.24322234768721,-5.79760124515519,347.215999837235
738254.48776750010438263416,-1.25553147984252,-5.80991037731051,347.203690705079
738254.48776759055908769369,-1.25553147984252,-5.80991037731051,347.265236365856
738254.48776768101379275322,-1.25553147984252,-5.80991037731051,347.179072440769
738254.48776777146849781275,-1.25553147984252,-5.82221950946582,347.117526779992
738254.48776786192320287228,-1.25553147984252,-5.80991037731051,347.191381572924
738254.48776795226149260998,-1.26784061199784,-5.83452864162114,347.142145044303
738254.48776804271619766951,-1.28014974415316,-5.83452864162114,347.129835912147
738254.48776813317090272903,-1.28014974415316,-5.84683777377646,347.092908515681
738254.48776822362560778856,-1.28014974415316,-5.84683777377646,347.105217647837
738254.48776831408031284809,-1.28014974415316,-5.84683777377646,347.092908515681
738254.48776840453501790762,-1.28014974415316,-5.84683777377646,347.129835912147
738254.48776849498972296715,-1.28014974415316,-5.85914690593178,347.105217647837
738254.48776858544442802668,-1.28014974415316,-5.84683777377646,347.092908515681
738254.48776867589913308620,-1.28014974415316,-5.85914690593178,347.154454176458
738254.48776876623742282391,-1.28014974415316,-5.84683777377646,347.166763308613
738254.48776885669212788343,-1.29245887630848,-5.85914690593178,347.179072440769
738254.48776894714683294296,-1.29245887630848,-5.85914690593178,347.22830896939
738254.48776903760153800249,-1.29245887630848,-5.85914690593178,347.129835912147
738254.48776912805624306202,-1.29245887630848,-5.84683777377646,347.154454176458
738254.48776921851094812155,-1.29245887630848,-5.85914690593178,347.129835912147
738254.48776930896565318108,-1.28014974415316,-5.85914690593178,347.117526779992
738254.48776939942035824060,-1.28014974415316,-5.85914690593178,347.154454176458
738254.48776948987506330013,-1.29245887630848,-5.85914690593178,347.129835912147
738254.48776958021335303783,-1.29245887630848,-5.85914690593178,347.142145044303
738254.48776967066805809736,-1.29245887630848,-5.85914690593178,347.166763308613
738254.48776976112276315689,-1.29245887630848,-5.85914690593178,347.191381572924
738254.48776985157746821642,-1.29245887630848,-5.85914690593178,347.105217647837
738254.48776994203217327595,-1.28014974415316,-5.84683777377646,347.031362854905
738254.48777003248687833548,-1.26784061199784,-5.84683777377646,347.22830896939
738254.48777012294158339500,-1.25553147984252,-5.83452864162114,347.240618101545
738254.48777021339628845453,-1.25553147984252,-5.82221950946582,347.277545498011
738254.48777030385099351406,-1.23091321553189,-5.78529211299987,347.203690705079
738254.48777039418928325176,-1.24322234768721,-5.80991037731051,347.191381572924
738254.48777048464398831129,-1.26784061199784,-5.82221950946582,347.22830896939
738254.48777057509869337082,-1.25553147984252,-5.80991037731051,347.166763308613
738254.48777066555339843035,-1.26784061199784,-5.82221950946582,347.22830896939
738254.48777075600810348988,-1.29245887630848,-5.85914690593178,347.215999837235
738254.48777084646280854940,-1.3047680084638,-5.88376517024242,347.179072440769
738254.48777093691751360893,-1.31707714061912,-5.88376517024242,347.179072440769
738254.48777102737221866846,-1.31707714061912,-5.88376517024242,347.203690705079
738254.48777111782692372799,-1.31707714061912,-5.88376517024242,347.215999837235
738254.48777120816521346569,-1.31707714061912,-5.88376517024242,347.166763308613
738254.48777129861991852522,-1.3047680084638,-5.88376517024242,347.22830896939
738254.48777138907462358475,-1.32938627277444,-5.89607430239774,347.240618101545
738254.48777147952932864428,-1.3047680084638,-5.92069256670838,347.179072440769
738254.48777156998403370380,-1.19398581906593,-5.77298298084455,347.314472894477
738254.48777166043873876333,-0.960112308114872,-5.39139988402966,347.41294595172
738254.48777175089344382286,-0.455437889746798,-4.60361542608926,347.117526779992
738254.48777184134814888239,-0.0369273964659566,-3.75428530737225,346.699016286711
738254.48777193180285394192,-0.566220079144668,-4.20972319711905,346.711325418867
738254.48777202214114367962,-1.40324106570635,-5.84683777377646,346.637470625935
738254.48777211259584873915,-1.53864151941486,-6.16687520981475,346.735943683177
738254.48777220305055379868,-1.35400453708508,-5.95761996317433,346.895962401196
738254.48777229350525885820,-1.29245887630848,-5.8714560380871,347.031362854905
738254.48777238395996391773,-1.28014974415316,-5.8714560380871,347.105217647837
738254.48777247441466897726,-1.28014974415316,-5.8714560380871,347.129835912147
738254.48777256486937403679,-1.28014974415316,-5.8714560380871,347.129835912147
738254.48777265532407909632,-1.28014974415316,-5.85914690593178,347.154454176458
738254.48777274577878415585,-1.28014974415316,-5.85914690593178,347.215999837235
738254.48777283611707389355,-1.26784061199784,-5.84683777377646,347.191381572924
738254.48777292657177895308,-1.26784061199784,-5.85914690593178,347.22830896939
738254.48777301702648401260,-1.25553147984252,-5.84683777377646,347.240618101545
738254.48777310748118907213,-1.25553147984252,-5.82221950946582,347.203690705079
738254.48777319793589413166,-1.24322234768721,-5.80991037731051,347.215999837235
738254.48777328839059919119,-1.24322234768721,-5.80991037731051,347.252927233701
738254.48777337884530425072,-1.23091321553189,-5.79760124515519,347.203690705079
738254.48777346930000931025,-1.21860408337657,-5.78529211299987,347.080599383526
738254.48777355975471436977,-1.20629495122125,-5.76067384868923,347.191381572924
738254.48777365009300410748,-1.19398581906593,-5.73605558437859,347.240618101545
738254.48777374054770916700,-1.18167668691061,-5.73605558437859,347.265236365856
738254.48777383100241422653,-1.15705842259997,-5.71143732006795,347.339091158788
738254.48777392145711928606,-1.13244015828934,-5.674509923602,347.376018555254
738254.48777401191182434559,-1.1078218939787,-5.63758252713604,347.265236365856
738254.48777410236652940512,-1.07089449751274,-5.60065513067009,347.376018555254
738254.48777419282123446465,-1.03396710104678,-5.56372773420413,347.425255083875
738254.48777428327593952417,-1.00934883673615,-5.51449120558285,347.363709423098
738254.48777437373064458370,-0.972421440270191,-5.4775638091169,347.41294595172
738254.48777446406893432140,-0.935494043804234,-5.44063641265094,347.425255083875
738254.48777455452363938093,-0.923184911648915,-5.40370901618498,347.351400290943
738254.48777464497834444046,-0.898566647338277,-5.39139988402966,347.376018555254
738254.48777473543304949999,-0.898566647338277,-5.37909075187434,347.351400290943
738254.48777482588775455952,-0.910875779493596,-5.39139988402966,347.351400290943
738254.48777491634245961905,-0.935494043804234,-5.40370901618498,347.277545498011
738254.48777500679716467857,-0.984730572425509,-5.45294554480626,347.326782026632
738254.48777509725186973810,-1.0462762332021,-5.53910946989349,347.265236365856
738254.48777518770657479763,-1.1078218939787,-5.60065513067009,347.215999837235
738254.48777527816127985716,-1.15705842259997,-5.674509923602,347.215999837235
738254.48777536849956959486,-1.20629495122125,-5.72374645222327,347.22830896939
738254.48777545895427465439,-1.23091321553189,-5.78529211299987,347.215999837235
738254.48777554940897971392,-1.26784061199784,-5.79760124515519,347.22830896939
738254.48777563986368477345,-1.28014974415316,-5.82221950946582,347.265236365856
738254.48777573031838983297,-1.28014974415316,-5.83452864162114,347.22830896939
738254.48777582077309489250,-1.28014974415316,-5.84683777377646,347.215999837235
738254.48777591122779995203,-1.29245887630848,-5.84683777377646,347.22830896939
738254.48777600168250501156,-1.29245887630848,-5.84683777377646,347.289854630167
738254.48777609213721007109,-1.29245887630848,-5.84683777377646,347.22830896939
738254.48777618247549980879,-1.29245887630848,-5.84683777377646,347.22830896939
738254.48777627293020486832,-1.29245887630848,-5.84683777377646,347.129835912147
738254.48777636338490992785,-1.29245887630848,-5.85914690593178,347.191381572924
738254.48777645383961498737,-1.29245887630848,-5.84683777377646,347.092908515681
738254.48777654429432004690,-1.29245887630848,-5.85914690593178,347.092908515681
738254.48777663474902510643,-1.28014974415316,-5.84683777377646,347.117526779992
738254.48777672520373016596,-1.28014974415316,-5.84683777377646,347.129835912147
738254.48777681565843522549,-1.28014974415316,-5.84683777377646,347.117526779992
738254.48777690611314028502,-1.26784061199784,-5.84683777377646,347.129835912147
738254.48777699645143002272,-1.26784061199784,-5.84683777377646,347.006744590594
738254.48777708690613508224,-1.26784061199784,-5.83452864162114,347.117526779992
738254.48777717736084014177,-1.26784061199784,-5.83452864162114,347.117526779992
738254.48777726781554520130,-1.26784061199784,-5.83452864162114,347.129835912147
738254.48777735827025026083,-1.28014974415316,-5.84683777377646,347.166763308613
738254.48777744872495532036,-1.26784061199784,-5.84683777377646,347.191381572924
738254.48777753917966037989,-1.28014974415316,-5.84683777377646,347.166763308613
738254.48777762963436543941,-1.28014974415316,-5.84683777377646,347.142145044303
738254.48777772008907049894,-1.29245887630848,-5.80991037731051,347.22830896939
738254.48777781042736023664,-1.28014974415316,-5.674509923602,347.314472894477
738254.48777790088206529617,-1.18167668691061,-5.40370901618498,347.363709423098
738254.48777799133677035570,-0.947803175959553,-5.04674418368074,347.474491612496
738254.48777808179147541523,-0.664693136387219,-4.88672546566159,347.425255083875
738254.48777817224618047476,-0.406201361125523,-5.14521724092329,347.154454176458
738254.48777826270088553429,-0.356964832504247,-5.95761996317433,346.699016286711
738254.48777835315559059381,-0.935494043804234,-7.36086102888068,346.415906247139
738254.48777844361029565334,-1.53864151941486,-7.61935280414238,346.637470625935
738254.48777853406500071287,-1.73558763389996,-7.53318887905515,346.772871079643
738254.48777862440329045057,-1.77251503036592,-7.27469710379345,346.982126326284
738254.48777871485799551010,-1.80944242683187,-7.05313272499771,347.179072440769
738254.48777880531270056963,-1.84636982329783,-6.93004140344452,347.092908515681
738254.48777889576740562916,-1.74789676605528,-6.74540442111474,346.920580665507
738254.48777898622211068869,-1.698660237434,-6.49922177800836,346.920580665507
738254.48777907667681574821,-1.60018718019145,-6.27765739921262,346.957508061973
738254.48777916713152080774,-1.41555019786167,-5.99454735964029,347.04367198706
738254.48777925758622586727,-1.3047680084638,-5.80991037731051,347.191381572924
738254.48777934804093092680,-1.26784061199784,-5.71143732006795,347.265236365856
738254.48777943837922066450,-1.25553147984252,-5.674509923602,347.203690705079
738254.48777952883392572403,-1.24322234768721,-5.64989165929136,347.265236365856
738254.48777961928863078356,-1.23091321553189,-5.6129642628254,347.289854630167
738254.48777970974333584309,-1.21860408337657,-5.58834599851477,347.22830896939
738254.48777980019804090261,-1.20629495122125,-5.55141860204881,347.252927233701
738254.48777989065274596214,-1.19398581906593,-5.52680033773817,347.277545498011
738254.48777998110745102167,-1.16936755475529,-5.4775638091169,347.203690705079
738254.48778007156215608120,-1.15705842259997,-5.42832728049562,347.203690705079
738254.48778016201686114073,-1.14474929044465,-5.36678161971903,347.154454176458
738254.48778025235515087843,-1.1078218939787,-5.30523595894243,347.166763308613
738254.48778034280985593796,-1.07089449751274,-5.20676290169988,347.203690705079
738254.48778043326456099749,-1.05858536535742,-5.15752637307861,347.154454176458
738254.48778052371926605701,-1.00934883673615,-5.05905331583605,347.068290251371
738254.48778061417397111654,-0.960112308114872,-4.93596199428287,347.265236365856
738254.48778070462867617607,-0.910875779493596,-4.81287067272968,347.326782026632
738254.48778079508338123560,-0.849330118717002,-4.68977935117649,347.363709423098
738254.48778088553808629513,-0.800093590095726,-4.57899716177862,347.376018555254
738254.48778097599279135466,-0.750857061474451,-4.50514236884671,347.425255083875
738254.48778106633108109236,-0.713929665008494,-4.46821497238075,347.449873348186
738254.48778115678578615189,-0.713929665008494,-4.49283323669139,347.400636819564
738254.48778124724049121141,-0.726238797163813,-4.59130629393394,347.511419008962
738254.48778133769519627094,-0.750857061474451,-4.71439761548713,347.511419008962
738254.48778142814990133047,-0.812402722251045,-4.88672546566159,347.486800744652
738254.48778151860460639000,-0.87394838302764,-5.05905331583605,347.41294595172
738254.48778160905931144953,-0.947803175959553,-5.24369029816584,347.314472894477
738254.48778169951401650906,-1.03396710104678,-5.39139988402966,347.289854630167
738254.48778178996872156858,-1.1078218939787,-5.52680033773817,347.339091158788
738254.48778188030701130629,-1.16936755475529,-5.62527339498072,347.265236365856
738254.48778197076171636581,-1.21860408337657,-5.71143732006795,347.154454176458
738254.48778206121642142534,-1.24322234768721,-5.76067384868923,347.240618101545
738254.48778215167112648487,-1.28014974415316,-5.79760124515519,347.166763308613
738254.48778224212583154440,-1.28014974415316,-5.80991037731051,347.166763308613
738254.48778233258053660393,-1.29245887630848,-5.80991037731051,347.191381572924
738254.48778242303524166346,-1.29245887630848,-5.82221950946582,347.179072440769
738254.48778251348994672298,-1.29245887630848,-5.83452864162114,347.191381572924
738254.48778260394465178251,-1.3047680084638,-5.83452864162114,347.240618101545
738254.48778269428294152021,-1.29245887630848,-5.83452864162114,347.22830896939
738254.48778278473764657974,-1.3047680084638,-5.82221950946582,347.166763308613
738254.48778287519235163927,-1.29245887630848,-5.82221950946582,347.22830896939
738254.48778296564705669880,-1.3047680084638,-5.82221950946582,347.252927233701
738254.48778305610176175833,-1.29245887630848,-5.82221950946582,347.240618101545
738254.48778314655646681786,-1.29245887630848,-5.82221950946582,347.22830896939
738254.48778323701117187738,-1.29245887630848,-5.82221950946582,347.240618101545
738254.48778332746587693691,-1.3047680084638,-5.82221950946582,347.252927233701
738254.48778341792058199644,-1.29245887630848,-5.82221950946582,347.203690705079
738254.48778350825887173414,-1.29245887630848,-5.82221950946582,347.252927233701
738254.48778359871357679367,-1.29245887630848,-5.82221950946582,347.240618101545
738254.48778368916828185320,-1.29245887630848,-5.82221950946582,347.191381572924
738254.48778377962298691273,-1.29245887630848,-5.83452864162114,347.215999837235
738254.48778387007769197226,-1.3047680084638,-5.83452864162114,347.277545498011
738254.48778396053239703178,-1.3047680084638,-5.84683777377646,346.982126326284
738254.48778405098710209131,-1.3047680084638,-5.84683777377646,347.166763308613
738254.48778414144180715084,-1.3047680084638,-5.84683777377646,347.240618101545
738254.48778423189651221037,-1.3047680084638,-5.84683777377646,347.068290251371
738254.48778432223480194807,-1.31707714061912,-5.85914690593178,347.092908515681
738254.48778441268950700760,-1.3047680084638,-5.85914690593178,347.068290251371
738254.48778450314421206713,-1.3047680084638,-5.85914690593178,347.080599383526
738254.48778459359891712666,-1.31707714061912,-5.85914690593178,347.105217647837
738254.48778468405362218618,-1.31707714061912,-5.85914690593178,347.117526779992
738254.48778477450832724571,-1.31707714061912,-5.85914690593178,347.117526779992
738254.48778486496303230524,-1.31707714061912,-5.85914690593178,347.154454176458
738254.48778495541773736477,-1.31707714061912,-5.85914690593178,347.166763308613
738254.48778504587244242430,-1.31707714061912,-5.85914690593178,347.154454176458
738254.48778513621073216200,-1.3047680084638,-5.85914690593178,347.191381572924
738254.48778522666543722153,-1.31707714061912,-5.8714560380871,347.105217647837
738254.48778531712014228106,-1.31707714061912,-5.85914690593178,347.191381572924
738254.48778540757484734058,-1.31707714061912,-5.85914690593178,347.179072440769
738254.48778549802955240011,-1.31707714061912,-5.85914690593178,347.215999837235
738254.48778558848425745964,-1.31707714061912,-5.85914690593178,347.142145044303
738254.48778567893896251917,-1.31707714061912,-5.85914690593178,347.129835912147
738254.48778576939366757870,-1.31707714061912,-5.85914690593178,347.117526779992
738254.48778585984837263823,-1.31707714061912,-5.85914690593178,347.092908515681
738254.48778595018666237593,-1.31707714061912,-5.8714560380871,347.166763308613
738254.48778604064136743546,-1.31707714061912,-5.8714560380871,347.154454176458
738254.48778613109607249498,-1.31707714061912,-5.85914690593178,347.179072440769
738254.48778622155077755451,-1.31707714061912,-5.85914690593178,347.142145044303
738254.48778631200548261404,-1.3047680084638,-5.85914690593178,347.179072440769
738254.48778640246018767357,-1.31707714061912,-5.8714560380871,347.166763308613
738254.48778649291489273310,-1.31707714061912,-5.8714560380871,347.215999837235
738254.48778658336959779263,-1.31707714061912,-5.85914690593178,347.215999837235
738254.48778667382430285215,-1.31707714061912,-5.85914690593178,347.154454176458
738254.48778676427900791168,-1.31707714061912,-5.85914690593178,347.191381572924
738254.48778685461729764938,-1.31707714061912,-5.85914690593178,347.215999837235
738254.48778694507200270891,-1.31707714061912,-5.85914690593178,347.240618101545
738254.48778703552670776844,-1.31707714061912,-5.8714560380871,347.240618101545
738254.48778712598141282797,-1.3047680084638,-5.85914690593178,347.154454176458
738254.48778721643611788750,-1.31707714061912,-5.85914690593178,347.22830896939
738254.48778730689082294703,-1.31707714061912,-5.85914690593178,347.203690705079
738254.48778739734552800655,-1.31707714061912,-5.85914690593178,347.142145044303
738254.48778748780023306608,-1.31707714061912,-5.85914690593178,347.031362854905
738254.48778757825493812561,-1.31707714061912,-5.85914690593178,347.142145044303
738254.48778766859322786331,-1.3047680084638,-5.85914690593178,347.166763308613
738254.48778775904793292284,-1.31707714061912,-5.85914690593178,347.191381572924
738254.48778784950263798237,-1.31707714061912,-5.85914690593178,347.215999837235
738254.48778793995734304190,-1.31707714061912,-5.85914690593178,347.191381572924
738254.48778803041204810143,-1.31707714061912,-5.8714560380871,347.166763308613
738254.48778812086675316095,-1.31707714061912,-5.85914690593178,347.117526779992
738254.48778821132145822048,-1.31707714061912,-5.85914690593178,347.129835912147
738254.48778830177616328001,-1.31707714061912,-5.85914690593178,347.129835912147
738254.48778839223086833954,-1.31707714061912,-5.85914690593178,347.129835912147
738254.48778848256915807724,-1.31707714061912,-5.85914690593178,347.154454176458
738254.48778857302386313677,-1.31707714061912,-5.85914690593178,347.179072440769
738254.48778866347856819630,-1.31707714061912,-5.85914690593178,347.240618101545
738254.48778875393327325583,-1.31707714061912,-5.85914690593178,347.179072440769
738254.48778884438797831535,-1.3047680084638,-5.85914690593178,347.080599383526
738254.48778893484268337488,-1.3047680084638,-5.85914690593178,347.142145044303
738254.48778902529738843441,-1.31707714061912,-5.85914690593178,347.117526779992
738254.48778911575209349394,-1.3047680084638,-5.8714560380871,347.129835912147
738254.48778920620679855347,-1.3047680084638,-5.85914690593178,347.142145044303
738254.48778929654508829117,-1.3047680084638,-5.8714560380871,347.129835912147
738254.48778938699979335070,-1.3047680084638,-5.84683777377646,347.105217647837
738254.48778947745449841022,-1.31707714061912,-5.85914690593178,347.203690705079
738254.48778956790920346975,-1.3047680084638,-5.85914690593178,347.142145044303
738254.48778965836390852928,-1.31707714061912,-5.85914690593178,347.154454176458
738254.48778974881861358881,-1.3047680084638,-5.85914690593178,347.179072440769
738254.48778983927331864834,-1.31707714061912,-5.85914690593178,347.179072440769
738254.48778992972802370787,-1.31707714061912,-5.85914690593178,347.252927233701
738254.48779002018272876740,-1.31707714061912,-5.85914690593178,347.22830896939
738254.48779011052101850510,-1.31707714061912,-5.85914690593178,347.142145044303
738254.48779020097572356462,-1.3047680084638,-5.84683777377646,347.166763308613
738254.48779029143042862415,-1.31707714061912,-5.85914690593178,347.166763308613
738254.48779038188513368368,-1.3047680084638,-5.85914690593178,347.22830896939
738254.48779047233983874321,-1.3047680084638,-5.85914690593178,347.154454176458
738254.48779056279454380274,-1.3047680084638,-5.84683777377646,347.166763308613
738254.48779065324924886227,-1.3047680084638,-5.85914690593178,347.203690705079
738254.48779074370395392179,-1.29245887630848,-5.84683777377646,347.22830896939
738254.48779083415865898132,-1.29245887630848,-5.84683777377646,347.179072440769
738254.48779092449694871902,-1.29245887630848,-5.83452864162114,347.191381572924
738254.48779101495165377855,-1.26784061199784,-5.80991037731051,347.01905372275
738254.48779110540635883808,-1.24322234768721,-5.78529211299987,347.117526779992
738254.48779119586106389761,-1.24322234768721,-5.79760124515519,347.252927233701
738254.48779128631576895714,-1.28014974415316,-5.82221950946582,347.277545498011
738254.48779137677047401667,-1.28014974415316,-5.79760124515519,347.252927233701
738254.48779146722517907619,-1.28014974415316,-5.80991037731051,347.22830896939
738254.48779155767988413572,-1.29245887630848,-5.83452864162114,347.252927233701
738254.48779164813458919525,-1.31707714061912,-5.85914690593178,347.154454176458
738254.48779173847287893295,-1.31707714061912,-5.8714560380871,347.22830896939
738254.48779182892758399248,-1.31707714061912,-5.8714560380871,347.240618101545
738254.48779191938228905201,-1.31707714061912,-5.85914690593178,347.22830896939
738254.48779200983699411154,-1.32938627277444,-5.8714560380871,347.252927233701
738254.48779210029169917107,-1.32938627277444,-5.88376517024242,347.215999837235
738254.48779219074640423059,-1.32938627277444,-5.88376517024242,347.22830896939
738254.48779228120110929012,-1.3047680084638,-5.90838343455306,347.22830896939
738254.48779237165581434965,-1.16936755475529,-5.69912818791264,347.462182480341
738254.48779246211051940918,-0.910875779493596,-5.29292682678711,347.462182480341
738254.48779255244880914688,-0.344655700348928,-4.40666931160415,346.969817194128
738254.48779264290351420641,-0.0861639250872321,-3.72966704306162,346.85903500473
738254.48779273335821926594,-0.76316619362977,-4.48052410453607,346.809798476109
738254.48779282381292432547,-1.48940499079358,-5.95761996317433,346.674398022401
738254.48779291426762938499,-1.45247759432763,-6.03147475610625,346.932889797662
738254.48779300472233444452,-1.31707714061912,-5.89607430239774,347.105217647837
738254.48779309517703950405,-1.3047680084638,-5.84683777377646,347.105217647837
738254.48779318563174456358,-1.3047680084638,-5.85914690593178,347.092908515681
738254.48779327608644962311,-1.3047680084638,-5.8714560380871,347.203690705079
738254.48779336642473936081,-1.31707714061912,-5.8714560380871,347.179072440769
738254.48779345687944442034,-1.3047680084638,-5.85914690593178,347.22830896939
738254.48779354733414947987,-1.3047680084638,-5.85914690593178,347.203690705079
738254.48779363778885453939,-1.29245887630848,-5.84683777377646,347.215999837235
738254.48779372824355959892,-1.29245887630848,-5.84683777377646,347.215999837235
738254.48779381869826465845,-1.28014974415316,-5.83452864162114,347.22830896939
738254.48779390915296971798,-1.28014974415316,-5.83452864162114,347.22830896939
738254.48779399960767477751,-1.28014974415316,-5.82221950946582,347.215999837235
738254.48779409006237983704,-1.26784061199784,-5.80991037731051,347.215999837235
738254.48779418040066957474,-1.26784061199784,-5.79760124515519,347.215999837235
738254.48779427085537463427,-1.24322234768721,-5.78529211299987,347.22830896939
738254.48779436131007969379,-1.24322234768721,-5.77298298084455,347.240618101545
738254.48779445176478475332,-1.21860408337657,-5.76067384868923,347.22830896939
738254.48779454221948981285,-1.20629495122125,-5.73605558437859,347.142145044303
738254.48779463267419487238,-1.19398581906593,-5.71143732006795,347.215999837235
738254.48779472312889993191,-1.16936755475529,-5.68681905575732,347.363709423098
738254.48779481358360499144,-1.13244015828934,-5.66220079144668,347.388327687409
738254.48779490403831005096,-1.12013102613402,-5.62527339498072,347.41294595172
738254.48779499437659978867,-1.08320362966806,-5.60065513067009,347.388327687409
738254.48779508483130484819,-1.05858536535742,-5.56372773420413,347.41294595172
738254.48779517528600990772,-1.02165796889147,-5.52680033773817,347.43756421603
738254.48779526574071496725,-0.997039704580828,-5.50218207342753,347.43756421603
738254.48779535619542002678,-0.972421440270191,-5.45294554480626,347.41294595172
738254.48779544665012508631,-0.960112308114872,-5.45294554480626,347.474491612496
738254.48779553710483014584,-0.947803175959553,-5.42832728049562,347.43756421603
738254.48779562755953520536,-0.935494043804234,-5.4160181483403,347.314472894477
738254.48779571801424026489,-0.947803175959553,-5.4160181483403,347.388327687409
738254.48779580835253000259,-0.960112308114872,-5.4160181483403,347.326782026632
738254.48779589880723506212,-0.997039704580828,-5.46525467696158,347.22830896939
738254.48779598926194012165,-1.03396710104678,-5.50218207342753,347.289854630167
738254.48779607971664518118,-1.09551276182338,-5.56372773420413,347.302163762322
738254.48779617017135024071,-1.13244015828934,-5.6129642628254,347.252927233701
738254.48779626062605530024,-1.18167668691061,-5.674509923602,347.240618101545
738254.48779635108076035976,-1.20629495122125,-5.71143732006795,347.277545498011
738254.48779644153546541929,-1.23091321553189,-5.73605558437859,347.22830896939
738254.48779653199017047882,-1.24322234768721,-5.76067384868923,347.179072440769
738254.48779662232846021652,-1.25553147984252,-5.78529211299987,347.302163762322
738254.48779671278316527605,-1.25553147984252,-5.78529211299987,347.265236365856
738254.48779680323787033558,-1.25553147984252,-5.79760124515519,347.203690705079
738254.48779689369257539511,-1.26784061199784,-5.80991037731051,347.240618101545
738254.48779698414728045464,-1.26784061199784,-5.79760124515519,347.277545498011
738254.48779707460198551416,-1.26784061199784,-5.79760124515519,347.215999837235
738254.48779716505669057369,-1.25553147984252,-5.80991037731051,347.191381572924
738254.48779725551139563322,-1.26784061199784,-5.80991037731051,347.191381572924
738254.48779734596610069275,-1.25553147984252,-5.79760124515519,347.142145044303
738254.48779743642080575228,-1.26784061199784,-5.80991037731051,347.105217647837
738254.48779752675909548998,-1.25553147984252,-5.80991037731051,347.105217647837
738254.48779761721380054951,-1.26784061199784,-5.80991037731051,347.117526779992
738254.48779770766850560904,-1.25553147984252,-5.79760124515519,347.166763308613
738254.48779779812321066856,-1.25553147984252,-5.80991037731051,347.203690705079
738254.48779788857791572809,-1.26784061199784,-5.80991037731051,347.215999837235
738254.48779797903262078762,-1.26784061199784,-5.80991037731051,347.215999837235
738254.48779806948732584715,-1.28014974415316,-5.82221950946582,347.129835912147
738254.48779815994203090668,-1.26784061199784,-5.82221950946582,347.055981119215
738254.48779825039673596621,-1.26784061199784,-5.82221950946582,347.154454176458
738254.48779834073502570391,-1.28014974415316,-5.82221950946582,347.215999837235
738254.48779843118973076344,-1.28014974415316,-5.82221950946582,347.142145044303
738254.48779852164443582296,-1.28014974415316,-5.83452864162114,347.215999837235
738254.48779861209914088249,-1.28014974415316,-5.83452864162114,347.191381572924
738254.48779870255384594202,-1.28014974415316,-5.83452864162114,347.166763308613
738254.48779879300855100155,-1.29245887630848,-5.84683777377646,347.215999837235
738254.48779888346325606108,-1.29245887630848,-5.83452864162114,347.191381572924
738254.48779897391796112061,-1.29245887630848,-5.84683777377646,347.22830896939
738254.48779906437266618013,-1.29245887630848,-5.84683777377646,347.22830896939
738254.48779915471095591784,-1.3047680084638,-5.85914690593178,347.203690705079
738254.48779924516566097736,-1.31707714061912,-5.83452864162114,347.240618101545
738254.48779933562036603689,-1.31707714061912,-5.72374645222327,347.351400290943
738254.48779942607507109642,-1.23091321553189,-5.4775638091169,347.474491612496
738254.48779951652977615595,-1.02165796889147,-5.14521724092329,347.486800744652
738254.48779960698448121548,-0.750857061474451,-4.98519852290414,347.499109876807
738254.48779969743918627501,-0.492365286212755,-5.18214463738924,347.265236365856
738254.48779978789389133453,-0.356964832504247,-5.78529211299987,346.920580665507
738254.48779987834859639406,-0.861639250872321,-7.21315144301686,346.502070172226
738254.48779996868688613176,-1.47709585863826,-7.59473453983174,346.662088890245
738254.48780005914159119129,-1.74789676605528,-7.373170161036,346.932889797662
738254.48780014959629625082,-1.73558763389996,-7.07775098930835,347.105217647837
738254.48780024005100131035,-1.7602058982106,-6.93004140344452,347.129835912147
738254.48780033050570636988,-1.74789676605528,-6.79464094973601,347.068290251371
738254.48780042096041142941,-1.67404197312337,-6.59769483525091,346.932889797662
738254.48780051141511648893,-1.63711457665741,-6.37613045645517,346.969817194128
738254.48780060186982154846,-1.52633238725954,-6.15456607765943,347.04367198706
738254.48780069232452660799,-1.37862280139571,-5.89607430239774,347.129835912147
738254.48780078266281634569,-1.28014974415316,-5.76067384868923,347.252927233701
738254.48780087311752140522,-1.25553147984252,-5.69912818791264,347.289854630167
738254.48780096357222646475,-1.25553147984252,-5.66220079144668,347.105217647837
738254.48780105402693152428,-1.24322234768721,-5.64989165929136,347.179072440769
738254.48780114448163658381,-1.23091321553189,-5.62527339498072,347.22830896939
738254.48780123493634164333,-1.21860408337657,-5.58834599851477,347.179072440769
738254.48780132539104670286,-1.20629495122125,-5.56372773420413,347.191381572924
738254.48780141584575176239,-1.19398581906593,-5.52680033773817,347.215999837235
738254.48780150630045682192,-1.18167668691061,-5.4775638091169,347.22830896939
738254.48780159663874655962,-1.15705842259997,-5.44063641265094,347.265236365856
738254.48780168709345161915,-1.14474929044465,-5.39139988402966,347.277545498011
738254.48780177754815667868,-1.12013102613402,-5.30523595894243,347.240618101545
738254.48780186800286173820,-1.09551276182338,-5.23138116601052,347.351400290943
738254.48780195845756679773,-1.05858536535742,-5.13290810876797,347.252927233701
738254.48780204891227185726,-1.03396710104678,-5.03443505152542,347.289854630167
738254.48780213936697691679,-0.972421440270191,-4.91134372997223,347.363709423098
738254.48780222982168197632,-0.935494043804234,-4.80056154057436,347.388327687409
738254.48780232027638703585,-0.898566647338277,-4.67747021902117,347.388327687409
738254.48780241061467677355,-0.861639250872321,-4.57899716177862,347.41294595172
738254.48780250106938183308,-0.824711854406364,-4.51745150100202,347.486800744652
738254.48780259152408689260,-0.800093590095726,-4.50514236884671,347.474491612496
738254.48780268197879195213,-0.800093590095726,-4.54206976531266,347.486800744652
738254.48780277243349701166,-0.812402722251045,-4.61592455824458,347.474491612496
738254.48780286288820207119,-0.837020986561683,-4.7636341441084,347.523728141118
738254.48780295334290713072,-0.861639250872321,-4.84979806919563,347.499109876807
738254.48780304379761219025,-0.923184911648915,-5.00981678721478,347.43756421603
738254.48780313425231724977,-0.972421440270191,-5.18214463738924,347.400636819564
738254.48780322459060698748,-1.05858536535742,-5.35447248756371,347.376018555254
738254.48780331504531204700,-1.12013102613402,-5.50218207342753,347.351400290943
738254.48780340550001710653,-1.16936755475529,-5.6129642628254,347.351400290943
738254.48780349595472216606,-1.19398581906593,-5.69912818791264,347.314472894477
738254.48780358640942722559,-1.23091321553189,-5.74836471653391,347.277545498011
738254.48780367686413228512,-1.26784061199784,-5.77298298084455,347.289854630167
738254.48780376731883734465,-1.28014974415316,-5.80991037731051,347.240618101545
738254.48780385777354240417,-1.28014974415316,-5.82221950946582,347.166763308613
738254.48780394822824746370,-1.29245887630848,-5.82221950946582,347.240618101545
738254.48780403856653720140,-1.28014974415316,-5.80991037731051,347.154454176458
738254.48780412902124226093,-1.29245887630848,-5.82221950946582,347.129835912147
738254.48780421947594732046,-1.29245887630848,-5.83452864162114,347.142145044303
738254.48780430993065237999,-1.3047680084638,-5.83452864162114,347.166763308613
738254.48780440038535743952,-1.3047680084638,-5.82221950946582,347.142145044303
738254.48780449084006249905,-1.29245887630848,-5.80991037731051,347.22830896939
738254.48780458129476755857,-1.29245887630848,-5.82221950946582,347.265236365856
738254.48780467174947261810,-1.29245887630848,-5.82221950946582,347.240618101545
738254.48780476220417767763,-1.29245887630848,-5.82221950946582,347.166763308613
738254.48780485254246741533,-1.29245887630848,-5.82221950946582,347.252927233701
738254.48780494299717247486,-1.3047680084638,-5.82221950946582,347.277545498011
738254.48780503345187753439,-1.3047680084638,-5.82221950946582,347.179072440769
738254.48780512390658259392,-1.3047680084638,-5.83452864162114,347.191381572924
738254.48780521436128765345,-1.29245887630848,-5.83452864162114,347.092908515681
738254.48780530481599271297,-1.3047680084638,-5.83452864162114,347.166763308613
738254.48780539527069777250,-1.3047680084638,-5.84683777377646,347.203690705079
738254.48780548572540283203,-1.3047680084638,-5.83452864162114,347.166763308613
738254.48780557618010789156,-1.31707714061912,-5.85914690593178,347.215999837235
738254.48780566651839762926,-1.3047680084638,-5.84683777377646,347.166763308613
738254.48780575697310268879,-1.31707714061912,-5.85914690593178,347.191381572924
738254.48780584742780774832,-1.31707714061912,-5.8714560380871,347.166763308613
738254.48780593788251280785,-1.32938627277444,-5.8714560380871,347.154454176458
738254.48780602833721786737,-1.32938627277444,-5.85914690593178,347.166763308613
738254.48780611879192292690,-1.31707714061912,-5.8714560380871,347.179072440769
738254.48780620924662798643,-1.3047680084638,-5.8714560380871,347.166763308613
738254.48780629970133304596,-1.31707714061912,-5.8714560380871,347.166763308613
738254.48780639015603810549,-1.31707714061912,-5.8714560380871,347.191381572924
738254.48780648049432784319,-1.32938627277444,-5.88376517024242,347.191381572924
738254.48780657094903290272,-1.31707714061912,-5.8714560380871,347.265236365856
738254.48780666140373796225,-1.31707714061912,-5.8714560380871,347.22830896939
738254.48780675185844302177,-1.32938627277444,-5.88376517024242,347.240618101545
738254.48780684231314808130,-1.3047680084638,-5.8714560380871,347.129835912147
738254.48780693276785314083,-1.3047680084638,-5.8714560380871,347.22830896939
738254.48780702322255820036,-1.31707714061912,-5.88376517024242,347.22830896939
738254.48780711367726325989,-1.31707714061912,-5.8714560380871,347.129835912147
738254.48780720413196831942,-1.31707714061912,-5.8714560380871,347.22830896939
738254.48780729447025805712,-1.34169540492976,-5.89607430239774,347.252927233701
738254.48780738492496311665,-1.31707714061912,-5.88376517024242,347.215999837235
738254.48780747537966817617,-1.31707714061912,-5.89607430239774,347.215999837235
738254.48780756583437323570,-1.3047680084638,-5.8714560380871,347.179072440769
738254.48780765628907829523,-1.31707714061912,-5.8714560380871,347.240618101545
738254.48780774674378335476,-1.31707714061912,-5.88376517024242,347.203690705079
738254.48780783719848841429,-1.32938627277444,-5.88376517024242,347.154454176458
738254.48780792765319347382,-1.31707714061912,-5.8714560380871,347.117526779992
738254.48780801810789853334,-1.31707714061912,-5.8714560380871,347.129835912147
738254.48780810844618827105,-1.31707714061912,-5.88376517024242,347.129835912147
738254.48780819890089333057,-1.31707714061912,-5.88376517024242,347.117526779992
738254.48780828935559839010,-1.31707714061912,-5.88376517024242,347.142145044303
738254.48780837981030344963,-1.31707714061912,-5.88376517024242,347.215999837235
738254.48780847026500850916,-1.31707714061912,-5.88376517024242,347.22830896939
738254.48780856071971356869,-1.31707714061912,-5.88376517024242,347.179072440769
738254.48780865117441862822,-1.32938627277444,-5.88376517024242,347.203690705079
738254.48780874162912368774,-1.31707714061912,-5.88376517024242,347.055981119215
738254.48780883208382874727,-1.31707714061912,-5.88376517024242,347.142145044303
738254.48780892253853380680,-1.32938627277444,-5.88376517024242,347.240618101545
738254.48780901287682354450,-1.31707714061912,-5.88376517024242,347.240618101545
738254.48780910333152860403,-1.31707714061912,-5.8714560380871,347.240618101545
738254.48780919378623366356,-1.32938627277444,-5.88376517024242,347.203690705079
738254.48780928424093872309,-1.31707714061912,-5.8714560380871,347.240618101545
738254.48780937469564378262,-1.32938627277444,-5.88376517024242,347.252927233701
738254.48780946515034884214,-1.32938627277444,-5.89607430239774,347.191381572924
738254.48780955560505390167,-1.34169540492976,-5.88376517024242,347.240618101545
738254.48780964605975896120,-1.31707714061912,-5.88376517024242,347.203690705079
738254.48780973651446402073,-1.31707714061912,-5.88376517024242,347.166763308613
738254.48780982685275375843,-1.31707714061912,-5.88376517024242,347.191381572924
738254.48780991730745881796,-1.31707714061912,-5.85914690593178,347.252927233701
738254.48781000776216387749,-1.31707714061912,-5.8714560380871,347.191381572924
738254.48781009821686893702,-1.31707714061912,-5.8714560380871,347.105217647837
738254.48781018867157399654,-1.32938627277444,-5.88376517024242,347.203690705079
738254.48781027912627905607,-1.31707714061912,-5.8714560380871,347.265236365856
738254.48781036958098411560,-1.3047680084638,-5.8714560380871,347.240618101545
738254.48781046003568917513,-1.3047680084638,-5.85914690593178,347.080599383526
738254.48781055049039423466,-1.32938627277444,-5.8714560380871,347.191381572924
738254.48781064082868397236,-1.31707714061912,-5.85914690593178,347.203690705079
738254.48781073128338903189,-1.31707714061912,-5.8714560380871,347.240618101545
738254.48781082173809409142,-1.31707714061912,-5.8714560380871,347.166763308613
738254.48781091219279915094,-1.31707714061912,-5.88376517024242,347.240618101545
738254.48781100264750421047,-1.31707714061912,-5.8714560380871,347.277545498011
738254.48781109310220927000,-1.3047680084638,-5.8714560380871,347.277545498011
738254.48781118355691432953,-1.31707714061912,-5.8714560380871,347.179072440769
738254.48781127401161938906,-1.31707714061912,-5.8714560380871,347.179072440769
738254.48781136446632444859,-1.3047680084638,-5.85914690593178,347.191381572924
738254.48781145480461418629,-1.3047680084638,-5.8714560380871,347.179072440769
738254.48781154525931924582,-1.29245887630848,-5.8714560380871,347.179072440769
738254.48781163571402430534,-1.28014974415316,-5.84683777377646,347.117526779992
738254.48781172616872936487,-1.26784061199784,-5.83452864162114,347.105217647837
738254.48781181662343442440,-1.25553147984252,-5.82221950946582,347.191381572924
738254.48781190707813948393,-1.25553147984252,-5.80991037731051,347.166763308613
738254.48781199753284454346,-1.26784061199784,-5.80991037731051,347.191381572924
738254.48781208798754960299,-1.28014974415316,-5.82221950946582,347.166763308613
738254.48781217844225466251,-1.29245887630848,-5.83452864162114,346.969817194128
738254.48781226878054440022,-1.29245887630848,-5.85914690593178,346.994435458439
738254.48781235923524945974,-1.3047680084638,-5.8714560380871,347.166763308613
738254.48781244968995451927,-1.31707714061912,-5.88376517024242,347.22830896939
738254.48781254014465957880,-1.31707714061912,-5.8714560380871,347.252927233701
738254.48781263059936463833,-1.32938627277444,-5.8714560380871,347.203690705079
738254.48781272105406969786,-1.31707714061912,-5.8714560380871,347.265236365856
738254.48781281150877475739,-1.31707714061912,-5.88376517024242,347.277545498011
738254.48781290196347981691,-1.3047680084638,-5.88376517024242,347.166763308613
738254.48781299241818487644,-1.16936755475529,-5.63758252713604,347.43756421603
738254.48781308275647461414,-0.861639250872321,-5.12059897661265,347.560655537584
738254.48781317321117967367,-0.344655700348928,-4.33281451867224,347.215999837235
738254.48781326366588473320,-0.160018718019145,-3.87737662892544,346.895962401196
738254.48781335412058979273,-0.812402722251045,-4.78825240841904,346.699016286711
738254.48781344457529485226,-1.46478672648295,-6.22842087059135,346.612852361624
738254.48781353502999991179,-1.52633238725954,-6.24073000274667,346.748252815332
738254.48781362548470497131,-1.42785933001699,-6.04378388826156,346.945198929818
738254.48781371593941003084,-1.32938627277444,-5.90838343455306,347.142145044303
738254.48781380639411509037,-1.3047680084638,-5.88376517024242,347.117526779992
738254.48781389673240482807,-1.31707714061912,-5.8714560380871,347.252927233701
738254.48781398718710988760,-1.31707714061912,-5.8714560380871,347.22830896939
738254.48781407764181494713,-1.3047680084638,-5.8714560380871,347.22830896939
738254.48781416809652000666,-1.3047680084638,-5.85914690593178,347.203690705079
738254.48781425855122506618,-1.29245887630848,-5.84683777377646,347.215999837235
738254.48781434900593012571,-1.28014974415316,-5.83452864162114,347.215999837235
738254.48781443946063518524,-1.28014974415316,-5.82221950946582,347.215999837235
738254.48781452991534024477,-1.28014974415316,-5.80991037731051,347.22830896939
738254.48781462037004530430,-1.26784061199784,-5.79760124515519,347.215999837235
738254.48781471070833504200,-1.25553147984252,-5.78529211299987,347.22830896939
738254.48781480116304010153,-1.25553147984252,-5.77298298084455,347.252927233701
738254.48781489161774516106,-1.23091321553189,-5.74836471653391,347.314472894477
738254.48781498207245022058,-1.21860408337657,-5.72374645222327,347.302163762322
738254.48781507252715528011,-1.20629495122125,-5.71143732006795,347.302163762322
738254.48781516298186033964,-1.19398581906593,-5.68681905575732,347.326782026632
738254.48781525343656539917,-1.16936755475529,-5.66220079144668,347.388327687409
738254.48781534389127045870,-1.14474929044465,-5.62527339498072,347.326782026632
738254.48781543434597551823,-1.12013102613402,-5.60065513067009,347.388327687409
738254.48781552468426525593,-1.1078218939787,-5.56372773420413,347.363709423098
738254.48781561513897031546,-1.07089449751274,-5.51449120558285,347.363709423098
738254.48781570559367537498,-1.0462762332021,-5.4775638091169,347.203690705079
738254.48781579604838043451,-1.02165796889147,-5.44063641265094,347.289854630167
738254.48781588650308549404,-0.997039704580828,-5.40370901618498,347.425255083875
738254.48781597695779055357,-0.972421440270191,-5.39139988402966,347.41294595172
738254.48781606741249561310,-0.960112308114872,-5.36678161971903,347.400636819564
738254.48781615786720067263,-0.947803175959553,-5.36678161971903,347.41294595172
738254.48781624832190573215,-0.947803175959553,-5.36678161971903,347.388327687409
738254.48781633866019546986,-0.960112308114872,-5.36678161971903,347.376018555254
738254.48781642911490052938,-0.972421440270191,-5.37909075187434,347.302163762322
738254.48781651956960558891,-1.00934883673615,-5.42832728049562,347.339091158788
738254.48781661002431064844,-1.05858536535742,-5.48987294127221,347.289854630167
738254.48781670047901570797,-1.1078218939787,-5.56372773420413,347.179072440769
738254.48781679093372076750,-1.15705842259997,-5.63758252713604,347.252927233701
738254.48781688138842582703,-1.19398581906593,-5.674509923602,347.277545498011
738254.48781697184313088655,-1.23091321553189,-5.72374645222327,347.265236365856
738254.48781706229783594608,-1.24322234768721,-5.74836471653391,347.191381572924
738254.48781715263612568378,-1.25553147984252,-5.77298298084455,347.277545498011
738254.48781724309083074331,-1.26784061199784,-5.78529211299987,347.277545498011
738254.48781733354553580284,-1.26784061199784,-5.79760124515519,347.203690705079
738254.48781742400024086237,-1.26784061199784,-5.79760124515519,347.22830896939
738254.48781751445494592190,-1.26784061199784,-5.79760124515519,347.240618101545
738254.48781760490965098143,-1.26784061199784,-5.78529211299987,347.265236365856
738254.48781769536435604095,-1.26784061199784,-5.79760124515519,347.203690705079
738254.48781778581906110048,-1.26784061199784,-5.79760124515519,347.289854630167
738254.48781787627376616001,-1.26784061199784,-5.79760124515519,347.265236365856
738254.48781796661205589771,-1.25553147984252,-5.79760124515519,347.277545498011
738254.48781805706676095724,-1.26784061199784,-5.79760124515519,347.203690705079
738254.48781814752146601677,-1.26784061199784,-5.79760124515519,347.265236365856
738254.48781823797617107630,-1.26784061199784,-5.78529211299987,347.252927233701
738254.48781832843087613583,-1.26784061199784,-5.79760124515519,347.22830896939
738254.48781841888558119535,-1.28014974415316,-5.79760124515519,347.302163762322
738254.48781850934028625488,-1.28014974415316,-5.80991037731051,347.265236365856
738254.48781859979499131441,-1.28014974415316,-5.80991037731051,347.22830896939
738254.48781869024969637394,-1.28014974415316,-5.82221950946582,347.166763308613
738254.48781878058798611164,-1.29245887630848,-5.82221950946582,347.154454176458
738254.48781887104269117117,-1.3047680084638,-5.83452864162114,347.166763308613
738254.48781896149739623070,-1.29245887630848,-5.83452864162114,347.129835912147
738254.48781905195210129023,-1.3047680084638,-5.84683777377646,347.105217647837
738254.48781914240680634975,-1.3047680084638,-5.84683777377646,347.117526779992
738254.48781923286151140928,-1.3047680084638,-5.83452864162114,346.982126326284
738254.48781932331621646881,-1.3047680084638,-5.84683777377646,347.055981119215
738254.48781941377092152834,-1.3047680084638,-5.84683777377646,347.142145044303
738254.48781950422562658787,-1.31707714061912,-5.84683777377646,347.142145044303
738254.48781959456391632557,-1.32938627277444,-5.84683777377646,347.154454176458
738254.48781968501862138510,-1.32938627277444,-5.85914690593178,347.215999837235
738254.48781977547332644463,-1.31707714061912,-5.85914690593178,347.203690705079
738254.48781986592803150415,-1.31707714061912,-5.85914690593178,347.215999837235
738254.48781995638273656368,-1.31707714061912,-5.85914690593178,347.252927233701
738254.48782004683744162321,-1.32938627277444,-5.84683777377646,347.203690705079
738254.48782013729214668274,-1.32938627277444,-5.84683777377646,347.191381572924
738254.48782022774685174227,-1.31707714061912,-5.8714560380871,347.22830896939
738254.48782031820155680180,-1.32938627277444,-5.8714560380871,347.215999837235
738254.48782040865626186132,-1.32938627277444,-5.8714560380871,347.240618101545
738254.48782049899455159903,-1.32938627277444,-5.85914690593178,347.265236365856
738254.48782058944925665855,-1.32938627277444,-5.85914690593178,347.154454176458
738254.48782067990396171808,-1.32938627277444,-5.85914690593178,347.191381572924
738254.48782077035866677761,-1.31707714061912,-5.85914690593178,347.179072440769
738254.48782086081337183714,-1.31707714061912,-5.8714560380871,347.22830896939
738254.48782095126807689667,-1.3047680084638,-5.8714560380871,347.265236365856
738254.48782104172278195620,-1.3047680084638,-5.8714560380871,347.252927233701
738254.48782113217748701572,-1.28014974415316,-5.84683777377646,347.179072440769
738254.48782122263219207525,-1.26784061199784,-5.82221950946582,347.215999837235
738254.48782131297048181295,-1.26784061199784,-5.80991037731051,347.240618101545
738254.48782140342518687248,-1.25553147984252,-5.79760124515519,347.191381572924
738254.48782149387989193201,-1.28014974415316,-5.82221950946582,347.277545498011
738254.48782158433459699154,-1.29245887630848,-5.82221950946582,347.240618101545
738254.48782167478930205107,-1.3047680084638,-5.83452864162114,347.22830896939
738254.48782176524400711060,-1.32938627277444,-5.8714560380871,347.215999837235
738254.48782185569871217012,-1.34169540492976,-5.8714560380871,347.265236365856
738254.48782194615341722965,-1.34169540492976,-5.88376517024242,347.240618101545
738254.48782203660812228918,-1.34169540492976,-5.88376517024242,347.191381572924
738254.48782212694641202688,-1.34169540492976,-5.88376517024242,347.277545498011
738254.48782221740111708641,-1.35400453708508,-5.88376517024242,347.22830896939
738254.48782230785582214594,-1.35400453708508,-5.89607430239774,347.154454176458
738254.48782239831052720547,-1.34169540492976,-5.92069256670838,347.203690705079
738254.48782248876523226500,-1.24322234768721,-5.79760124515519,347.277545498011
738254.48782257921993732452,-1.02165796889147,-5.4160181483403,347.41294595172
738254.48782266967464238405,-0.566220079144668,-4.67747021902117,347.240618101545
738254.48782276012934744358,-0.11078218939787,-3.85275836461481,346.723634551022
738254.48782285058405250311,-0.529292682678711,-4.18510493280842,346.64977975809
738254.48782294092234224081,-1.37862280139571,-5.83452864162114,346.563615833003
738254.48782303137704730034,-1.61249631234677,-6.2653482670573,346.711325418867
738254.48782312183175235987,-1.42785933001699,-6.03147475610625,346.945198929818
738254.48782321228645741940,-1.31707714061912,-5.88376517024242,347.117526779992
738254.48782330274116247892,-1.3047680084638,-5.8714560380871,347.203690705079
738254.48782339319586753845,-1.3047680084638,-5.85914690593178,347.215999837235
738254.48782348365057259798,-1.3047680084638,-5.85914690593178,347.252927233701
738254.48782357410527765751,-1.3047680084638,-5.85914690593178,347.179072440769
738254.48782366455998271704,-1.3047680084638,-5.84683777377646,347.252927233701
738254.48782375489827245474,-1.29245887630848,-5.83452864162114,347.277545498011
738254.48782384535297751427,-1.29245887630848,-5.82221950946582,347.265236365856
738254.48782393580768257380,-1.28014974415316,-5.82221950946582,347.252927233701
738254.48782402626238763332,-1.28014974415316,-5.80991037731051,347.203690705079
738254.48782411671709269285,-1.26784061199784,-5.79760124515519,347.191381572924
738254.48782420717179775238,-1.25553147984252,-5.78529211299987,347.203690705079
738254.48782429762650281191,-1.24322234768721,-5.77298298084455,347.252927233701
738254.48782438808120787144,-1.23091321553189,-5.76067384868923,347.252927233701
738254.48782447853591293097,-1.21860408337657,-5.74836471653391,347.277545498011
738254.48782456887420266867,-1.20629495122125,-5.72374645222327,347.326782026632
738254.48782465932890772820,-1.19398581906593,-5.69912818791264,347.351400290943
738254.48782474978361278772,-1.16936755475529,-5.674509923602,347.265236365856
738254.48782484023831784725,-1.14474929044465,-5.64989165929136,347.376018555254
738254.48782493069302290678,-1.12013102613402,-5.6129642628254,347.326782026632
738254.48782502114772796631,-1.08320362966806,-5.57603686635945,347.351400290943
738254.48782511160243302584,-1.0462762332021,-5.52680033773817,347.400636819564
738254.48782520205713808537,-1.00934883673615,-5.4775638091169,347.486800744652
738254.48782529251184314489,-0.972421440270191,-5.44063641265094,347.462182480341
738254.48782538285013288260,-0.947803175959553,-5.39139988402966,347.425255083875
738254.48782547330483794212,-0.923184911648915,-5.37909075187434,347.474491612496
738254.48782556375954300165,-0.910875779493596,-5.35447248756371,347.462182480341
738254.48782565421424806118,-0.898566647338277,-5.35447248756371,347.339091158788
738254.48782574466895312071,-0.910875779493596,-5.34216335540839,347.400636819564
738254.48782583512365818024,-0.935494043804234,-5.37909075187434,347.388327687409
738254.48782592557836323977,-0.972421440270191,-5.4160181483403,347.351400290943
738254.48782601603306829929,-1.03396710104678,-5.50218207342753,347.302163762322
738254.48782610648777335882,-1.09551276182338,-5.56372773420413,347.277545498011
738254.48782619682606309652,-1.15705842259997,-5.64989165929136,347.277545498011
738254.48782628728076815605,-1.20629495122125,-5.71143732006795,347.166763308613
738254.48782637773547321558,-1.23091321553189,-5.76067384868923,347.142145044303
738254.48782646819017827511,-1.25553147984252,-5.79760124515519,347.302163762322
738254.48782655864488333464,-1.28014974415316,-5.82221950946582,347.252927233701
738254.48782664909958839417,-1.28014974415316,-5.82221950946582,347.203690705079
738254.48782673955429345369,-1.29245887630848,-5.83452864162114,347.277545498011
738254.48782683000899851322,-1.29245887630848,-5.83452864162114,347.302163762322
738254.48782692046370357275,-1.3047680084638,-5.84683777377646,347.166763308613
738254.48782701080199331045,-1.29245887630848,-5.83452864162114,347.265236365856
738254.48782710125669836998,-1.29245887630848,-5.83452864162114,347.265236365856
738254.48782719171140342951,-1.29245887630848,-5.83452864162114,347.191381572924
738254.48782728216610848904,-1.29245887630848,-5.83452864162114,347.203690705079
738254.48782737262081354856,-1.29245887630848,-5.83452864162114,347.252927233701
738254.48782746307551860809,-1.28014974415316,-5.83452864162114,347.265236365856
738254.48782755353022366762,-1.28014974415316,-5.84683777377646,347.215999837235
738254.48782764398492872715,-1.28014974415316,-5.83452864162114,347.166763308613
738254.48782773443963378668,-1.28014974415316,-5.83452864162114,347.129835912147
738254.48782782477792352438,-1.26784061199784,-5.83452864162114,347.154454176458
738254.48782791523262858391,-1.28014974415316,-5.83452864162114,347.22830896939
738254.48782800568733364344,-1.28014974415316,-5.83452864162114,347.117526779992
738254.48782809614203870296,-1.28014974415316,-5.83452864162114,347.117526779992
738254.48782818659674376249,-1.28014974415316,-5.83452864162114,347.129835912147
738254.48782827705144882202,-1.28014974415316,-5.84683777377646,347.092908515681
738254.48782836750615388155,-1.28014974415316,-5.84683777377646,347.129835912147
738254.48782845796085894108,-1.29245887630848,-5.83452864162114,347.154454176458
738254.48782854841556400061,-1.29245887630848,-5.84683777377646,347.179072440769
738254.48782863875385373831,-1.29245887630848,-5.85914690593178,347.179072440769
738254.48782872920855879784,-1.29245887630848,-5.84683777377646,347.154454176458
738254.48782881966326385736,-1.29245887630848,-5.85914690593178,347.154454176458
738254.48782891011796891689,-1.29245887630848,-5.85914690593178,347.215999837235
738254.48782900057267397642,-1.29245887630848,-5.85914690593178,347.265236365856
738254.48782909102737903595,-1.29245887630848,-5.8714560380871,347.215999837235
738254.48782918148208409548,-1.29245887630848,-5.85914690593178,347.215999837235
738254.48782927193678915501,-1.29245887630848,-5.85914690593178,347.240618101545
738254.48782936239149421453,-1.29245887630848,-5.85914690593178,347.252927233701
738254.48782945272978395224,-1.3047680084638,-5.8714560380871,347.142145044303
738254.48782954318448901176,-1.29245887630848,-5.8714560380871,347.22830896939
738254.48782963363919407129,-1.29245887630848,-5.85914690593178,347.277545498011
738254.48782972409389913082,-1.3047680084638,-5.85914690593178,347.166763308613
738254.48782981454860419035,-1.3047680084638,-5.85914690593178,347.129835912147
738254.48782990500330924988,-1.3047680084638,-5.85914690593178,347.105217647837
738254.48782999545801430941,-1.3047680084638,-5.85914690593178,347.252927233701
738254.48783008591271936893,-1.3047680084638,-5.85914690593178,347.179072440769
738254.48783017636742442846,-1.3047680084638,-5.85914690593178,347.277545498011
738254.48783026670571416616,-1.29245887630848,-5.8714560380871,347.240618101545
738254.48783035716041922569,-1.29245887630848,-5.8714560380871,347.179072440769
738254.48783044761512428522,-1.29245887630848,-5.85914690593178,347.203690705079
738254.48783053806982934475,-1.28014974415316,-5.85914690593178,347.240618101545
738254.48783062852453440428,-1.25553147984252,-5.84683777377646,347.203690705079
738254.48783071897923946381,-1.25553147984252,-5.83452864162114,347.117526779992
738254.48783080943394452333,-1.23091321553189,-5.80991037731051,347.215999837235
738254.48783089988864958286,-1.23091321553189,-5.78529211299987,347.240618101545
738254.48783099034335464239,-1.24322234768721,-5.79760124515519,347.22830896939
738254.48783108068164438009,-1.25553147984252,-5.82221950946582,347.203690705079
738254.48783117113634943962,-1.28014974415316,-5.84683777377646,347.252927233701
738254.48783126159105449915,-1.29245887630848,-5.85914690593178,347.277545498011
738254.48783135204575955868,-1.31707714061912,-5.85914690593178,347.142145044303
738254.48783144250046461821,-1.31707714061912,-5.88376517024242,347.191381572924
738254.48783153295516967773,-1.31707714061912,-5.8714560380871,347.166763308613
738254.48783162340987473726,-1.31707714061912,-5.88376517024242,347.191381572924
738254.48783171386457979679,-1.31707714061912,-5.88376517024242,347.166763308613
738254.48783180431928485632,-1.32938627277444,-5.89607430239774,347.166763308613
738254.48783189477398991585,-1.28014974415316,-5.88376517024242,347.179072440769
738254.48783198511227965355,-1.13244015828934,-5.63758252713604,347.41294595172
738254.48783207556698471308,-0.812402722251045,-5.09598071230201,347.449873348186
738254.48783216602168977261,-0.22156437879574,-4.14817753634246,347.080599383526
738254.48783225647639483213,-0.160018718019145,-3.76659443952757,346.822107608264
738254.48783234693109989166,-1.00934883673615,-4.9605802585935,346.772871079643
738254.48783243738580495119,-1.58787804803613,-6.20380260628071,346.612852361624
738254.48783252784051001072,-1.46478672648295,-6.09302041688284,346.846725872575
738254.48783261829521507025,-1.3047680084638,-5.89607430239774,347.068290251371
738254.48783270874992012978,-1.29245887630848,-5.85914690593178,347.154454176458
738254.48783279908820986748,-1.29245887630848,-5.85914690593178,347.215999837235
738254.48783288954291492701,-1.29245887630848,-5.85914690593178,347.154454176458
738254.48783297999761998653,-1.29245887630848,-5.8714560380871,347.203690705079
738254.48783307045232504606,-1.29245887630848,-5.85914690593178,347.240618101545
738254.48783316090703010559,-1.29245887630848,-5.84683777377646,347.252927233701
738254.48783325136173516512,-1.26784061199784,-5.84683777377646,347.289854630167
738254.48783334181644022465,-1.28014974415316,-5.83452864162114,347.240618101545
738254.48783343227114528418,-1.26784061199784,-5.82221950946582,347.092908515681
738254.48783352272585034370,-1.25553147984252,-5.80991037731051,347.179072440769
738254.48783361306414008141,-1.24322234768721,-5.80991037731051,347.203690705079
738254.48783370351884514093,-1.24322234768721,-5.79760124515519,347.326782026632
738254.48783379397355020046,-1.23091321553189,-5.77298298084455,347.314472894477
738254.48783388442825525999,-1.21860408337657,-5.76067384868923,347.240618101545
738254.48783397488296031952,-1.20629495122125,-5.74836471653391,347.314472894477
738254.48783406533766537905,-1.19398581906593,-5.73605558437859,347.314472894477
738254.48783415579237043858,-1.16936755475529,-5.71143732006795,347.326782026632
738254.48783424624707549810,-1.14474929044465,-5.68681905575732,347.339091158788
738254.48783433670178055763,-1.13244015828934,-5.63758252713604,347.425255083875
738254.48783442704007029533,-1.09551276182338,-5.6129642628254,347.400636819564
738254.48783451749477535486,-1.05858536535742,-5.57603686635945,347.363709423098
738254.48783460794948041439,-1.02165796889147,-5.52680033773817,347.41294595172
738254.48783469840418547392,-0.984730572425509,-5.4775638091169,347.462182480341
738254.48783478885889053345,-0.972421440270191,-5.45294554480626,347.41294595172
738254.48783487931359559298,-0.947803175959553,-5.4160181483403,347.351400290943
738254.48783496976830065250,-0.910875779493596,-5.37909075187434,347.363709423098
738254.48783506022300571203,-0.898566647338277,-5.36678161971903,347.326782026632
738254.48783515067771077156,-0.898566647338277,-5.35447248756371,347.339091158788
738254.48783524101600050926,-0.910875779493596,-5.36678161971903,347.339091158788
738254.48783533147070556879,-0.947803175959553,-5.4160181483403,347.302163762322
738254.48783542192541062832,-1.00934883673615,-5.4775638091169,347.339091158788
738254.48783551238011568785,-1.07089449751274,-5.55141860204881,347.22830896939
738254.48783560283482074738,-1.13244015828934,-5.62527339498072,347.265236365856
738254.48783569328952580690,-1.18167668691061,-5.71143732006795,347.240618101545
738254.48783578374423086643,-1.21860408337657,-5.76067384868923,347.22830896939
738254.48783587419893592596,-1.24322234768721,-5.79760124515519,347.22830896939
738254.48783596465364098549,-1.26784061199784,-5.82221950946582,347.191381572924
738254.48783605499193072319,-1.28014974415316,-5.83452864162114,347.203690705079
738254.48783614544663578272,-1.28014974415316,-5.84683777377646,347.22830896939
738254.48783623590134084225,-1.28014974415316,-5.84683777377646,347.203690705079
738254.48783632635604590178,-1.29245887630848,-5.85914690593178,347.302163762322
738254.48783641681075096130,-1.28014974415316,-5.84683777377646,347.277545498011
738254.48783650726545602083,-1.28014974415316,-5.83452864162114,347.179072440769
738254.48783659772016108036,-1.28014974415316,-5.84683777377646,347.240618101545
738254.48783668817486613989,-1.28014974415316,-5.84683777377646,347.203690705079
738254.48783677862957119942,-1.26784061199784,-5.84683777377646,347.191381572924
738254.48783686896786093712,-1.28014974415316,-5.83452864162114,347.191381572924
738254.48783695942256599665,-1.26784061199784,-5.84683777377646,347.092908515681
738254.48783704987727105618,-1.26784061199784,-5.84683777377646,347.265236365856
738254.48783714033197611570,-1.26784061199784,-5.84683777377646,347.265236365856
738254.48783723078668117523,-1.26784061199784,-5.83452864162114,347.191381572924
738254.48783732124138623476,-1.26784061199784,-5.83452864162114,347.215999837235
738254.48783741169609129429,-1.26784061199784,-5.83452864162114,347.240618101545
738254.48783750215079635382,-1.26784061199784,-5.83452864162114,347.252927233701
738254.48783759260550141335,-1.26784061199784,-5.84683777377646,347.191381572924
738254.48783768294379115105,-1.28014974415316,-5.84683777377646,347.154454176458
738254.48783777339849621058,-1.28014974415316,-5.85914690593178,347.179072440769
738254.48783786385320127010,-1.28014974415316,-5.84683777377646,347.142145044303
738254.48783795430790632963,-1.28014974415316,-5.84683777377646,347.179072440769
738254.48783804476261138916,-1.28014974415316,-5.84683777377646,347.179072440769
738254.48783813521731644869,-1.28014974415316,-5.85914690593178,347.154454176458
738254.48783822567202150822,-1.28014974415316,-5.84683777377646,347.240618101545
738254.48783831612672656775,-1.28014974415316,-5.85914690593178,347.252927233701
738254.48783840658143162727,-1.29245887630848,-5.85914690593178,347.240618101545
738254.48783849691972136497,-1.28014974415316,-5.8714560380871,347.191381572924
738254.48783858737442642450,-1.28014974415316,-5.85914690593178,347.302163762322
738254.48783867782913148403,-1.28014974415316,-5.85914690593178,347.289854630167
738254.48783876828383654356,-1.29245887630848,-5.8714560380871,347.154454176458
738254.48783885873854160309,-1.29245887630848,-5.85914690593178,347.265236365856
738254.48783894919324666262,-1.29245887630848,-5.8714560380871,347.22830896939
738254.48783903964795172215,-1.29245887630848,-5.8714560380871,347.215999837235
738254.48783913010265678167,-1.29245887630848,-5.8714560380871,347.277545498011
738254.48783922055736184120,-1.29245887630848,-5.8714560380871,347.302163762322
738254.48783931089565157890,-1.3047680084638,-5.88376517024242,347.252927233701
738254.48783940135035663843,-1.3047680084638,-5.8714560380871,347.191381572924
738254.48783949180506169796,-1.3047680084638,-5.8714560380871,347.252927233701
738254.48783958225976675749,-1.29245887630848,-5.8714560380871,347.240618101545
738254.48783967271447181702,-1.3047680084638,-5.8714560380871,347.154454176458
738254.48783976316917687654,-1.3047680084638,-5.8714560380871,347.252927233701
738254.48783985362388193607,-1.29245887630848,-5.8714560380871,347.154454176458
738254.48783994407858699560,-1.29245887630848,-5.8714560380871,347.191381572924
738254.48784003453329205513,-1.29245887630848,-5.88376517024242,347.166763308613
738254.48784012487158179283,-1.29245887630848,-5.8714560380871,347.142145044303
738254.48784021532628685236,-1.28014974415316,-5.8714560380871,347.129835912147
738254.48784030578099191189,-1.25553147984252,-5.84683777377646,347.142145044303
738254.48784039623569697142,-1.25553147984252,-5.84683777377646,347.105217647837
738254.48784048669040203094,-1.24322234768721,-5.82221950946582,347.01905372275
738254.48784057714510709047,-1.21860408337657,-5.79760124515519,347.22830896939
738254.48784066759981215000,-1.23091321553189,-5.78529211299987,347.240618101545
738254.48784075805451720953,-1.26784061199784,-5.82221950946582,347.203690705079
738254.48784084850922226906,-1.28014974415316,-5.85914690593178,347.203690705079
738254.48784093884751200676,-1.29245887630848,-5.85914690593178,347.215999837235
738254.48784102930221706629,-1.3047680084638,-5.8714560380871,347.166763308613
738254.48784111975692212582,-1.31707714061912,-5.88376517024242,347.191381572924
738254.48784121021162718534,-1.31707714061912,-5.8714560380871,347.179072440769
738254.48784130066633224487,-1.31707714061912,-5.88376517024242,347.240618101545
738254.48784139112103730440,-1.31707714061912,-5.8714560380871,347.179072440769
738254.48784148157574236393,-1.32938627277444,-5.89607430239774,347.166763308613
738254.48784157203044742346,-1.29245887630848,-5.92069256670838,347.215999837235
738254.48784166248515248299,-1.16936755475529,-5.69912818791264,347.449873348186
738254.48784175282344222069,-0.886257515182958,-5.23138116601052,347.59758293405
738254.48784184327814728022,-0.344655700348928,-4.32050538651692,347.105217647837
738254.48784193373285233974,-0.123091321553189,-3.7173579109063,346.920580665507
738254.48784202418755739927,-0.861639250872321,-4.61592455824458,346.772871079643
738254.48784211464226245880,-1.53864151941486,-6.10532954903816,346.588234097313
738254.48784220509696751833,-1.51402325510422,-6.14225694550411,346.772871079643
738254.48784229555167257786,-1.40324106570635,-6.03147475610625,346.895962401196
738254.48784238600637763739,-1.3047680084638,-5.8714560380871,347.092908515681
738254.48784247646108269691,-1.29245887630848,-5.85914690593178,347.191381572924
738254.48784256691578775644,-1.28014974415316,-5.85914690593178,347.265236365856
738254.48784265725407749414,-1.28014974415316,-5.8714560380871,347.240618101545
738254.48784274770878255367,-1.28014974415316,-5.85914690593178,347.191381572924
738254.48784283816348761320,-1.28014974415316,-5.84683777377646,347.302163762322
738254.48784292861819267273,-1.28014974415316,-5.84683777377646,347.302163762322
738254.48784301907289773226,-1.28014974415316,-5.83452864162114,347.166763308613
738254.48784310952760279179,-1.26784061199784,-5.82221950946582,347.277545498011
738254.48784319998230785131,-1.26784061199784,-5.82221950946582,347.326782026632
738254.48784329043701291084,-1.25553147984252,-5.80991037731051,347.240618101545
738254.48784338089171797037,-1.24322234768721,-5.79760124515519,347.326782026632
738254.48784347123000770807,-1.23091321553189,-5.78529211299987,347.339091158788
738254.48784356168471276760,-1.21860408337657,-5.77298298084455,347.302163762322
738254.48784365213941782713,-1.20629495122125,-5.74836471653391,347.22830896939
738254.48784374259412288666,-1.19398581906593,-5.72374645222327,347.351400290943
738254.48784383304882794619,-1.16936755475529,-5.69912818791264,347.376018555254
738254.48784392350353300571,-1.15705842259997,-5.674509923602,347.092908515681
738254.48784401395823806524,-1.12013102613402,-5.63758252713604,347.289854630167
738254.48784410441294312477,-1.09551276182338,-5.60065513067009,347.41294595172
738254.48784419486764818430,-1.08320362966806,-5.58834599851477,347.339091158788
738254.48784428520593792200,-1.0462762332021,-5.53910946989349,347.376018555254
738254.48784437566064298153,-1.00934883673615,-5.48987294127221,347.388327687409
738254.48784446611534804106,-0.984730572425509,-5.44063641265094,347.400636819564
738254.48784455657005310059,-0.947803175959553,-5.40370901618498,347.351400290943
738254.48784464702475816011,-0.910875779493596,-5.36678161971903,347.363709423098
738254.48784473747946321964,-0.898566647338277,-5.35447248756371,347.388327687409
738254.48784482793416827917,-0.898566647338277,-5.34216335540839,347.363709423098
738254.48784491838887333870,-0.910875779493596,-5.35447248756371,347.326782026632
738254.48784500884357839823,-0.947803175959553,-5.39139988402966,347.363709423098
738254.48784509918186813593,-0.997039704580828,-5.45294554480626,347.302163762322
738254.48784518963657319546,-1.05858536535742,-5.53910946989349,347.289854630167
738254.48784528009127825499,-1.12013102613402,-5.6129642628254,347.22830896939
738254.48784537054598331451,-1.16936755475529,-5.68681905575732,347.166763308613
738254.48784546100068837404,-1.20629495122125,-5.73605558437859,347.191381572924
738254.48784555145539343357,-1.24322234768721,-5.77298298084455,347.191381572924
738254.48784564191009849310,-1.26784061199784,-5.79760124515519,347.129835912147
738254.48784573236480355263,-1.26784061199784,-5.82221950946582,347.191381572924
738254.48784582281950861216,-1.28014974415316,-5.83452864162114,347.240618101545
738254.48784591315779834986,-1.28014974415316,-5.83452864162114,347.203690705079
738254.48784600361250340939,-1.28014974415316,-5.84683777377646,347.092908515681
738254.48784609406720846891,-1.28014974415316,-5.84683777377646,347.252927233701
738254.48784618452191352844,-1.28014974415316,-5.83452864162114,347.265236365856
738254.48784627497661858797,-1.28014974415316,-5.83452864162114,347.277545498011
738254.48784636543132364750,-1.28014974415316,-5.83452864162114,347.22830896939
738254.48784645588602870703,-1.28014974415316,-5.83452864162114,347.252927233701
738254.48784654634073376656,-1.26784061199784,-5.84683777377646,347.302163762322
738254.48784663679543882608,-1.26784061199784,-5.83452864162114,347.179072440769
738254.48784672713372856379,-1.26784061199784,-5.83452864162114,347.289854630167
738254.48784681758843362331,-1.26784061199784,-5.83452864162114,347.252927233701
738254.48784690804313868284,-1.26784061199784,-5.82221950946582,347.179072440769
738254.48784699849784374237,-1.26784061199784,-5.83452864162114,347.240618101545
738254.48784708895254880190,-1.26784061199784,-5.82221950946582,347.265236365856
738254.48784717940725386143,-1.26784061199784,-5.83452864162114,347.215999837235
738254.48784726986195892096,-1.26784061199784,-5.83452864162114,347.215999837235
738254.48784736031666398048,-1.26784061199784,-5.83452864162114,347.265236365856
738254.48784745077136904001,-1.28014974415316,-5.83452864162114,347.068290251371
738254.48784754110965877771,-1.28014974415316,-5.84683777377646,347.080599383526
738254.48784763156436383724,-1.28014974415316,-5.84683777377646,347.265236365856
738254.48784772201906889677,-1.28014974415316,-5.84683777377646,347.252927233701
738254.48784781247377395630,-1.29245887630848,-5.84683777377646,347.154454176458
738254.48784790292847901583,-1.29245887630848,-5.84683777377646,347.191381572924
738254.48784799338318407536,-1.29245887630848,-5.84683777377646,347.22830896939
738254.48784808383788913488,-1.29245887630848,-5.85914690593178,347.252927233701
738254.48784817429259419441,-1.29245887630848,-5.85914690593178,347.142145044303
738254.48784826474729925394,-1.29245887630848,-5.85914690593178,347.22830896939
738254.48784835508558899164,-1.29245887630848,-5.85914690593178,347.265236365856
738254.48784844554029405117,-1.29245887630848,-5.85914690593178,347.117526779992
738254.48784853599499911070,-1.29245887630848,-5.85914690593178,347.215999837235
738254.48784862644970417023,-1.29245887630848,-5.85914690593178,347.265236365856
738254.48784871690440922976,-1.29245887630848,-5.85914690593178,347.215999837235
738254.48784880735911428928,-1.3047680084638,-5.85914690593178,347.22830896939
738254.48784889781381934881,-1.3047680084638,-5.8714560380871,347.252927233701
738254.48784898826852440834,-1.3047680084638,-5.8714560380871,347.215999837235
738254.48784907872322946787,-1.3047680084638,-5.85914690593178,347.203690705079
738254.48784916906151920557,-1.3047680084638,-5.8714560380871,347.265236365856
738254.48784925951622426510,-1.3047680084638,-5.85914690593178,347.277545498011
738254.48784934997092932463,-1.3047680084638,-5.85914690593178,347.166763308613
738254.48784944042563438416,-1.3047680084638,-5.85914690593178,347.22830896939
738254.48784953088033944368,-1.3047680084638,-5.85914690593178,347.252927233701
738254.48784962133504450321,-1.3047680084638,-5.85914690593178,347.142145044303
738254.48784971178974956274,-1.3047680084638,-5.85914690593178,347.154454176458
738254.48784980224445462227,-1.3047680084638,-5.85914690593178,347.142145044303
738254.48784989269915968180,-1.3047680084638,-5.85914690593178,347.129835912147
738254.48784998303744941950,-1.29245887630848,-5.85914690593178,347.105217647837
738254.48785007349215447903,-1.28014974415316,-5.85914690593178,347.117526779992
738254.48785016394685953856,-1.28014974415316,-5.85914690593178,347.129835912147
738254.48785025440156459808,-1.28014974415316,-5.85914690593178,347.117526779992
738254.48785034485626965761,-1.26784061199784,-5.84683777377646,347.129835912147
738254.48785043531097471714,-1.24322234768721,-5.82221950946582,347.129835912147
738254.48785052576567977667,-1.24322234768721,-5.80991037731051,347.129835912147
738254.48785061622038483620,-1.21860408337657,-5.78529211299987,347.179072440769
738254.48785070667508989573,-1.24322234768721,-5.79760124515519,347.203690705079
738254.48785079701337963343,-1.25553147984252,-5.82221950946582,347.215999837235
738254.48785088746808469296,-1.28014974415316,-5.83452864162114,347.154454176458
738254.48785097792278975248,-1.29245887630848,-5.85914690593178,347.068290251371
738254.48785106837749481201,-1.3047680084638,-5.8714560380871,347.142145044303
738254.48785115883219987154,-1.31707714061912,-5.8714560380871,347.203690705079
738254.48785124928690493107,-1.31707714061912,-5.88376517024242,347.265236365856
738254.48785133974160999060,-1.31707714061912,-5.88376517024242,347.252927233701
738254.48785143019631505013,-1.31707714061912,-5.88376517024242,347.252927233701
738254.48785152065102010965,-1.31707714061912,-5.89607430239774,347.215999837235
738254.48785161098930984735,-1.31707714061912,-5.92069256670838,347.265236365856
738254.48785170144401490688,-1.26784061199784,-5.89607430239774,347.277545498011
738254.48785179189871996641,-1.12013102613402,-5.6129642628254,347.499109876807
738254.48785188235342502594,-0.812402722251045,-5.04674418368074,347.499109876807
738254.48785197280813008547,-0.246182643106377,-4.1112501398765,347.179072440769
738254.48785206326283514500,-0.246182643106377,-3.77890357168289,347.01905372275
738254.48785215371754020452,-1.0462762332021,-5.03443505152542,346.735943683177
738254.48785224417224526405,-1.57556891588082,-6.22842087059135,346.711325418867
738254.48785233462695032358,-1.48940499079358,-6.1299478133488,346.932889797662
738254.48785242496524006128,-1.32938627277444,-5.90838343455306,346.994435458439
738254.48785251541994512081,-1.29245887630848,-5.8714560380871,347.166763308613
738254.48785260587465018034,-1.3047680084638,-5.8714560380871,347.154454176458
738254.48785269632935523987,-1.3047680084638,-5.8714560380871,347.179072440769
738254.48785278678406029940,-1.29245887630848,-5.8714560380871,347.203690705079
738254.48785287723876535892,-1.29245887630848,-5.85914690593178,347.179072440769
738254.48785296769347041845,-1.29245887630848,-5.85914690593178,347.179072440769
738254.48785305814817547798,-1.28014974415316,-5.84683777377646,347.215999837235
738254.48785314860288053751,-1.26784061199784,-5.83452864162114,347.240618101545
738254.48785323894117027521,-1.26784061199784,-5.82221950946582,347.203690705079
738254.48785332939587533474,-1.25553147984252,-5.80991037731051,347.215999837235
738254.48785341985058039427,-1.25553147984252,-5.79760124515519,347.22830896939
738254.48785351030528545380,-1.24322234768721,-5.79760124515519,347.252927233701
738254.48785360075999051332,-1.24322234768721,-5.77298298084455,347.215999837235
738254.48785369121469557285,-1.23091321553189,-5.74836471653391,347.22830896939
738254.48785378166940063238,-1.21860408337657,-5.73605558437859,347.277545498011
738254.48785387212410569191,-1.19398581906593,-5.72374645222327,347.326782026632
738254.48785396257881075144,-1.16936755475529,-5.69912818791264,347.376018555254
738254.48785405303351581097,-1.15705842259997,-5.66220079144668,347.277545498011
738254.48785414337180554867,-1.13244015828934,-5.62527339498072,347.326782026632
738254.48785423382651060820,-1.09551276182338,-5.58834599851477,347.326782026632
738254.48785432428121566772,-1.05858536535742,-5.53910946989349,347.400636819564
738254.48785441473592072725,-1.02165796889147,-5.48987294127221,347.388327687409
738254.48785450519062578678,-0.997039704580828,-5.44063641265094,347.289854630167
738254.48785459564533084631,-0.960112308114872,-5.40370901618498,347.240618101545
738254.48785468610003590584,-0.947803175959553,-5.36678161971903,347.363709423098
738254.48785477655474096537,-0.935494043804234,-5.35447248756371,347.351400290943
738254.48785486700944602489,-0.910875779493596,-5.32985422325307,347.314472894477
738254.48785495734773576260,-0.923184911648915,-5.34216335540839,347.302163762322
738254.48785504780244082212,-0.947803175959553,-5.36678161971903,347.277545498011
738254.48785513825714588165,-0.997039704580828,-5.4160181483403,347.265236365856
738254.48785522871185094118,-1.05858536535742,-5.50218207342753,347.326782026632
738254.48785531916655600071,-1.1078218939787,-5.57603686635945,347.302163762322
738254.48785540962126106024,-1.12013102613402,-5.6129642628254,347.314472894477
738254.48785550007596611977,-1.18167668691061,-5.674509923602,347.277545498011
738254.48785559053067117929,-1.23091321553189,-5.74836471653391,347.22830896939
738254.48785568098537623882,-1.25553147984252,-5.77298298084455,347.302163762322
738254.48785577132366597652,-1.26784061199784,-5.80991037731051,347.252927233701
738254.48785586177837103605,-1.28014974415316,-5.82221950946582,347.191381572924
738254.48785595223307609558,-1.29245887630848,-5.83452864162114,347.265236365856
738254.48785604268778115511,-1.29245887630848,-5.82221950946582,347.289854630167
738254.48785613314248621464,-1.29245887630848,-5.84683777377646,347.252927233701
738254.48785622359719127417,-1.29245887630848,-5.83452864162114,347.265236365856
738254.48785631405189633369,-1.29245887630848,-5.83452864162114,347.265236365856
738254.48785640450660139322,-1.28014974415316,-5.82221950946582,347.277545498011
738254.48785649496130645275,-1.29245887630848,-5.82221950946582,347.240618101545
738254.48785658529959619045,-1.29245887630848,-5.83452864162114,347.314472894477
738254.48785667575430124998,-1.26784061199784,-5.82221950946582,347.289854630167
738254.48785676620900630951,-1.26784061199784,-5.82221950946582,347.22830896939
738254.48785685666371136904,-1.28014974415316,-5.80991037731051,347.277545498011
738254.48785694711841642857,-1.26784061199784,-5.82221950946582,347.179072440769
738254.48785703757312148809,-1.25553147984252,-5.82221950946582,347.191381572924
738254.48785712802782654762,-1.28014974415316,-5.82221950946582,347.154454176458
738254.48785721848253160715,-1.28014974415316,-5.83452864162114,347.215999837235
738254.48785730893723666668,-1.26784061199784,-5.82221950946582,347.179072440769
738254.48785739927552640438,-1.26784061199784,-5.82221950946582,347.154454176458
738254.48785748973023146391,-1.28014974415316,-5.83452864162114,347.154454176458
738254.48785758018493652344,-1.26784061199784,-5.83452864162114,347.166763308613
738254.48785767063964158297,-1.26784061199784,-5.83452864162114,347.117526779992
738254.48785776109434664249,-1.29245887630848,-5.83452864162114,347.129835912147
738254.48785785154905170202,-1.29245887630848,-5.83452864162114,347.117526779992
738254.48785794200375676155,-1.28014974415316,-5.83452864162114,347.142145044303
738254.48785803245846182108,-1.28014974415316,-5.83452864162114,347.01905372275
738254.48785812291316688061,-1.28014974415316,-5.83452864162114,347.01905372275
738254.48785821325145661831,-1.3047680084638,-5.84683777377646,347.179072440769
738254.48785830370616167784,-1.3047680084638,-5.84683777377646,347.191381572924
738254.48785839416086673737,-1.29245887630848,-5.84683777377646,347.179072440769
738254.48785848461557179689,-1.29245887630848,-5.84683777377646,347.22830896939
738254.48785857507027685642,-1.3047680084638,-5.85914690593178,347.265236365856
738254.48785866552498191595,-1.28014974415316,-5.85914690593178,347.154454176458
738254.48785875597968697548,-1.29245887630848,-5.85914690593178,347.240618101545
738254.48785884643439203501,-1.29245887630848,-5.84683777377646,347.179072440769
738254.48785893688909709454,-1.3047680084638,-5.84683777377646,347.142145044303
738254.48785902722738683224,-1.3047680084638,-5.85914690593178,347.215999837235
738254.48785911768209189177,-1.29245887630848,-5.84683777377646,347.203690705079
738254.48785920813679695129,-1.29245887630848,-5.84683777377646,347.252927233701
738254.48785929859150201082,-1.29245887630848,-5.85914690593178,347.265236365856
738254.48785938904620707035,-1.29245887630848,-5.85914690593178,347.154454176458
738254.48785947950091212988,-1.29245887630848,-5.84683777377646,347.22830896939
738254.48785956995561718941,-1.29245887630848,-5.84683777377646,347.252927233701
738254.48785966041032224894,-1.28014974415316,-5.84683777377646,347.191381572924
738254.48785975086502730846,-1.28014974415316,-5.85914690593178,347.240618101545
738254.48785984120331704617,-1.24322234768721,-5.82221950946582,347.252927233701
738254.48785993165802210569,-1.24322234768721,-5.80991037731051,347.252927233701
738254.48786002211272716522,-1.25553147984252,-5.80991037731051,347.191381572924
738254.48786011256743222475,-1.23091321553189,-5.78529211299987,347.22830896939
738254.48786020302213728428,-1.24322234768721,-5.79760124515519,347.265236365856
738254.48786029347684234381,-1.26784061199784,-5.82221950946582,347.191381572924
738254.48786038393154740334,-1.28014974415316,-5.83452864162114,347.252927233701
738254.48786047438625246286,-1.3047680084638,-5.84683777377646,347.191381572924
738254.48786056484095752239,-1.3047680084638,-5.85914690593178,347.154454176458
738254.48786065517924726009,-1.31707714061912,-5.8714560380871,347.142145044303
738254.48786074563395231962,-1.31707714061912,-5.85914690593178,347.154454176458
738254.48786083608865737915,-1.31707714061912,-5.8714560380871,347.166763308613
738254.48786092654336243868,-1.32938627277444,-5.8714560380871,347.191381572924
738254.48786101699806749821,-1.31707714061912,-5.8714560380871,347.191381572924
738254.48786110745277255774,-1.31707714061912,-5.8714560380871,347.203690705079
738254.48786119790747761726,-1.23091321553189,-5.79760124515519,347.265236365856
738254.48786128836218267679,-1.07089449751274,-5.45294554480626,347.462182480341
738254.48786137881688773632,-0.677002268542538,-4.7636341441084,347.585273801894
738254.48786146915517747402,-0.196946114485102,-3.97584968616799,347.252927233701
