time_dn,ecg_projection_ll_ra_mV,ecg_projection_la_ra_mV,ecg_projection_vx_rl_mV
738540.49073257099371403456,8.91796624652852,-2.88033692434461,-298.244117557298
738540.49073266144841909409,8.91796624652852,-2.88033692434461,-298.253349406415
738540.49073275178670883179,8.92719809564501,-2.88033692434461,-298.281044953764
738540.49073284224141389132,8.89027069917905,-2.90803247169408,-298.299508651997
738540.49073293269611895084,8.89027069917905,-2.92649616992706,-298.234885708182
738540.49073302315082401037,8.89027069917905,-2.93572801904355,-298.327204199347
738540.49073311348911374807,8.92719809564501,-2.90803247169408,-298.354899746696
738540.49073320394381880760,8.89027069917905,-2.93572801904355,-298.31797235023
738540.49073329439852386713,8.86257515182958,-2.94495986816004,-298.290276802881
738540.49073338473681360483,8.85334330271309,-2.95419171727653,-298.354899746696
738540.49073347519151866436,9.00105288857692,-2.85264137699515,-298.336436048463
738540.49073356564622372389,9.13953062532426,-2.70493179113132,-298.207190160833
738540.49073365610092878342,9.5272682882168,-2.53875850703452,-298.244117557298
738540.49073374643921852112,9.73036896877956,-2.39104892117069,-298.207190160833
738540.49073383689392358065,9.38879055146947,-2.73262733848079,-298.234885708182
738540.49073392734862864017,8.81641590624714,-3.16652424695578,-298.262581255531
738540.49073401768691837788,8.63177892391736,-3.18498794518876,-298.244117557298
738540.49073410814162343740,8.49330118717002,-3.08343760490738,-298.364131595813
738540.49073419859632849693,8.48406933805353,-3.00958281197546,-298.327204199347
738540.49073428893461823463,8.5948515274514,-2.96342356639302,-298.327204199347
738540.49073437938932329416,8.73332926419874,-2.94495986816004,-298.373363444929
738540.49073446984402835369,8.84411145359661,-2.89880062257759,-298.364131595813
738540.49073456029873341322,8.84411145359661,-2.93572801904355,-298.327204199347
738540.49073465063702315092,8.88103885006256,-2.92649616992706,-298.34566789758
738540.49073474109172821045,8.88103885006256,-2.92649616992706,-298.391827143162
738540.49073483154643326998,8.91796624652852,-2.91726432081057,-298.327204199347
738540.49073492188472300768,8.90873439741203,-2.90803247169408,-298.373363444929
738540.49073501233942806721,8.92719809564501,-2.90803247169408,-298.354899746696
738540.49073510279413312674,8.90873439741203,-2.90803247169408,-298.262581255531
738540.49073519324883818626,8.94566179387799,-2.89880062257759,-298.336436048463
738540.49073528358712792397,8.91796624652852,-2.90803247169408,-298.336436048463
738540.49073537404183298349,8.96412549211096,-2.87110507522813,-298.271813104648
738540.49073546449653804302,8.9364299447615,-2.89880062257759,-298.31797235023
738540.49073555483482778072,8.95489364299448,-2.88033692434461,-298.31797235023
738540.49073564528953284025,8.96412549211096,-2.88033692434461,-298.299508651997
738540.49073573574423789978,8.98258919034394,-2.88033692434461,-298.281044953764
738540.49073582619894295931,9.00105288857692,-2.86187322611164,-298.31797235023
738540.49073591653723269701,9.00105288857692,-2.85264137699515,-298.327204199347
738540.49073600699193775654,9.03798028504288,-2.83417767876217,-298.327204199347
738540.49073609744664281607,9.04721213415937,-2.81571398052919,-298.31797235023
738540.49073618778493255377,9.05644398327586,-2.8064821314127,-298.31797235023
738540.49073627823963761330,9.07490768150883,-2.77878658406323,-298.308740501114
738540.49073636869434267282,9.09337137974181,-2.77878658406323,-298.299508651997
738540.49073645903263241053,9.1026032288583,-2.76032288583026,-298.244117557298
738540.49073654948733747005,9.14876247444075,-2.7233954893643,-298.234885708182
738540.49073663994204252958,9.14876247444075,-2.71416364024781,-298.207190160833
738540.49073673039674758911,9.16722617267373,-2.69569994201483,-298.197958311716
738540.49073682073503732681,9.17645802179022,-2.67723624378185,-298.216422009949
738540.49073691118974238634,9.20415356913968,-2.66800439466536,-298.216422009949
738540.49073700164444744587,9.1856898709067,-2.67723624378185,-298.244117557298
738540.49073709198273718357,9.1856898709067,-2.66800439466536,-298.234885708182
738540.49073718243744224310,9.15799432355724,-2.68646809289834,-298.216422009949
738540.49073727289214730263,9.14876247444075,-2.70493179113132,-298.253349406415
738540.49073736334685236216,9.1026032288583,-2.74185918759728,-298.234885708182
738540.49073745368514209986,9.05644398327586,-2.76955473494675,-298.096407971435
738540.49073754413984715939,9.03798028504288,-2.79725028229621,-298.234885708182
738540.49073763459455221891,9.0195165868099,-2.8064821314127,-298.31797235023
738540.49073772493284195662,9.0195165868099,-2.82494582964568,-298.290276802881
738540.49073781538754701614,8.97335734122745,-2.84340952787866,-298.308740501114
738540.49073790584225207567,8.98258919034394,-2.85264137699515,-298.31797235023
738540.49073799629695713520,8.96412549211096,-2.86187322611164,-298.262581255531
738540.49073808663524687290,8.97335734122745,-2.84340952787866,-298.308740501114
738540.49073817708995193243,8.92719809564501,-2.89880062257759,-298.336436048463
738540.49073826754465699196,8.94566179387799,-2.8895687734611,-298.327204199347
738540.49073835788294672966,8.92719809564501,-2.89880062257759,-298.364131595813
738540.49073844833765178919,8.94566179387799,-2.89880062257759,-298.354899746696
738540.49073853879235684872,8.9364299447615,-2.8895687734611,-298.31797235023
738540.49073862913064658642,8.9364299447615,-2.89880062257759,-298.364131595813
738540.49073871958535164595,8.95489364299448,-2.88033692434461,-298.382595294046
738540.49073881004005670547,8.95489364299448,-2.8895687734611,-298.281044953764
738540.49073890049476176500,8.95489364299448,-2.8895687734611,-298.382595294046
738540.49073899083305150270,8.95489364299448,-2.88033692434461,-298.354899746696
738540.49073908128775656223,8.96412549211096,-2.8895687734611,-298.271813104648
738540.49073917174246162176,8.92719809564501,-2.91726432081057,-298.336436048463
738540.49073926208075135946,8.94566179387799,-2.89880062257759,-298.373363444929
738540.49073935253545641899,8.9364299447615,-2.90803247169408,-298.354899746696
738540.49073944299016147852,8.95489364299448,-2.8895687734611,-298.299508651997
738540.49073953344486653805,8.95489364299448,-2.8895687734611,-298.281044953764
738540.49073962378315627575,8.95489364299448,-2.8895687734611,-298.271813104648
738540.49073971423786133528,8.95489364299448,-2.8895687734611,-298.234885708182
738540.49073980469256639481,8.9364299447615,-2.8895687734611,-298.281044953764
738540.49073989503085613251,8.94566179387799,-2.89880062257759,-298.271813104648
738540.49073998548556119204,8.94566179387799,-2.8895687734611,-298.290276802881
738540.49074007594026625156,8.96412549211096,-2.87110507522813,-298.271813104648
738540.49074016639497131109,8.92719809564501,-2.90803247169408,-298.31797235023
738540.49074025673326104879,8.9364299447615,-2.89880062257759,-298.253349406415
738540.49074034718796610832,8.92719809564501,-2.89880062257759,-298.299508651997
738540.49074043764267116785,8.9364299447615,-2.89880062257759,-298.31797235023
738540.49074052798096090555,8.92719809564501,-2.90803247169408,-298.31797235023
738540.49074061843566596508,8.9364299447615,-2.90803247169408,-298.262581255531
738540.49074070889037102461,8.92719809564501,-2.8895687734611,-298.31797235023
738540.49074079934507608414,8.9364299447615,-2.90803247169408,-298.31797235023
738540.49074088968336582184,8.92719809564501,-2.90803247169408,-298.299508651997
738540.49074098013807088137,8.92719809564501,-2.90803247169408,-298.1887264626
738540.49074107059277594090,8.91796624652852,-2.90803247169408,-298.262581255531
738540.49074116093106567860,8.94566179387799,-2.89880062257759,-298.308740501114
738540.49074125138577073812,8.91796624652852,-2.91726432081057,-298.262581255531
738540.49074134184047579765,8.91796624652852,-2.92649616992706,-298.327204199347
738540.49074143217876553535,8.90873439741203,-2.91726432081057,-298.327204199347
738540.49074152263347059488,8.90873439741203,-2.91726432081057,-298.31797235023
738540.49074161308817565441,8.9364299447615,-2.90803247169408,-298.253349406415
738540.49074170354288071394,8.90873439741203,-2.92649616992706,-298.336436048463
738540.49074179388117045164,8.92719809564501,-2.91726432081057,-298.336436048463
738540.49074188433587551117,8.90873439741203,-2.91726432081057,-298.271813104648
738540.49074197479058057070,8.92719809564501,-2.90803247169408,-298.262581255531
738540.49074206512887030840,8.91796624652852,-2.91726432081057,-298.262581255531
738540.49074215558357536793,8.9364299447615,-2.89880062257759,-298.281044953764
738540.49074224603828042746,8.90873439741203,-2.91726432081057,-298.31797235023
738540.49074233649298548698,8.92719809564501,-2.91726432081057,-298.327204199347
738540.49074242683127522469,8.90873439741203,-2.91726432081057,-298.31797235023
738540.49074251728598028421,8.91796624652852,-2.90803247169408,-298.382595294046
738540.49074260774068534374,8.90873439741203,-2.91726432081057,-298.401058992279
738540.49074269807897508144,8.9364299447615,-2.89880062257759,-298.373363444929
738540.49074278853368014097,8.91796624652852,-2.89880062257759,-298.34566789758
738540.49074287898838520050,8.92719809564501,-2.90803247169408,-298.354899746696
738540.49074296944309026003,8.91796624652852,-2.90803247169408,-298.401058992279
738540.49074305978137999773,8.92719809564501,-2.90803247169408,-298.308740501114
738540.49074315023608505726,8.9364299447615,-2.90803247169408,-298.34566789758
738540.49074324069079011679,8.9364299447615,-2.90803247169408,-298.34566789758
738540.49074333102907985449,8.9364299447615,-2.89880062257759,-298.336436048463
738540.49074342148378491402,8.92719809564501,-2.90803247169408,-298.336436048463
738540.49074351193848997355,9.01028473769341,-2.83417767876217,-298.31797235023
738540.49074360227677971125,8.94566179387799,-2.8895687734611,-298.336436048463
738540.49074369273148477077,8.87180700094607,-2.96342356639302,-298.354899746696
738540.49074378318618983030,8.90873439741203,-2.92649616992706,-298.253349406415
738540.49074387364089488983,8.90873439741203,-2.92649616992706,-298.327204199347
738540.49074396397918462753,8.87180700094607,-2.94495986816004,-298.34566789758
738540.49074405443388968706,8.89027069917905,-2.93572801904355,-298.327204199347
738540.49074414488859474659,8.89950254829554,-2.92649616992706,-298.336436048463
738540.49074423522688448429,8.89950254829554,-2.92649616992706,-298.34566789758
738540.49074432568158954382,8.90873439741203,-2.90803247169408,-298.299508651997
738540.49074441613629460335,8.89950254829554,-2.92649616992706,-298.281044953764
738540.49074450659099966288,8.90873439741203,-2.92649616992706,-298.179494613483
738540.49074459692928940058,8.89950254829554,-2.91726432081057,-298.216422009949
738540.49074468738399446011,8.91796624652852,-2.91726432081057,-298.271813104648
738540.49074477783869951963,8.94566179387799,-2.89880062257759,-298.34566789758
738540.49074486817698925734,8.95489364299448,-2.89880062257759,-298.354899746696
738540.49074495863169431686,8.97335734122745,-2.86187322611164,-298.327204199347
738540.49074504908639937639,8.95489364299448,-2.87110507522813,-298.354899746696
738540.49074513954110443592,8.94566179387799,-2.85264137699515,-298.281044953764
738540.49074522987939417362,8.99182103946043,-2.83417767876217,-298.207190160833
738540.49074532033409923315,8.97335734122745,-2.85264137699515,-298.207190160833
738540.49074541078880429268,8.95489364299448,-2.85264137699515,-298.271813104648
738540.49074550112709403038,8.9364299447615,-2.85264137699515,-298.281044953764
738540.49074559158179908991,8.92719809564501,-2.86187322611164,-298.34566789758
738540.49074568203650414944,8.89027069917905,-2.91726432081057,-298.354899746696
738540.49074577237479388714,8.89027069917905,-2.91726432081057,-298.336436048463
738540.49074586282949894667,8.89027069917905,-2.90803247169408,-298.382595294046
738540.49074595328420400620,8.88103885006256,-2.92649616992706,-298.382595294046
738540.49074604373890906572,8.89027069917905,-2.92649616992706,-298.354899746696
738540.49074613407719880342,8.89027069917905,-2.92649616992706,-298.336436048463
738540.49074622453190386295,8.90873439741203,-2.90803247169408,-298.271813104648
738540.49074631498660892248,8.87180700094607,-2.92649616992706,-298.354899746696
738540.49074640532489866018,8.85334330271309,-2.93572801904355,-298.373363444929
738540.49074649577960371971,8.9364299447615,-2.87110507522813,-298.373363444929
738540.49074658623430877924,9.12106692709128,-2.69569994201483,-298.262581255531
738540.49074667668901383877,9.49034089175085,-2.52029480880154,-298.31797235023
738540.49074676702730357647,9.71190527054659,-2.34488967558824,-298.308740501114
738540.49074685748200863600,9.32416760765404,-2.76955473494675,-298.34566789758
738540.49074694793671369553,8.84411145359661,-3.22191534165471,-298.410290841395
738540.49074703827500343323,8.5948515274514,-3.12959685048982,-298.447218237861
738540.49074712872970849276,8.52099673451949,-3.10190130314035,-298.474913785211
738540.49074721918441355228,8.44714194158757,-3.08343760490738,-298.34566789758
738540.49074730963911861181,8.56715598010193,-2.981887264626,-298.382595294046
738540.49074739997740834951,8.72409741508225,-2.94495986816004,-298.419522690512
738540.49074749043211340904,8.74256111331523,-2.96342356639302,-298.428754539628
738540.49074758088681846857,8.85334330271309,-2.90803247169408,-298.327204199347
738540.49074767122510820627,8.84411145359661,-2.93572801904355,-298.364131595813
738540.49074776167981326580,8.86257515182958,-2.93572801904355,-298.364131595813
738540.49074785213451832533,8.86257515182958,-2.93572801904355,-298.34566789758
738540.49074794247280806303,8.89027069917905,-2.91726432081057,-298.354899746696
738540.49074803292751312256,8.88103885006256,-2.91726432081057,-298.253349406415
738540.49074812338221818209,8.95489364299448,-2.84340952787866,-298.253349406415
738540.49074821383692324162,8.90873439741203,-2.8895687734611,-298.354899746696
738540.49074830417521297932,8.87180700094607,-2.93572801904355,-298.354899746696
738540.49074839462991803885,8.89950254829554,-2.90803247169408,-298.354899746696
738540.49074848508462309837,8.92719809564501,-2.8895687734611,-298.308740501114
738540.49074857542291283607,8.92719809564501,-2.88033692434461,-298.364131595813
738540.49074866587761789560,8.94566179387799,-2.86187322611164,-298.299508651997
738540.49074875633232295513,8.95489364299448,-2.84340952787866,-298.281044953764
738540.49074884678702801466,8.98258919034394,-2.82494582964568,-298.290276802881
738540.49074893712531775236,8.97335734122745,-2.84340952787866,-298.281044953764
738540.49074902758002281189,8.96412549211096,-2.83417767876217,-298.290276802881
738540.49074911803472787142,9.0195165868099,-2.77878658406323,-298.253349406415
738540.49074920837301760912,9.00105288857692,-2.79725028229621,-298.34566789758
738540.49074929882772266865,9.13953062532426,-2.69569994201483,-298.336436048463
738540.49074938928242772818,9.06567583239235,-2.76032288583026,-298.308740501114
738540.49074947973713278770,9.02874843592639,-2.79725028229621,-298.336436048463
738540.49074957007542252541,9.06567583239235,-2.75109103671377,-298.271813104648
738540.49074966053012758493,9.13029877620777,-2.68646809289834,-298.308740501114
738540.49074975098483264446,9.09337137974181,-2.7233954893643,-298.290276802881
738540.49074984132312238216,9.11183507797479,-2.69569994201483,-298.271813104648
738540.49074993177782744169,9.14876247444075,-2.65877254554888,-298.262581255531
738540.49075002223253250122,9.14876247444075,-2.66800439466536,-298.290276802881
738540.49075011268723756075,9.17645802179022,-2.63107699819941,-298.336436048463
738540.49075020302552729845,9.17645802179022,-2.62184514908292,-298.364131595813
738540.49075029348023235798,9.1026032288583,-2.68646809289834,-298.308740501114
738540.49075038393493741751,9.16722617267373,-2.62184514908292,-298.34566789758
738540.49075047427322715521,9.12106692709128,-2.64954069643239,-298.354899746696
738540.49075056472793221474,8.91796624652852,-2.85264137699515,-298.401058992279
738540.49075065518263727427,8.9364299447615,-2.81571398052919,-298.401058992279
738540.49075074552092701197,8.9364299447615,-2.83417767876217,-298.34566789758
738540.49075083597563207150,8.89027069917905,-2.88033692434461,-298.373363444929
738540.49075092643033713102,8.89027069917905,-2.88033692434461,-298.382595294046
738540.49075101688504219055,8.88103885006256,-2.8895687734611,-298.34566789758
738540.49075110722333192825,8.84411145359661,-2.90803247169408,-298.410290841395
738540.49075119767803698778,8.87180700094607,-2.8895687734611,-298.401058992279
738540.49075128813274204731,8.90873439741203,-2.87110507522813,-298.354899746696
738540.49075137847103178501,8.91796624652852,-2.88033692434461,-298.391827143162
738540.49075146892573684454,8.92719809564501,-2.85264137699515,-298.373363444929
738540.49075155938044190407,8.96412549211096,-2.8064821314127,-298.253349406415
738540.49075164983514696360,8.99182103946043,-2.78801843317972,-298.271813104648
738540.49075174017343670130,8.92719809564501,-2.85264137699515,-298.373363444929
738540.49075183062814176083,8.98258919034394,-2.79725028229621,-298.327204199347
738540.49075192108284682035,8.86257515182958,-2.91726432081057,-298.373363444929
738540.49075201142113655806,8.86257515182958,-2.91726432081057,-298.373363444929
738540.49075210187584161758,8.89950254829554,-2.89880062257759,-298.382595294046
738540.49075219233054667711,8.92719809564501,-2.87110507522813,-298.354899746696
738540.49075228278525173664,8.90873439741203,-2.85264137699515,-298.373363444929
738540.49075237312354147434,8.91796624652852,-2.85264137699515,-298.373363444929
738540.49075246357824653387,8.91796624652852,-2.86187322611164,-298.34566789758
738540.49075255403295159340,8.90873439741203,-2.87110507522813,-298.262581255531
738540.49075264437124133110,8.89950254829554,-2.8895687734611,-298.336436048463
738540.49075273482594639063,8.90873439741203,-2.87110507522813,-298.327204199347
738540.49075282528065145016,8.88103885006256,-2.8895687734611,-298.382595294046
738540.49075291561894118786,8.89950254829554,-2.8895687734611,-298.34566789758
738540.49075300607364624739,8.91796624652852,-2.86187322611164,-298.327204199347
738540.49075309652835130692,8.90873439741203,-2.87110507522813,-298.327204199347
738540.49075318698305636644,8.9364299447615,-2.87110507522813,-298.327204199347
738540.49075327732134610415,8.9364299447615,-2.85264137699515,-298.31797235023
738540.49075336777605116367,8.91796624652852,-2.85264137699515,-298.336436048463
738540.49075345823075622320,8.90873439741203,-2.88033692434461,-298.31797235023
738540.49075354856904596090,8.91796624652852,-2.88033692434461,-298.299508651997
738540.49075363902375102043,8.95489364299448,-2.81571398052919,-298.299508651997
738540.49075372947845607996,8.9364299447615,-2.86187322611164,-298.308740501114
738540.49075381993316113949,8.97335734122745,-2.8064821314127,-298.308740501114
738540.49075391027145087719,8.87180700094607,-2.91726432081057,-298.336436048463
738540.49075400072615593672,8.79795220801416,-2.981887264626,-298.373363444929
738540.49075409118086099625,8.83487960448012,-2.96342356639302,-298.34566789758
738540.49075418151915073395,8.87180700094607,-2.89880062257759,-298.336436048463
738540.49075427197385579348,8.9364299447615,-2.82494582964568,-298.31797235023
738540.49075436242856085300,8.92719809564501,-2.87110507522813,-298.382595294046
738540.49075445288326591253,8.96412549211096,-2.86187322611164,-298.373363444929
738540.49075454322155565023,9.00105288857692,-2.81571398052919,-298.373363444929
738540.49075463367626070976,9.00105288857692,-2.8064821314127,-298.336436048463
738540.49075472413096576929,8.95489364299448,-2.85264137699515,-298.336436048463
738540.49075481446925550699,8.90873439741203,-2.87110507522813,-298.373363444929
738540.49075490492396056652,8.9364299447615,-2.83417767876217,-298.354899746696
738540.49075499537866562605,8.90873439741203,-2.86187322611164,-298.354899746696
738540.49075508571695536375,8.86257515182958,-2.89880062257759,-298.327204199347
738540.49075517617166042328,8.89950254829554,-2.86187322611164,-298.262581255531
738540.49075526662636548281,8.96412549211096,-2.8064821314127,-298.410290841395
738540.49075535708107054234,8.9364299447615,-2.82494582964568,-298.391827143162
738540.49075544741936028004,8.90873439741203,-2.87110507522813,-298.391827143162
738540.49075553787406533957,8.73332926419874,-3.00958281197546,-298.391827143162
738540.49075562832877039909,8.82564775536363,-2.92649616992706,-298.428754539628
738540.49075571866706013680,8.87180700094607,-2.90803247169408,-298.419522690512
738540.49075580912176519632,8.92719809564501,-2.88033692434461,-298.428754539628
738540.49075589957647025585,8.90873439741203,-2.86187322611164,-298.419522690512
738540.49075599003117531538,8.89027069917905,-2.87110507522813,-298.401058992279
738540.49075608036946505308,8.88103885006256,-2.88033692434461,-298.336436048463
738540.49075617082417011261,8.89950254829554,-2.86187322611164,-298.373363444929
738540.49075626127887517214,8.90873439741203,-2.85264137699515,-298.419522690512
738540.49075635161716490984,8.89027069917905,-2.87110507522813,-298.428754539628
738540.49075644207186996937,8.89950254829554,-2.84340952787866,-298.364131595813
738540.49075653252657502890,8.92719809564501,-2.82494582964568,-298.419522690512
738540.49075662298128008842,8.91796624652852,-2.82494582964568,-298.401058992279
738540.49075671331956982613,8.85334330271309,-2.91726432081057,-298.410290841395
738540.49075680377427488565,8.79795220801416,-2.93572801904355,-298.382595294046
738540.49075689422897994518,8.78872035889767,-2.92649616992706,-298.437986388745
738540.49075698456726968288,8.81641590624714,-2.93572801904355,-298.428754539628
738540.49075707502197474241,8.85334330271309,-2.92649616992706,-298.373363444929
738540.49075716547667980194,8.88103885006256,-2.92649616992706,-298.410290841395
738540.49075725581496953964,8.88103885006256,-2.92649616992706,-298.437986388745
738540.49075734626967459917,8.84411145359661,-2.92649616992706,-298.382595294046
738540.49075743672437965870,8.90873439741203,-2.8895687734611,-298.428754539628
738540.49075752717908471823,8.96412549211096,-2.84340952787866,-298.419522690512
738540.49075761751737445593,8.89950254829554,-2.89880062257759,-298.336436048463
738540.49075770797207951546,8.99182103946043,-2.76032288583026,-298.373363444929
738540.49075779842678457499,8.98258919034394,-2.76955473494675,-298.382595294046
738540.49075788876507431269,8.83487960448012,-2.88033692434461,-298.419522690512
738540.49075797921977937222,8.80718405713065,-2.90803247169408,-298.382595294046
738540.49075806967448443174,8.75179296243171,-2.97265541550951,-298.437986388745
738540.49075816012918949127,8.79795220801416,-2.90803247169408,-298.401058992279
738540.49075825046747922897,8.79795220801416,-2.91726432081057,-298.373363444929
738540.49075834092218428850,8.87180700094607,-2.86187322611164,-298.373363444929
738540.49075843137688934803,8.86257515182958,-2.85264137699515,-298.327204199347
738540.49075852171517908573,8.89027069917905,-2.83417767876217,-298.308740501114
738540.49075861216988414526,8.77948850978118,-2.92649616992706,-298.271813104648
738540.49075870262458920479,8.70563371684927,-2.981887264626,-298.216422009949
738540.49075879307929426432,8.79795220801416,-2.89880062257759,-298.308740501114
738540.49075888341758400202,8.88103885006256,-2.73262733848079,-298.281044953764
738540.49075897387228906155,9.1856898709067,-2.61261329996643,-298.244117557298
738540.49075906432699412107,9.61035493026521,-2.36335337382122,-298.207190160833
738540.49075915466528385878,9.54573198644978,-2.40951261940367,-298.207190160833
738540.49075924511998891830,9.12106692709128,-2.92649616992706,-298.364131595813
738540.49075933557469397783,8.73332926419874,-3.05574205755791,-298.382595294046
738540.49075942602939903736,8.45637379070406,-3.03727835932493,-298.34566789758
738540.49075951636768877506,8.35482345042268,-3.07420575579089,-298.401058992279
738540.49075960682239383459,8.30866420484024,-3.11113315225684,-298.401058992279
738540.49075969727709889412,8.49330118717002,-3.00035096285897,-298.382595294046
738540.49075978761538863182,8.61331522568438,-2.95419171727653,-298.410290841395
738540.49075987807009369135,8.65947447126682,-2.94495986816004,-298.401058992279
738540.49075996852479875088,8.72409741508225,-2.94495986816004,-298.419522690512
738540.49076005886308848858,8.7610248115482,-2.90803247169408,-298.401058992279
738540.49076014931779354811,8.77025666066469,-2.91726432081057,-298.419522690512
738540.49076023977249860764,8.77948850978118,-2.91726432081057,-298.437986388745
738540.49076033022720366716,8.77948850978118,-2.90803247169408,-298.410290841395
738540.49076042056549340487,8.78872035889767,-2.90803247169408,-298.391827143162
738540.49076051102019846439,8.79795220801416,-2.90803247169408,-298.410290841395
738540.49076060147490352392,8.79795220801416,-2.8895687734611,-298.410290841395
738540.49076069181319326162,8.81641590624714,-2.89880062257759,-298.410290841395
738540.49076078226789832115,8.80718405713065,-2.8895687734611,-298.447218237861
738540.49076087272260338068,8.86257515182958,-2.84340952787866,-298.419522690512
738540.49076096317730844021,8.81641590624714,-2.8895687734611,-298.391827143162
738540.49076105351559817791,8.9364299447615,-2.76955473494675,-298.410290841395
738540.49076114397030323744,8.89027069917905,-2.82494582964568,-298.373363444929
738540.49076123442500829697,9.00105288857692,-2.68646809289834,-298.336436048463
738540.49076132476329803467,8.86257515182958,-2.85264137699515,-298.364131595813
738540.49076141521800309420,8.77025666066469,-2.97265541550951,-298.31797235023
738540.49076150567270815372,8.84411145359661,-2.89880062257759,-298.299508651997
738540.49076159612741321325,8.9364299447615,-2.82494582964568,-298.34566789758
738540.49076168646570295095,8.99182103946043,-2.76032288583026,-298.290276802881
738540.49076177692040801048,9.01028473769341,-2.74185918759728,-298.327204199347
738540.49076186737511307001,9.01028473769341,-2.71416364024781,-298.31797235023
738540.49076195771340280771,9.03798028504288,-2.70493179113132,-298.299508651997
738540.49076204816810786724,9.04721213415937,-2.68646809289834,-298.308740501114
738540.49076213862281292677,9.07490768150883,-2.68646809289834,-298.271813104648
738540.49076222896110266447,9.08413953062532,-2.67723624378185,-298.179494613483
738540.49076231941580772400,9.07490768150883,-2.67723624378185,-298.31797235023
738540.49076240987051278353,9.09337137974181,-2.67723624378185,-298.327204199347
738540.49076250032521784306,9.07490768150883,-2.67723624378185,-298.31797235023
738540.49076259066350758076,9.0195165868099,-2.71416364024781,-298.382595294046
738540.49076268111821264029,9.0195165868099,-2.7233954893643,-298.373363444929
738540.49076277157291769981,8.99182103946043,-2.75109103671377,-298.382595294046
738540.49076286191120743752,8.9364299447615,-2.77878658406323,-298.354899746696
738540.49076295236591249704,8.90873439741203,-2.81571398052919,-298.327204199347
738540.49076304282061755657,8.97335734122745,-2.74185918759728,-298.31797235023
738540.49076313327532261610,8.89950254829554,-2.81571398052919,-298.354899746696
738540.49076322361361235380,8.78872035889767,-2.89880062257759,-298.373363444929
738540.49076331406831741333,8.79795220801416,-2.91726432081057,-298.34566789758
738540.49076340452302247286,8.82564775536363,-2.88033692434461,-298.391827143162
738540.49076349486131221056,8.83487960448012,-2.88033692434461,-298.401058992279
738540.49076358531601727009,8.82564775536363,-2.88033692434461,-298.364131595813
738540.49076367577072232962,8.82564775536363,-2.88033692434461,-298.364131595813
738540.49076376622542738914,8.85334330271309,-2.83417767876217,-298.428754539628
738540.49076385656371712685,8.86257515182958,-2.83417767876217,-298.391827143162
738540.49076394701842218637,8.85334330271309,-2.84340952787866,-298.364131595813
738540.49076403747312724590,8.92719809564501,-2.76032288583026,-298.391827143162
738540.49076412781141698360,8.88103885006256,-2.81571398052919,-298.401058992279
738540.49076421826612204313,8.84411145359661,-2.86187322611164,-298.391827143162
738540.49076430872082710266,8.78872035889767,-2.91726432081057,-298.382595294046
738540.49076439905911684036,8.7610248115482,-2.93572801904355,-298.410290841395
738540.49076448951382189989,8.77025666066469,-2.92649616992706,-298.419522690512
738540.49076457996852695942,8.79795220801416,-2.91726432081057,-298.354899746696
738540.49076467042323201895,8.80718405713065,-2.90803247169408,-298.410290841395
738540.49076476076152175665,8.80718405713065,-2.8895687734611,-298.428754539628
738540.49076485121622681618,8.81641590624714,-2.8895687734611,-298.364131595813
738540.49076494167093187571,8.79795220801416,-2.8895687734611,-298.419522690512
738540.49076503200922161341,8.79795220801416,-2.88033692434461,-298.410290841395
738540.49076512246392667294,8.81641590624714,-2.88033692434461,-298.401058992279
738540.49076521291863173246,8.81641590624714,-2.88033692434461,-298.364131595813
738540.49076530337333679199,8.84411145359661,-2.85264137699515,-298.428754539628
738540.49076539371162652969,8.84411145359661,-2.84340952787866,-298.391827143162
738540.49076548416633158922,8.84411145359661,-2.84340952787866,-298.401058992279
738540.49076557462103664875,8.82564775536363,-2.87110507522813,-298.373363444929
738540.49076566495932638645,8.92719809564501,-2.77878658406323,-298.234885708182
738540.49076575541403144598,8.7610248115482,-2.95419171727653,-298.336436048463
738540.49076584586873650551,8.71486556596576,-3.00958281197546,-298.364131595813
738540.49076593632344156504,8.70563371684927,-2.99111911374248,-298.354899746696
738540.49076602666173130274,8.72409741508225,-2.96342356639302,-298.34566789758
738540.49076611711643636227,8.74256111331523,-2.94495986816004,-298.31797235023
738540.49076620757114142179,8.7610248115482,-2.94495986816004,-298.391827143162
738540.49076629790943115950,8.79795220801416,-2.92649616992706,-298.391827143162
738540.49076638836413621902,8.79795220801416,-2.91726432081057,-298.419522690512
738540.49076647881884127855,8.80718405713065,-2.91726432081057,-298.373363444929
738540.49076656915713101625,8.78872035889767,-2.91726432081057,-298.410290841395
738540.49076665961183607578,8.79795220801416,-2.89880062257759,-298.419522690512
738540.49076675006654113531,8.78872035889767,-2.90803247169408,-298.336436048463
738540.49076684052124619484,8.81641590624714,-2.88033692434461,-298.419522690512
738540.49076693085953593254,8.87180700094607,-2.83417767876217,-298.391827143162
738540.49076702131424099207,8.81641590624714,-2.90803247169408,-298.373363444929
738540.49076711176894605160,8.83487960448012,-2.85264137699515,-298.382595294046
738540.49076720210723578930,8.88103885006256,-2.81571398052919,-298.364131595813
738540.49076729256194084883,8.69640186773278,-2.99111911374248,-298.327204199347
738540.49076738301664590836,8.71486556596576,-3.00035096285897,-298.327204199347
738540.49076747347135096788,8.74256111331523,-2.96342356639302,-298.327204199347
738540.49076756380964070559,8.7610248115482,-2.94495986816004,-298.34566789758
738540.49076765426434576511,8.75179296243171,-2.94495986816004,-298.336436048463
738540.49076774471905082464,8.77025666066469,-2.92649616992706,-298.31797235023
738540.49076783505734056234,8.77948850978118,-2.91726432081057,-298.308740501114
738540.49076792551204562187,8.78872035889767,-2.89880062257759,-298.354899746696
738540.49076801596675068140,8.84411145359661,-2.85264137699515,-298.31797235023
738540.49076810642145574093,8.80718405713065,-2.88033692434461,-298.391827143162
738540.49076819675974547863,8.84411145359661,-2.85264137699515,-298.437986388745
738540.49076828721445053816,8.98258919034394,-2.68646809289834,-298.354899746696
738540.49076837766915559769,8.71486556596576,-2.981887264626,-298.419522690512
738540.49076846800744533539,8.69640186773278,-3.00035096285897,-298.447218237861
738540.49076855846215039492,8.80718405713065,-2.8895687734611,-298.373363444929
738540.49076864891685545444,8.69640186773278,-2.99111911374248,-298.437986388745
738540.49076873937156051397,8.69640186773278,-3.00035096285897,-298.447218237861
738540.49076882970985025167,8.78872035889767,-2.94495986816004,-298.428754539628
738540.49076892016455531120,8.81641590624714,-2.93572801904355,-298.410290841395
738540.49076901061926037073,8.83487960448012,-2.91726432081057,-298.465681936094
738540.49076910095755010843,8.84411145359661,-2.8895687734611,-298.419522690512
738540.49076919141225516796,8.89950254829554,-2.86187322611164,-298.170262764367
738540.49076928186696022749,8.91796624652852,-2.87110507522813,-298.336436048463
738540.49076937220524996519,8.9364299447615,-2.84340952787866,-298.437986388745
738540.49076946265995502472,8.94566179387799,-2.8064821314127,-298.428754539628
738540.49076955311466008425,8.89027069917905,-2.83417767876217,-298.382595294046
738540.49076964356936514378,8.89027069917905,-2.82494582964568,-298.410290841395
738540.49076973390765488148,8.97335734122745,-2.74185918759728,-298.401058992279
738540.49076982436235994101,8.89950254829554,-2.78801843317972,-298.401058992279
738540.49076991481706500053,8.78872035889767,-2.90803247169408,-298.299508651997
738540.49077000515535473824,8.77025666066469,-2.89880062257759,-298.419522690512
738540.49077009561005979776,8.69640186773278,-3.00035096285897,-298.419522690512
738540.49077018606476485729,8.69640186773278,-3.00035096285897,-298.34566789758
738540.49077027651946991682,8.73332926419874,-2.96342356639302,-298.354899746696
738540.49077036685775965452,8.75179296243171,-2.93572801904355,-298.336436048463
738540.49077045731246471405,8.71486556596576,-2.92649616992706,-298.354899746696
738540.49077054776716977358,8.78872035889767,-2.8895687734611,-298.34566789758
738540.49077063810545951128,8.87180700094607,-2.76032288583026,-298.34566789758
738540.49077072856016457081,9.19492172002319,-2.61261329996643,-298.271813104648
738540.49077081901486963034,9.57342753379925,-2.48336741233558,-298.244117557298
738540.49077090946957468987,9.66574602496414,-2.40028077028718,-298.253349406415
738540.49077099980786442757,9.14876247444075,-2.84340952787866,-298.354899746696
738540.49077109026256948709,8.65947447126682,-3.0649739066744,-298.410290841395
738540.49077118071727454662,8.36405529953917,-3.08343760490738,-298.373363444929
738540.49077127105556428432,8.29943235572375,-3.07420575579089,-298.373363444929
738540.49077136151026934385,8.3363597521897,-3.02804651020844,-298.419522690512
738540.49077145196497440338,8.53022858363597,-2.95419171727653,-298.391827143162
738540.49077154230326414108,8.60408337656789,-2.93572801904355,-298.373363444929
738540.49077163275796920061,8.68717001861629,-2.89880062257759,-298.382595294046
738540.49077172321267426014,8.75179296243171,-2.8895687734611,-298.401058992279
738540.49077181366737931967,8.75179296243171,-2.89880062257759,-298.419522690512
738540.49077190400566905737,8.80718405713065,-2.88033692434461,-298.299508651997
738540.49077199446037411690,8.87180700094607,-2.83417767876217,-298.401058992279
738540.49077208491507917643,8.9364299447615,-2.76955473494675,-298.391827143162
738540.49077217525336891413,8.89027069917905,-2.82494582964568,-298.354899746696
738540.49077226570807397366,8.84411145359661,-2.88033692434461,-298.382595294046
738540.49077235616277903318,8.86257515182958,-2.85264137699515,-298.34566789758
738540.49077244661748409271,8.85334330271309,-2.87110507522813,-298.327204199347
738540.49077253695577383041,8.78872035889767,-2.94495986816004,-298.31797235023
738540.49077262741047888994,8.85334330271309,-2.8895687734611,-298.327204199347
738540.49077271786518394947,8.85334330271309,-2.87110507522813,-298.216422009949
738540.49077280820347368717,8.89027069917905,-2.84340952787866,-298.244117557298
738540.49077289865817874670,8.89027069917905,-2.84340952787866,-298.410290841395
738540.49077298911288380623,8.91796624652852,-2.82494582964568,-298.419522690512
738540.49077307956758886576,8.92719809564501,-2.82494582964568,-298.419522690512
738540.49077316990587860346,8.95489364299448,-2.8064821314127,-298.410290841395
738540.49077326036058366299,8.99182103946043,-2.76032288583026,-298.428754539628
738540.49077335081528872252,9.01028473769341,-2.74185918759728,-298.373363444929
738540.49077344115357846022,9.03798028504288,-2.71416364024781,-298.327204199347
738540.49077353160828351974,9.1026032288583,-2.65877254554888,-298.354899746696
738540.49077362206298857927,9.13953062532426,-2.62184514908292,-298.34566789758
738540.49077371240127831697,9.08413953062532,-2.68646809289834,-298.336436048463
738540.49077380285598337650,9.05644398327586,-2.74185918759728,-298.336436048463
738540.49077389331068843603,9.0195165868099,-2.76955473494675,-298.364131595813
738540.49077398376539349556,9.06567583239235,-2.73262733848079,-298.354899746696
738540.49077407410368323326,9.05644398327586,-2.73262733848079,-298.308740501114
738540.49077416455838829279,9.09337137974181,-2.71416364024781,-298.354899746696
738540.49077425501309335232,9.06567583239235,-2.7233954893643,-298.364131595813
738540.49077434535138309002,9.04721213415937,-2.7233954893643,-298.336436048463
738540.49077443580608814955,9.01028473769341,-2.75109103671377,-298.364131595813
738540.49077452626079320908,9.01028473769341,-2.76032288583026,-298.373363444929
738540.49077461671549826860,8.98258919034394,-2.76955473494675,-298.354899746696
738540.49077470705378800631,8.97335734122745,-2.79725028229621,-298.364131595813
738540.49077479750849306583,9.01028473769341,-2.74185918759728,-298.382595294046
738540.49077488796319812536,8.97335734122745,-2.76032288583026,-298.382595294046
738540.49077497830148786306,8.97335734122745,-2.77878658406323,-298.290276802881
738540.49077506875619292259,9.07490768150883,-2.67723624378185,-298.364131595813
738540.49077515921089798212,8.85334330271309,-2.90803247169408,-298.391827143162
738540.49077524966560304165,8.72409741508225,-3.03727835932493,-298.401058992279
738540.49077534000389277935,8.77025666066469,-2.99111911374248,-298.34566789758
738540.49077543045859783888,8.80718405713065,-2.93572801904355,-298.391827143162
738540.49077552091330289841,8.86257515182958,-2.89880062257759,-298.373363444929
738540.49077561125159263611,8.86257515182958,-2.8895687734611,-298.327204199347
738540.49077570170629769564,8.87180700094607,-2.88033692434461,-298.34566789758
738540.49077579216100275517,8.88103885006256,-2.88033692434461,-298.391827143162
738540.49077588249929249287,8.88103885006256,-2.87110507522813,-298.428754539628
738540.49077597295399755239,8.9364299447615,-2.8064821314127,-298.31797235023
738540.49077606340870261192,8.89027069917905,-2.88033692434461,-298.308740501114
738540.49077615386340767145,8.92719809564501,-2.8064821314127,-298.327204199347
738540.49077624420169740915,8.98258919034394,-2.75109103671377,-298.216422009949
738540.49077633465640246868,8.86257515182958,-2.90803247169408,-298.225653859066
738540.49077642511110752821,8.84411145359661,-2.90803247169408,-298.327204199347
738540.49077651544939726591,8.84411145359661,-2.91726432081057,-298.373363444929
738540.49077660590410232544,8.84411145359661,-2.91726432081057,-298.373363444929
738540.49077669635880738497,8.86257515182958,-2.8895687734611,-298.354899746696
738540.49077678681351244450,8.86257515182958,-2.8895687734611,-298.373363444929
738540.49077687715180218220,8.88103885006256,-2.88033692434461,-298.382595294046
738540.49077696760650724173,8.86257515182958,-2.88033692434461,-298.308740501114
738540.49077705806121230125,8.89027069917905,-2.87110507522813,-298.382595294046
738540.49077714839950203896,8.88103885006256,-2.88033692434461,-298.382595294046
738540.49077723885420709848,8.89950254829554,-2.88033692434461,-298.382595294046
738540.49077732930891215801,8.90873439741203,-2.86187322611164,-298.354899746696
738540.49077741976361721754,8.89027069917905,-2.87110507522813,-298.382595294046
738540.49077751010190695524,8.92719809564501,-2.86187322611164,-298.373363444929
738540.49077760055661201477,8.89027069917905,-2.87110507522813,-298.382595294046
738540.49077769101131707430,8.88103885006256,-2.87110507522813,-298.354899746696
738540.49077778134960681200,8.88103885006256,-2.8895687734611,-298.373363444929
738540.49077787180431187153,8.85334330271309,-2.89880062257759,-298.391827143162
738540.49077796225901693106,8.86257515182958,-2.89880062257759,-298.354899746696
738540.49077805271372199059,8.88103885006256,-2.8895687734611,-298.382595294046
738540.49077814305201172829,8.89027069917905,-2.87110507522813,-298.382595294046
738540.49077823350671678782,8.89950254829554,-2.87110507522813,-298.373363444929
738540.49077832396142184734,8.88103885006256,-2.88033692434461,-298.373363444929
738540.49077841429971158504,8.88103885006256,-2.88033692434461,-298.391827143162
738540.49077850475441664457,8.85334330271309,-2.91726432081057,-298.364131595813
738540.49077859520912170410,8.89950254829554,-2.8895687734611,-298.31797235023
738540.49077868554741144180,8.88103885006256,-2.8895687734611,-298.391827143162
738540.49077877600211650133,8.91796624652852,-2.8895687734611,-298.391827143162
738540.49077886645682156086,8.87180700094607,-2.89880062257759,-298.382595294046
738540.49077895691152662039,8.90873439741203,-2.87110507522813,-298.391827143162
738540.49077904724981635809,8.89027069917905,-2.89880062257759,-298.401058992279
738540.49077913770452141762,8.89950254829554,-2.89880062257759,-298.382595294046
738540.49077922815922647715,8.89950254829554,-2.88033692434461,-298.354899746696
738540.49077931849751621485,8.87180700094607,-2.8895687734611,-298.391827143162
738540.49077940895222127438,8.89950254829554,-2.88033692434461,-298.373363444929
738540.49077949940692633390,8.89027069917905,-2.88033692434461,-298.373363444929
738540.49077958986163139343,8.91796624652852,-2.86187322611164,-298.364131595813
738540.49077968019992113113,8.91796624652852,-2.86187322611164,-298.382595294046
738540.49077977065462619066,8.90873439741203,-2.87110507522813,-298.290276802881
738540.49077986110933125019,8.88103885006256,-2.89880062257759,-298.234885708182
738540.49077995144762098789,8.91796624652852,-2.88033692434461,-298.373363444929
738540.49078004190232604742,8.86257515182958,-2.92649616992706,-298.373363444929
738540.49078013235703110695,8.88103885006256,-2.90803247169408,-298.354899746696
738540.49078022281173616648,8.87180700094607,-2.89880062257759,-298.382595294046
738540.49078031315002590418,8.88103885006256,-2.91726432081057,-298.382595294046
738540.49078040360473096371,8.88103885006256,-2.91726432081057,-298.373363444929
738540.49078049405943602324,8.90873439741203,-2.8895687734611,-298.373363444929
738540.49078058439772576094,8.92719809564501,-2.8895687734611,-298.327204199347
738540.49078067485243082047,8.9364299447615,-2.8895687734611,-298.327204199347
738540.49078076530713587999,8.96412549211096,-2.87110507522813,-298.299508651997
738540.49078085564542561769,9.00105288857692,-2.85264137699515,-298.31797235023
738540.49078094610013067722,9.0195165868099,-2.84340952787866,-298.31797235023
738540.49078103655483573675,9.05644398327586,-2.77878658406323,-298.308740501114
738540.49078112700954079628,9.06567583239235,-2.79725028229621,-298.336436048463
738540.49078121734783053398,8.97335734122745,-2.88033692434461,-298.373363444929
738540.49078130780253559351,8.99182103946043,-2.81571398052919,-298.364131595813
738540.49078139825724065304,8.95489364299448,-2.84340952787866,-298.34566789758
738540.49078148859553039074,8.98258919034394,-2.81571398052919,-298.382595294046
738540.49078157905023545027,8.90873439741203,-2.8895687734611,-298.382595294046
738540.49078166950494050980,8.87180700094607,-2.91726432081057,-298.354899746696
738540.49078175995964556932,8.87180700094607,-2.91726432081057,-298.391827143162
738540.49078185029793530703,8.88103885006256,-2.89880062257759,-298.391827143162
738540.49078194075264036655,8.89027069917905,-2.8895687734611,-298.364131595813
738540.49078203120734542608,8.86257515182958,-2.92649616992706,-298.382595294046
738540.49078212154563516378,8.88103885006256,-2.92649616992706,-298.382595294046
738540.49078221200034022331,8.83487960448012,-2.91726432081057,-298.382595294046
738540.49078230245504528284,8.91796624652852,-2.87110507522813,-298.354899746696
738540.49078239290975034237,8.96412549211096,-2.81571398052919,-298.354899746696
738540.49078248324804008007,9.28724021118808,-2.60338145084994,-298.299508651997
738540.49078257370274513960,9.60112308114872,-2.51106295968505,-298.253349406415
738540.49078266415745019913,9.66574602496414,-2.49259926145207,-298.262581255531
738540.49078275449573993683,9.22261726737266,-2.90803247169408,-298.290276802881
738540.49078284495044499636,8.96412549211096,-3.11113315225684,-298.290276802881
738540.49078293540515005589,8.57638782921842,-3.1480605487228,-298.34566789758
738540.49078302574343979359,8.48406933805353,-3.04651020844142,-298.34566789758
738540.49078311619814485312,8.511764885403,-2.95419171727653,-298.308740501114
738540.49078320665284991264,8.62254707480087,-2.91726432081057,-298.31797235023
738540.49078329710755497217,8.74256111331523,-2.91726432081057,-298.299508651997
738540.49078338744584470987,8.80718405713065,-2.90803247169408,-298.262581255531
738540.49078347790054976940,8.86257515182958,-2.8895687734611,-298.327204199347
738540.49078356835525482893,8.84411145359661,-2.93572801904355,-298.373363444929
738540.49078365869354456663,8.89027069917905,-2.90803247169408,-298.336436048463
738540.49078374914824962616,8.88103885006256,-2.90803247169408,-298.382595294046
738540.49078383960295468569,8.90873439741203,-2.89880062257759,-298.382595294046
738540.49078393005765974522,8.89027069917905,-2.89880062257759,-298.336436048463
738540.49078402039594948292,8.91796624652852,-2.8895687734611,-298.401058992279
738540.49078411085065454245,8.92719809564501,-2.8895687734611,-298.299508651997
738540.49078420130535960197,8.96412549211096,-2.85264137699515,-298.299508651997
738540.49078429164364933968,8.97335734122745,-2.84340952787866,-298.299508651997
738540.49078438209835439920,8.96412549211096,-2.8895687734611,-298.327204199347
738540.49078447255305945873,8.9364299447615,-2.90803247169408,-298.308740501114
738540.49078456300776451826,8.97335734122745,-2.88033692434461,-298.308740501114
738540.49078465334605425596,8.97335734122745,-2.87110507522813,-298.271813104648
738540.49078474380075931549,8.99182103946043,-2.86187322611164,-298.281044953764
738540.49078483425546437502,9.0195165868099,-2.83417767876217,-298.336436048463
738540.49078492459375411272,9.02874843592639,-2.82494582964568,-298.299508651997
738540.49078501504845917225,9.06567583239235,-2.8064821314127,-298.308740501114
738540.49078510550316423178,9.05644398327586,-2.79725028229621,-298.336436048463
738540.49078519595786929131,9.1026032288583,-2.76955473494675,-298.364131595813
738540.49078528629615902901,9.1026032288583,-2.76032288583026,-298.354899746696
738540.49078537675086408854,9.14876247444075,-2.7233954893643,-298.391827143162
738540.49078546720556914806,9.13029877620777,-2.71416364024781,-298.391827143162
738540.49078555754385888577,9.17645802179022,-2.69569994201483,-298.336436048463
738540.49078564799856394529,9.17645802179022,-2.69569994201483,-298.373363444929
738540.49078573845326900482,9.21338541825617,-2.67723624378185,-298.364131595813
738540.49078582879155874252,9.19492172002319,-2.68646809289834,-298.34566789758
738540.49078591924626380205,9.19492172002319,-2.67723624378185,-298.354899746696
738540.49078600970096886158,9.17645802179022,-2.68646809289834,-298.410290841395
738540.49078610015567392111,9.16722617267373,-2.70493179113132,-298.373363444929
738540.49078619049396365881,9.11183507797479,-2.73262733848079,-298.327204199347
738540.49078628094866871834,9.11183507797479,-2.75109103671377,-298.382595294046
738540.49078637140337377787,9.07490768150883,-2.76032288583026,-298.391827143162
738540.49078646174166351557,9.05644398327586,-2.76955473494675,-298.336436048463
738540.49078655219636857510,9.02874843592639,-2.79725028229621,-298.373363444929
738540.49078664265107363462,8.99182103946043,-2.82494582964568,-298.410290841395
738540.49078673310577869415,9.00105288857692,-2.83417767876217,-298.373363444929
738540.49078682344406843185,8.98258919034394,-2.85264137699515,-298.34566789758
738540.49078691389877349138,8.98258919034394,-2.86187322611164,-298.1887264626
738540.49078700435347855091,8.98258919034394,-2.86187322611164,-298.336436048463
738540.49078709469176828861,9.00105288857692,-2.86187322611164,-298.299508651997
738540.49078718514647334814,8.98258919034394,-2.86187322611164,-298.308740501114
738540.49078727560117840767,8.98258919034394,-2.86187322611164,-298.299508651997
738540.49078736605588346720,8.97335734122745,-2.87110507522813,-298.281044953764
738540.49078745639417320490,8.96412549211096,-2.87110507522813,-298.373363444929
738540.49078754684887826443,8.97335734122745,-2.87110507522813,-298.391827143162
738540.49078763730358332396,8.97335734122745,-2.87110507522813,-298.419522690512
738540.49078772764187306166,8.98258919034394,-2.86187322611164,-298.401058992279
738540.49078781809657812119,8.99182103946043,-2.87110507522813,-298.34566789758
738540.49078790855128318071,8.99182103946043,-2.87110507522813,-298.31797235023
738540.49078799888957291842,9.00105288857692,-2.86187322611164,-298.308740501114
738540.49078808934427797794,9.00105288857692,-2.86187322611164,-298.382595294046
738540.49078817979898303747,8.98258919034394,-2.86187322611164,-298.354899746696
738540.49078827025368809700,8.99182103946043,-2.85264137699515,-298.327204199347
738540.49078836059197783470,8.98258919034394,-2.87110507522813,-298.327204199347
738540.49078845104668289423,9.01028473769341,-2.86187322611164,-298.34566789758
738540.49078854150138795376,9.00105288857692,-2.86187322611164,-298.327204199347
738540.49078863183967769146,8.99182103946043,-2.87110507522813,-298.364131595813
738540.49078872229438275099,9.00105288857692,-2.87110507522813,-298.327204199347
738540.49078881274908781052,8.99182103946043,-2.87110507522813,-298.327204199347
738540.49078890320379287004,8.98258919034394,-2.87110507522813,-298.336436048463
738540.49078899354208260775,8.98258919034394,-2.87110507522813,-298.34566789758
738540.49078908399678766727,8.97335734122745,-2.88033692434461,-298.373363444929
738540.49078917445149272680,8.95489364299448,-2.8895687734611,-298.382595294046
738540.49078926478978246450,8.95489364299448,-2.8895687734611,-298.419522690512
738540.49078935524448752403,8.97335734122745,-2.88033692434461,-298.31797235023
738540.49078944569919258356,8.97335734122745,-2.87110507522813,-298.391827143162
738540.49078953615389764309,8.95489364299448,-2.8895687734611,-298.354899746696
738540.49078962649218738079,8.97335734122745,-2.87110507522813,-298.308740501114
738540.49078971694689244032,8.96412549211096,-2.88033692434461,-298.308740501114
738540.49078980740159749985,8.96412549211096,-2.87110507522813,-298.31797235023
738540.49078989773988723755,8.9364299447615,-2.88033692434461,-298.308740501114
738540.49078998819459229708,8.96412549211096,-2.88033692434461,-298.327204199347
738540.49079007864929735661,8.94566179387799,-2.8895687734611,-298.391827143162
738540.49079016898758709431,8.95489364299448,-2.87110507522813,-298.410290841395
738540.49079025944229215384,8.94566179387799,-2.88033692434461,-298.336436048463
738540.49079034989699721336,8.94566179387799,-2.8895687734611,-298.34566789758
738540.49079044035170227289,8.96412549211096,-2.8895687734611,-298.401058992279
738540.49079053068999201059,8.94566179387799,-2.8895687734611,-298.419522690512
738540.49079062114469707012,8.98258919034394,-2.87110507522813,-298.401058992279
738540.49079071159940212965,8.96412549211096,-2.8895687734611,-298.391827143162
738540.49079080193769186735,8.95489364299448,-2.88033692434461,-298.428754539628
738540.49079089239239692688,8.9364299447615,-2.8895687734611,-298.410290841395
738540.49079098284710198641,8.97335734122745,-2.87110507522813,-298.253349406415
738540.49079107330180704594,8.94566179387799,-2.8895687734611,-298.364131595813
738540.49079116364009678364,8.96412549211096,-2.88033692434461,-298.382595294046
738540.49079125409480184317,8.95489364299448,-2.88033692434461,-298.308740501114
738540.49079134454950690269,8.96412549211096,-2.87110507522813,-298.327204199347
738540.49079143488779664040,8.94566179387799,-2.88033692434461,-298.31797235023
738540.49079152534250169992,8.98258919034394,-2.86187322611164,-298.308740501114
738540.49079161579720675945,8.94566179387799,-2.87110507522813,-298.354899746696
738540.49079170625191181898,8.98258919034394,-2.86187322611164,-298.354899746696
738540.49079179659020155668,8.99182103946043,-2.85264137699515,-298.373363444929
738540.49079188704490661621,8.97335734122745,-2.88033692434461,-298.31797235023
738540.49079197749961167574,8.94566179387799,-2.89880062257759,-298.391827143162
738540.49079206783790141344,8.9364299447615,-2.90803247169408,-298.382595294046
738540.49079215829260647297,8.9364299447615,-2.89880062257759,-298.391827143162
738540.49079224874731153250,8.94566179387799,-2.89880062257759,-298.327204199347
738540.49079233908560127020,8.97335734122745,-2.8895687734611,-298.34566789758
738540.49079242954030632973,8.94566179387799,-2.90803247169408,-298.336436048463
738540.49079251999501138926,9.0195165868099,-2.86187322611164,-298.34566789758
738540.49079261044971644878,9.0195165868099,-2.85264137699515,-298.364131595813
738540.49079270078800618649,9.04721213415937,-2.84340952787866,-298.373363444929
738540.49079279124271124601,9.05644398327586,-2.84340952787866,-298.410290841395
738540.49079288169741630554,9.05644398327586,-2.83417767876217,-298.373363444929
738540.49079297203570604324,9.01028473769341,-2.83417767876217,-298.31797235023
738540.49079306249041110277,9.00105288857692,-2.81571398052919,-298.373363444929
738540.49079315294511616230,8.97335734122745,-2.84340952787866,-298.364131595813
738540.49079324339982122183,8.99182103946043,-2.82494582964568,-298.31797235023
738540.49079333373811095953,8.97335734122745,-2.85264137699515,-298.327204199347
738540.49079342419281601906,8.94566179387799,-2.88033692434461,-298.336436048463
738540.49079351464752107859,8.91796624652852,-2.89880062257759,-298.364131595813
738540.49079360498581081629,8.9364299447615,-2.90803247169408,-298.382595294046
738540.49079369544051587582,8.95489364299448,-2.87110507522813,-298.364131595813
738540.49079378589522093534,8.9364299447615,-2.8895687734611,-298.391827143162
738540.49079387634992599487,8.87180700094607,-2.91726432081057,-298.207190160833
738540.49079396668821573257,8.92719809564501,-2.88033692434461,-298.34566789758
738540.49079405714292079210,9.01028473769341,-2.78801843317972,-298.373363444929
738540.49079414759762585163,9.05644398327586,-2.71416364024781,-298.34566789758
738540.49079423793591558933,9.38879055146947,-2.57568590350047,-298.34566789758
738540.49079432839062064886,9.65651417584765,-2.43720816675314,-298.290276802881
738540.49079441884532570839,9.51803643910031,-2.57568590350047,-298.290276802881
738540.49079450930003076792,9.0195165868099,-3.09266945402387,-298.447218237861
738540.49079459963832050562,8.66870632038331,-3.17575609607227,-298.465681936094
738540.49079469009302556515,8.54869228186895,-3.03727835932493,-298.364131595813
738540.49079478054773062468,8.54869228186895,-2.97265541550951,-298.391827143162
738540.49079487088602036238,8.58561967833491,-2.94495986816004,-298.391827143162
738540.49079496134072542191,8.72409741508225,-2.91726432081057,-298.336436048463
738540.49079505179543048143,8.78872035889767,-2.91726432081057,-298.401058992279
738540.49079514213372021914,8.84411145359661,-2.90803247169408,-298.410290841395
738540.49079523258842527866,8.90873439741203,-2.88033692434461,-298.401058992279
738540.49079532304313033819,8.92719809564501,-2.88033692434461,-298.373363444929
738540.49079541349783539772,8.94566179387799,-2.87110507522813,-298.373363444929
738540.49079550383612513542,8.91796624652852,-2.88033692434461,-298.437986388745
738540.49079559429083019495,8.94566179387799,-2.86187322611164,-298.437986388745
738540.49079568474553525448,8.92719809564501,-2.86187322611164,-298.34566789758
738540.49079577508382499218,8.95489364299448,-2.85264137699515,-298.308740501114
738540.49079586553853005171,8.94566179387799,-2.85264137699515,-298.299508651997
738540.49079595599323511124,8.97335734122745,-2.85264137699515,-298.308740501114
738540.49079604644794017076,8.97335734122745,-2.84340952787866,-298.336436048463
738540.49079613678622990847,8.97335734122745,-2.84340952787866,-298.308740501114
738540.49079622724093496799,9.01028473769341,-2.81571398052919,-298.299508651997
738540.49079631769564002752,9.00105288857692,-2.82494582964568,-298.308740501114
738540.49079640803392976522,9.0195165868099,-2.8064821314127,-298.31797235023
738540.49079649848863482475,9.00105288857692,-2.8064821314127,-298.31797235023
738540.49079658894333988428,9.01028473769341,-2.79725028229621,-298.327204199347
738540.49079667939804494381,9.09337137974181,-2.73262733848079,-298.354899746696
738540.49079676973633468151,9.12106692709128,-2.7233954893643,-298.373363444929
738540.49079686019103974104,9.09337137974181,-2.75109103671377,-298.290276802881
738540.49079695064574480057,9.13029877620777,-2.7233954893643,-298.336436048463
738540.49079704098403453827,9.13029877620777,-2.71416364024781,-298.31797235023
738540.49079713143873959780,9.13029877620777,-2.70493179113132,-298.373363444929
738540.49079722189344465733,9.16722617267373,-2.65877254554888,-298.31797235023
738540.49079731223173439503,9.1856898709067,-2.65877254554888,-298.327204199347
738540.49079740268643945456,9.19492172002319,-2.63107699819941,-298.151799066134
738540.49079749314114451408,9.23184911648915,-2.61261329996643,-298.216422009949
738540.49079758359584957361,9.21338541825617,-2.64954069643239,-298.327204199347
738540.49079767393413931131,9.19492172002319,-2.66800439466536,-298.336436048463
738540.49079776438884437084,9.15799432355724,-2.68646809289834,-298.34566789758
738540.49079785484354943037,9.13029877620777,-2.69569994201483,-298.382595294046
738540.49079794518183916807,9.13029877620777,-2.70493179113132,-298.327204199347
738540.49079803563654422760,9.09337137974181,-2.73262733848079,-298.373363444929
738540.49079812609124928713,9.09337137974181,-2.74185918759728,-298.336436048463
738540.49079821654595434666,9.06567583239235,-2.77878658406323,-298.262581255531
738540.49079830688424408436,9.08413953062532,-2.76032288583026,-298.299508651997
738540.49079839733894914389,9.00105288857692,-2.82494582964568,-298.308740501114
738540.49079848779365420341,9.00105288857692,-2.82494582964568,-298.308740501114
738540.49079857813194394112,8.98258919034394,-2.84340952787866,-298.31797235023
738540.49079866858664900064,9.00105288857692,-2.83417767876217,-298.34566789758
738540.49079875904135406017,8.97335734122745,-2.82494582964568,-298.410290841395
738540.49079884949605911970,8.99182103946043,-2.82494582964568,-298.299508651997
738540.49079893983434885740,8.98258919034394,-2.83417767876217,-298.364131595813
738540.49079903028905391693,8.98258919034394,-2.82494582964568,-298.373363444929
738540.49079912074375897646,8.99182103946043,-2.82494582964568,-298.354899746696
738540.49079921108204871416,8.98258919034394,-2.82494582964568,-298.401058992279
738540.49079930153675377369,8.99182103946043,-2.82494582964568,-298.391827143162
738540.49079939199145883322,8.96412549211096,-2.84340952787866,-298.382595294046
738540.49079948232974857092,8.97335734122745,-2.82494582964568,-298.336436048463
738540.49079957278445363045,8.97335734122745,-2.83417767876217,-298.382595294046
738540.49079966323915868998,9.01028473769341,-2.82494582964568,-298.382595294046
738540.49079975369386374950,8.99182103946043,-2.82494582964568,-298.354899746696
738540.49079984403215348721,9.01028473769341,-2.82494582964568,-298.373363444929
738540.49079993448685854673,9.01028473769341,-2.82494582964568,-298.410290841395
738540.49080002494156360626,9.00105288857692,-2.83417767876217,-298.428754539628
738540.49080011527985334396,8.98258919034394,-2.83417767876217,-298.327204199347
738540.49080020573455840349,8.98258919034394,-2.83417767876217,-298.364131595813
738540.49080029618926346302,8.99182103946043,-2.83417767876217,-298.336436048463
738540.49080038664396852255,9.00105288857692,-2.82494582964568,-298.391827143162
738540.49080047698225826025,9.00105288857692,-2.83417767876217,-298.419522690512
738540.49080056743696331978,8.97335734122745,-2.85264137699515,-298.327204199347
738540.49080065789166837931,8.96412549211096,-2.84340952787866,-298.373363444929
738540.49080074822995811701,8.97335734122745,-2.83417767876217,-298.391827143162
738540.49080083868466317654,8.96412549211096,-2.83417767876217,-298.34566789758
738540.49080092913936823606,8.92719809564501,-2.85264137699515,-298.225653859066
738540.49080101959407329559,8.95489364299448,-2.85264137699515,-298.31797235023
738540.49080110993236303329,8.95489364299448,-2.86187322611164,-298.327204199347
738540.49080120038706809282,8.97335734122745,-2.84340952787866,-298.31797235023
738540.49080129084177315235,8.94566179387799,-2.88033692434461,-298.31797235023
738540.49080138118006289005,8.95489364299448,-2.87110507522813,-298.308740501114
738540.49080147163476794958,8.94566179387799,-2.87110507522813,-298.308740501114
738540.49080156208947300911,8.9364299447615,-2.86187322611164,-298.299508651997
738540.49080165242776274681,8.92719809564501,-2.87110507522813,-298.281044953764
738540.49080174288246780634,8.94566179387799,-2.86187322611164,-298.299508651997
738540.49080183333717286587,8.96412549211096,-2.85264137699515,-298.262581255531
738540.49080192379187792540,8.98258919034394,-2.83417767876217,-298.290276802881
738540.49080201413016766310,8.99182103946043,-2.82494582964568,-298.281044953764
738540.49080210458487272263,8.95489364299448,-2.85264137699515,-298.271813104648
738540.49080219503957778215,8.96412549211096,-2.85264137699515,-298.34566789758
738540.49080228537786751986,8.96412549211096,-2.85264137699515,-298.354899746696
738540.49080237583257257938,8.97335734122745,-2.85264137699515,-298.382595294046
738540.49080246628727763891,8.92719809564501,-2.86187322611164,-298.336436048463
738540.49080255674198269844,8.97335734122745,-2.85264137699515,-298.391827143162
738540.49080264708027243614,8.95489364299448,-2.85264137699515,-298.382595294046
738540.49080273753497749567,8.97335734122745,-2.85264137699515,-298.299508651997
738540.49080282798968255520,8.96412549211096,-2.84340952787866,-298.354899746696
738540.49080291832797229290,8.94566179387799,-2.86187322611164,-298.419522690512
738540.49080300878267735243,8.92719809564501,-2.85264137699515,-298.31797235023
738540.49080309923738241196,8.97335734122745,-2.84340952787866,-298.364131595813
738540.49080318969208747149,8.95489364299448,-2.85264137699515,-298.382595294046
738540.49080328003037720919,8.95489364299448,-2.86187322611164,-298.34566789758
738540.49080337048508226871,8.95489364299448,-2.84340952787866,-298.354899746696
738540.49080346093978732824,8.9364299447615,-2.87110507522813,-298.364131595813
738540.49080355127807706594,8.94566179387799,-2.86187322611164,-298.373363444929
738540.49080364173278212547,8.96412549211096,-2.86187322611164,-298.34566789758
738540.49080373218748718500,9.00105288857692,-2.86187322611164,-298.364131595813
738540.49080382264219224453,8.98258919034394,-2.85264137699515,-298.373363444929
738540.49080391298048198223,9.01028473769341,-2.83417767876217,-298.354899746696
738540.49080400343518704176,9.05644398327586,-2.81571398052919,-298.336436048463
738540.49080409388989210129,9.08413953062532,-2.77878658406323,-298.382595294046
738540.49080418422818183899,9.04721213415937,-2.79725028229621,-298.391827143162
738540.49080427468288689852,9.05644398327586,-2.79725028229621,-298.299508651997
738540.49080436513759195805,9.0195165868099,-2.81571398052919,-298.354899746696
738540.49080445547588169575,8.95489364299448,-2.84340952787866,-298.262581255531
738540.49080454593058675528,8.9364299447615,-2.84340952787866,-298.1887264626
738540.49080463638529181480,8.99182103946043,-2.83417767876217,-298.354899746696
738540.49080472683999687433,8.95489364299448,-2.86187322611164,-298.382595294046
738540.49080481717828661203,8.94566179387799,-2.86187322611164,-298.373363444929
738540.49080490763299167156,8.9364299447615,-2.87110507522813,-298.364131595813
738540.49080499808769673109,8.94566179387799,-2.86187322611164,-298.410290841395
738540.49080508842598646879,8.92719809564501,-2.87110507522813,-298.419522690512
738540.49080517888069152832,8.91796624652852,-2.86187322611164,-298.281044953764
738540.49080526933539658785,8.90873439741203,-2.86187322611164,-298.34566789758
738540.49080535979010164738,8.98258919034394,-2.81571398052919,-298.354899746696
738540.49080545012839138508,9.02874843592639,-2.73262733848079,-298.336436048463
738540.49080554058309644461,9.28724021118808,-2.60338145084994,-298.197958311716
738540.49080563103780150414,9.62881862849818,-2.4649037141026,-298.197958311716
738540.49080572137609124184,9.61035493026521,-2.45567186498611,-298.1887264626
738540.49080581183079630136,9.16722617267373,-2.90803247169408,-298.271813104648
738540.49080590228550136089,8.73332926419874,-3.12959685048982,-298.290276802881
738540.49080599274020642042,8.57638782921842,-2.99111911374248,-298.308740501114
738540.49080608307849615812,8.54869228186895,-2.93572801904355,-298.327204199347
738540.49080617353320121765,8.57638782921842,-2.90803247169408,-298.290276802881
738540.49080626398790627718,8.69640186773278,-2.88033692434461,-298.336436048463
738540.49080635432619601488,8.80718405713065,-2.87110507522813,-298.34566789758
738540.49080644478090107441,8.87180700094607,-2.85264137699515,-298.327204199347
738540.49080653523560613394,8.89027069917905,-2.86187322611164,-298.336436048463
738540.49080662557389587164,8.91796624652852,-2.85264137699515,-298.336436048463
738540.49080671602860093117,8.94566179387799,-2.84340952787866,-298.34566789758
738540.49080680648330599070,8.99182103946043,-2.82494582964568,-298.308740501114
738540.49080689693801105022,8.98258919034394,-2.83417767876217,-298.34566789758
738540.49080698727630078793,8.96412549211096,-2.84340952787866,-298.354899746696
738540.49080707773100584745,8.97335734122745,-2.81571398052919,-298.281044953764
738540.49080716818571090698,9.00105288857692,-2.81571398052919,-298.336436048463
738540.49080725852400064468,8.99182103946043,-2.82494582964568,-298.336436048463
738540.49080734897870570421,8.99182103946043,-2.83417767876217,-298.34566789758
738540.49080743943341076374,9.01028473769341,-2.86187322611164,-298.271813104648
738540.49080752988811582327,9.03798028504288,-2.84340952787866,-298.336436048463
738540.49080762022640556097,9.05644398327586,-2.81571398052919,-298.34566789758
738540.49080771068111062050,9.06567583239235,-2.8064821314127,-298.327204199347
738540.49080780113581568003,9.07490768150883,-2.78801843317972,-298.336436048463
738540.49080789147410541773,9.07490768150883,-2.8064821314127,-298.336436048463
738540.49080798192881047726,9.08413953062532,-2.78801843317972,-298.244117557298
738540.49080807238351553679,9.06567583239235,-2.79725028229621,-298.234885708182
738540.49080816283822059631,9.15799432355724,-2.73262733848079,-298.31797235023
738540.49080825317651033401,9.16722617267373,-2.71416364024781,-298.31797235023
738540.49080834363121539354,9.19492172002319,-2.68646809289834,-298.290276802881
738540.49080843408592045307,9.1856898709067,-2.68646809289834,-298.299508651997
738540.49080852442421019077,9.25031281472213,-2.6403088473159,-298.253349406415
738540.49080861487891525030,9.24108096560564,-2.64954069643239,-298.262581255531
738540.49080870533362030983,9.26877651295511,-2.6403088473159,-298.262581255531
738540.49080879567191004753,9.26877651295511,-2.62184514908292,-298.281044953764
738540.49080888612661510706,9.26877651295511,-2.6403088473159,-298.1887264626
738540.49080897658132016659,9.24108096560564,-2.64954069643239,-298.234885708182
738540.49080906703602522612,9.20415356913968,-2.69569994201483,-298.253349406415
738540.49080915737431496382,9.1856898709067,-2.70493179113132,-298.262581255531
738540.49080924782902002335,9.17645802179022,-2.7233954893643,-298.207190160833
738540.49080933828372508287,9.14876247444075,-2.73262733848079,-298.271813104648
738540.49080942862201482058,9.12106692709128,-2.75109103671377,-298.262581255531
738540.49080951907671988010,9.1026032288583,-2.75109103671377,-298.281044953764
738540.49080960953142493963,9.05644398327586,-2.79725028229621,-298.327204199347
738540.49080969998612999916,9.03798028504288,-2.79725028229621,-298.34566789758
738540.49080979032441973686,9.0195165868099,-2.81571398052919,-298.34566789758
738540.49080988077912479639,9.04721213415937,-2.8064821314127,-298.364131595813
738540.49080997123382985592,8.96412549211096,-2.87110507522813,-298.34566789758
738540.49081006157211959362,8.99182103946043,-2.86187322611164,-298.308740501114
738540.49081015202682465315,9.01028473769341,-2.84340952787866,-298.34566789758
738540.49081024248152971268,9.01028473769341,-2.85264137699515,-298.34566789758
738540.49081033293623477221,8.96412549211096,-2.88033692434461,-298.308740501114
738540.49081042327452450991,8.99182103946043,-2.87110507522813,-298.354899746696
738540.49081051372922956944,9.00105288857692,-2.84340952787866,-298.354899746696
738540.49081060418393462896,9.02874843592639,-2.82494582964568,-298.299508651997
738540.49081069452222436666,9.00105288857692,-2.84340952787866,-298.34566789758
738540.49081078497692942619,8.99182103946043,-2.86187322611164,-298.354899746696
738540.49081087543163448572,8.99182103946043,-2.87110507522813,-298.364131595813
738540.49081096576992422342,9.00105288857692,-2.86187322611164,-298.336436048463
738540.49081105622462928295,9.00105288857692,-2.86187322611164,-298.364131595813
738540.49081114667933434248,8.99182103946043,-2.86187322611164,-298.364131595813
738540.49081123713403940201,9.02874843592639,-2.82494582964568,-298.354899746696
738540.49081132747232913971,9.0195165868099,-2.83417767876217,-298.31797235023
738540.49081141792703419924,9.02874843592639,-2.83417767876217,-298.354899746696
738540.49081150838173925877,9.02874843592639,-2.8064821314127,-298.271813104648
738540.49081159872002899647,9.0195165868099,-2.8064821314127,-298.207190160833
738540.49081168917473405600,8.91796624652852,-2.90803247169408,-298.373363444929
738540.49081177962943911552,8.96412549211096,-2.87110507522813,-298.364131595813
738540.49081187008414417505,8.96412549211096,-2.87110507522813,-298.290276802881
738540.49081196042243391275,9.02874843592639,-2.84340952787866,-298.34566789758
738540.49081205087713897228,9.0195165868099,-2.84340952787866,-298.34566789758
738540.49081214133184403181,8.97335734122745,-2.8895687734611,-298.327204199347
738540.49081223167013376951,8.94566179387799,-2.91726432081057,-298.336436048463
738540.49081232212483882904,8.97335734122745,-2.8895687734611,-298.354899746696
738540.49081241257954388857,8.96412549211096,-2.88033692434461,-298.354899746696
738540.49081250303424894810,8.94566179387799,-2.8895687734611,-298.31797235023
738540.49081259337253868580,8.95489364299448,-2.89880062257759,-298.354899746696
738540.49081268382724374533,8.95489364299448,-2.89880062257759,-298.373363444929
738540.49081277428194880486,8.95489364299448,-2.89880062257759,-298.327204199347
738540.49081286462023854256,8.95489364299448,-2.91726432081057,-298.354899746696
738540.49081295507494360209,8.96412549211096,-2.8895687734611,-298.364131595813
738540.49081304552964866161,8.9364299447615,-2.89880062257759,-298.354899746696
738540.49081313598435372114,8.91796624652852,-2.91726432081057,-298.354899746696
738540.49081322632264345884,8.91796624652852,-2.91726432081057,-298.364131595813
738540.49081331677734851837,8.95489364299448,-2.8895687734611,-298.34566789758
738540.49081340723205357790,8.96412549211096,-2.8895687734611,-298.336436048463
738540.49081349757034331560,8.95489364299448,-2.8895687734611,-298.299508651997
738540.49081358802504837513,8.94566179387799,-2.89880062257759,-298.299508651997
738540.49081367847975343466,8.96412549211096,-2.88033692434461,-298.271813104648
738540.49081376881804317236,8.97335734122745,-2.87110507522813,-298.308740501114
738540.49081385927274823189,8.95489364299448,-2.89880062257759,-298.308740501114
738540.49081394972745329142,8.99182103946043,-2.85264137699515,-298.31797235023
738540.49081404018215835094,8.98258919034394,-2.86187322611164,-298.281044953764
738540.49081413052044808865,8.97335734122745,-2.88033692434461,-298.290276802881
738540.49081422097515314817,8.97335734122745,-2.87110507522813,-298.290276802881
738540.49081431142985820770,9.00105288857692,-2.85264137699515,-298.290276802881
738540.49081440176814794540,8.94566179387799,-2.8895687734611,-298.308740501114
738540.49081449222285300493,8.94566179387799,-2.89880062257759,-298.354899746696
738540.49081458267755806446,8.92719809564501,-2.89880062257759,-298.281044953764
738540.49081467313226312399,8.94566179387799,-2.8895687734611,-298.364131595813
738540.49081476347055286169,9.00105288857692,-2.86187322611164,-298.401058992279
738540.49081485392525792122,9.0195165868099,-2.87110507522813,-298.354899746696
738540.49081494437996298075,9.02874843592639,-2.95419171727653,-298.373363444929
738540.49081503471825271845,9.03798028504288,-2.92649616992706,-298.34566789758
738540.49081512517295777798,9.07490768150883,-2.84340952787866,-298.234885708182
738540.49081521562766283751,9.04721213415937,-2.83417767876217,-298.419522690512
738540.49081530608236789703,9.05644398327586,-2.81571398052919,-298.437986388745
738540.49081539642065763474,9.03798028504288,-2.83417767876217,-298.262581255531
738540.49081548687536269426,9.03798028504288,-2.84340952787866,-298.364131595813
738540.49081557733006775379,9.00105288857692,-2.85264137699515,-298.373363444929
738540.49081566766835749149,8.99182103946043,-2.84340952787866,-298.391827143162
738540.49081575812306255102,8.95489364299448,-2.86187322611164,-298.336436048463
738540.49081584857776761055,8.96412549211096,-2.87110507522813,-298.401058992279
738540.49081593891605734825,8.90873439741203,-2.8895687734611,-298.401058992279
738540.49081602937076240778,8.86257515182958,-2.91726432081057,-298.308740501114
738540.49081611982546746731,8.89027069917905,-2.90803247169408,-298.354899746696
738540.49081621028017252684,8.91796624652852,-2.90803247169408,-298.391827143162
738540.49081630061846226454,8.92719809564501,-2.89880062257759,-298.354899746696
738540.49081639107316732407,8.91796624652852,-2.90803247169408,-298.382595294046
738540.49081648152787238359,8.90873439741203,-2.89880062257759,-298.354899746696
738540.49081657186616212130,8.97335734122745,-2.8895687734611,-298.327204199347
738540.49081666232086718082,9.01028473769341,-2.84340952787866,-298.262581255531
738540.49081675277557224035,9.1856898709067,-2.67723624378185,-298.271813104648
738540.49081684323027729988,9.61035493026521,-2.51106295968505,-298.244117557298
738540.49081693356856703758,9.81345561082797,-2.41874446852016,-298.170262764367
738540.49081702402327209711,9.48110904263436,-2.68646809289834,-298.290276802881
738540.49081711447797715664,8.80718405713065,-3.04651020844142,-298.364131595813
738540.49081720481626689434,8.511764885403,-3.03727835932493,-298.354899746696
738540.49081729527097195387,8.47483748893704,-2.95419171727653,-298.336436048463
738540.49081738572567701340,8.54869228186895,-2.91726432081057,-298.34566789758
738540.49081747618038207293,8.6779381694998,-2.91726432081057,-298.336436048463
738540.49081756651867181063,8.80718405713065,-2.89880062257759,-298.31797235023
738540.49081765697337687016,8.88103885006256,-2.89880062257759,-298.327204199347
738540.49081774742808192968,8.92719809564501,-2.8895687734611,-298.34566789758
738540.49081783776637166739,8.94566179387799,-2.88033692434461,-298.290276802881
738540.49081792822107672691,8.97335734122745,-2.90803247169408,-298.34566789758
738540.49081801867578178644,9.01028473769341,-2.82494582964568,-298.336436048463
738540.49081810901407152414,8.97335734122745,-2.83417767876217,-298.327204199347
738540.49081819946877658367,8.97335734122745,-2.84340952787866,-298.327204199347
738540.49081828992348164320,8.95489364299448,-2.88033692434461,-298.34566789758
738540.49081838037818670273,8.95489364299448,-2.89880062257759,-298.31797235023
738540.49081847071647644043,9.01028473769341,-2.86187322611164,-298.234885708182
738540.49081856117118149996,9.02874843592639,-2.83417767876217,-298.216422009949
738540.49081865162588655949,8.99182103946043,-2.87110507522813,-298.142567217017
738540.49081874196417629719,9.01028473769341,-2.8895687734611,-298.253349406415
738540.49081883241888135672,9.0195165868099,-2.87110507522813,-298.290276802881
738540.49081892287358641624,9.03798028504288,-2.84340952787866,-298.281044953764
738540.49081901332829147577,9.05644398327586,-2.85264137699515,-298.262581255531
738540.49081910366658121347,9.08413953062532,-2.82494582964568,-298.299508651997
738540.49081919412128627300,9.1026032288583,-2.78801843317972,-298.34566789758
738540.49081928457599133253,9.11183507797479,-2.79725028229621,-298.336436048463
738540.49081937491428107023,9.13029877620777,-2.8064821314127,-298.336436048463
738540.49081946536898612976,9.13953062532426,-2.87110507522813,-298.354899746696
738540.49081955582369118929,9.17645802179022,-2.77878658406323,-298.382595294046
738540.49081964627839624882,9.20415356913968,-2.7233954893643,-298.308740501114
738540.49081973661668598652,9.21338541825617,-2.67723624378185,-298.364131595813
738540.49081982707139104605,9.19492172002319,-2.67723624378185,-298.34566789758
738540.49081991752609610558,9.20415356913968,-2.68646809289834,-298.373363444929
738540.49082000786438584328,9.20415356913968,-2.70493179113132,-298.354899746696
738540.49082009831909090281,9.23184911648915,-2.68646809289834,-298.364131595813
738540.49082018877379596233,9.20415356913968,-2.69569994201483,-298.34566789758
738540.49082027911208570004,9.19492172002319,-2.7233954893643,-298.308740501114
738540.49082036956679075956,9.17645802179022,-2.7233954893643,-298.336436048463
738540.49082046002149581909,9.17645802179022,-2.7233954893643,-298.327204199347
738540.49082055047620087862,9.13029877620777,-2.75109103671377,-298.327204199347
738540.49082064081449061632,9.11183507797479,-2.76955473494675,-298.327204199347
738540.49082073126919567585,9.1026032288583,-2.77878658406323,-298.34566789758
738540.49082082172390073538,9.08413953062532,-2.8064821314127,-298.336436048463
738540.49082091206219047308,9.03798028504288,-2.84340952787866,-298.308740501114
738540.49082100251689553261,9.0195165868099,-2.79725028229621,-298.336436048463
738540.49082109297160059214,8.98258919034394,-2.85264137699515,-298.364131595813
738540.49082118342630565166,9.00105288857692,-2.8064821314127,-298.31797235023
738540.49082127376459538937,8.97335734122745,-2.85264137699515,-298.354899746696
738540.49082136421930044889,8.96412549211096,-2.85264137699515,-298.244117557298
738540.49082145467400550842,8.98258919034394,-2.84340952787866,-298.31797235023
738540.49082154501229524612,8.98258919034394,-2.85264137699515,-298.281044953764
738540.49082163546700030565,8.98258919034394,-2.84340952787866,-298.308740501114
738540.49082172592170536518,8.98258919034394,-2.87110507522813,-298.327204199347
738540.49082181637641042471,9.00105288857692,-2.85264137699515,-298.299508651997
738540.49082190671470016241,8.98258919034394,-2.85264137699515,-298.299508651997
738540.49082199716940522194,8.99182103946043,-2.86187322611164,-298.299508651997
738540.49082208762411028147,9.00105288857692,-2.86187322611164,-298.133335367901
738540.49082217796240001917,9.0195165868099,-2.86187322611164,-298.244117557298
738540.49082226841710507870,9.01028473769341,-2.87110507522813,-298.299508651997
738540.49082235887181013823,9.00105288857692,-2.88033692434461,-298.31797235023
738540.49082244932651519775,8.98258919034394,-2.86187322611164,-298.31797235023
738540.49082253966480493546,9.00105288857692,-2.82494582964568,-298.31797235023
738540.49082263011950999498,8.99182103946043,-2.86187322611164,-298.336436048463
738540.49082272057421505451,8.99182103946043,-2.87110507522813,-298.336436048463
738540.49082281091250479221,9.0195165868099,-2.86187322611164,-298.31797235023
738540.49082290136720985174,8.98258919034394,-2.87110507522813,-298.336436048463
738540.49082299182191491127,8.98258919034394,-2.87110507522813,-298.373363444929
738540.49082308216020464897,8.95489364299448,-2.8895687734611,-298.401058992279
738540.49082317261490970850,8.97335734122745,-2.8895687734611,-298.382595294046
738540.49082326306961476803,8.97335734122745,-2.8895687734611,-298.336436048463
738540.49082335352431982756,8.98258919034394,-2.87110507522813,-298.373363444929
738540.49082344386260956526,8.99182103946043,-2.86187322611164,-298.401058992279
738540.49082353431731462479,9.00105288857692,-2.85264137699515,-298.34566789758
738540.49082362477201968431,8.98258919034394,-2.86187322611164,-298.382595294046
738540.49082371511030942202,8.98258919034394,-2.88033692434461,-298.391827143162
738540.49082380556501448154,9.00105288857692,-2.85264137699515,-298.354899746696
738540.49082389601971954107,8.97335734122745,-2.8895687734611,-298.373363444929
738540.49082398647442460060,8.98258919034394,-2.86187322611164,-298.410290841395
738540.49082407681271433830,8.95489364299448,-2.89880062257759,-298.410290841395
738540.49082416726741939783,8.95489364299448,-2.90803247169408,-298.401058992279
738540.49082425772212445736,8.95489364299448,-2.89880062257759,-298.308740501114
738540.49082434806041419506,8.96412549211096,-2.90803247169408,-298.364131595813
738540.49082443851511925459,8.96412549211096,-2.8895687734611,-298.382595294046
738540.49082452896982431412,8.96412549211096,-2.8895687734611,-298.364131595813
738540.49082461942452937365,8.95489364299448,-2.89880062257759,-298.34566789758
738540.49082470976281911135,8.95489364299448,-2.8895687734611,-298.391827143162
738540.49082480021752417088,8.96412549211096,-2.8895687734611,-298.410290841395
738540.49082489067222923040,8.95489364299448,-2.88033692434461,-298.382595294046
738540.49082498101051896811,8.95489364299448,-2.87110507522813,-298.354899746696
738540.49082507146522402763,8.96412549211096,-2.88033692434461,-298.391827143162
738540.49082516191992908716,8.98258919034394,-2.85264137699515,-298.391827143162
738540.49082525225821882486,8.9364299447615,-2.8895687734611,-298.382595294046
738540.49082534271292388439,8.94566179387799,-2.8895687734611,-298.419522690512
738540.49082543316762894392,8.9364299447615,-2.90803247169408,-298.364131595813
738540.49082552362233400345,8.96412549211096,-2.8895687734611,-298.354899746696
738540.49082561396062374115,8.94566179387799,-2.90803247169408,-298.197958311716
738540.49082570441532880068,8.99182103946043,-2.84340952787866,-298.234885708182
738540.49082579487003386021,8.9364299447615,-2.87110507522813,-298.299508651997
738540.49082588520832359791,8.94566179387799,-2.87110507522813,-298.308740501114
738540.49082597566302865744,8.9364299447615,-2.88033692434461,-298.290276802881
738540.49082606611773371696,8.95489364299448,-2.87110507522813,-298.308740501114
738540.49082615657243877649,8.99182103946043,-2.86187322611164,-298.31797235023
738540.49082624691072851419,9.00105288857692,-2.90803247169408,-298.308740501114
738540.49082633736543357372,9.01028473769341,-2.89880062257759,-298.308740501114
738540.49082642782013863325,9.06567583239235,-2.85264137699515,-298.299508651997
738540.49082651815842837095,9.07490768150883,-2.85264137699515,-298.31797235023
738540.49082660861313343048,9.05644398327586,-2.86187322611164,-298.31797235023
738540.49082669906783849001,9.07490768150883,-2.88033692434461,-298.31797235023
738540.49082678952254354954,9.03798028504288,-2.8895687734611,-298.336436048463
738540.49082687986083328724,9.01028473769341,-2.83417767876217,-298.336436048463
738540.49082697031553834677,8.95489364299448,-2.84340952787866,-298.271813104648
738540.49082706077024340630,8.98258919034394,-2.84340952787866,-298.262581255531
738540.49082715110853314400,8.99182103946043,-2.81571398052919,-298.244117557298
738540.49082724156323820353,8.96412549211096,-2.86187322611164,-298.299508651997
738540.49082733201794326305,8.90873439741203,-2.92649616992706,-298.271813104648
738540.49082742235623300076,8.90873439741203,-2.90803247169408,-298.244117557298
738540.49082751281093806028,8.88103885006256,-2.92649616992706,-298.308740501114
738540.49082760326564311981,8.90873439741203,-2.89880062257759,-298.364131595813
738540.49082769372034817934,8.90873439741203,-2.91726432081057,-298.354899746696
738540.49082778405863791704,8.89950254829554,-2.90803247169408,-298.373363444929
738540.49082787451334297657,8.95489364299448,-2.8895687734611,-298.382595294046
738540.49082796496804803610,9.00105288857692,-2.85264137699515,-298.401058992279
738540.49082805530633777380,9.16722617267373,-2.67723624378185,-298.31797235023
738540.49082814576104283333,9.54573198644978,-2.51106295968505,-298.271813104648
738540.49082823621574789286,9.7857600634785,-2.36335337382122,-298.253349406415
738540.49082832667045295238,9.40725424970244,-2.69569994201483,-298.336436048463
738540.49082841700874269009,8.84411145359661,-3.07420575579089,-298.391827143162
738540.49082850746344774961,8.46560563982055,-3.09266945402387,-298.419522690512
738540.49082859791815280914,8.44714194158757,-3.01881466109195,-298.428754539628
738540.49082868825644254684,8.49330118717002,-2.981887264626,-298.31797235023
738540.49082877871114760637,8.68717001861629,-2.93572801904355,-298.354899746696
738540.49082886916585266590,8.80718405713065,-2.8895687734611,-298.391827143162
738540.49082895962055772543,8.89950254829554,-2.87110507522813,-298.354899746696
738540.49082904995884746313,8.89950254829554,-2.8895687734611,-298.299508651997
738540.49082914041355252266,8.92719809564501,-2.87110507522813,-298.244117557298
738540.49082923086825758219,8.9364299447615,-2.87110507522813,-298.299508651997
738540.49082932120654731989,8.97335734122745,-2.85264137699515,-298.336436048463
738540.49082941166125237942,8.97335734122745,-2.85264137699515,-298.391827143162
738540.49082950211595743895,8.95489364299448,-2.87110507522813,-298.401058992279
738540.49082959245424717665,8.94566179387799,-2.8895687734611,-298.31797235023
738540.49082968290895223618,8.96412549211096,-2.87110507522813,-298.31797235023
738540.49082977336365729570,8.97335734122745,-2.85264137699515,-298.31797235023
738540.49082986381836235523,8.96412549211096,-2.86187322611164,-298.327204199347
738540.49082995415665209293,9.00105288857692,-2.86187322611164,-298.271813104648
738540.49083004461135715246,8.99182103946043,-2.83417767876217,-298.336436048463
738540.49083013506606221199,8.99182103946043,-2.84340952787866,-298.290276802881
738540.49083022540435194969,9.0195165868099,-2.84340952787866,-298.271813104648
738540.49083031585905700922,9.08413953062532,-2.81571398052919,-298.281044953764
738540.49083040631376206875,9.1026032288583,-2.79725028229621,-298.281044953764
738540.49083049676846712828,9.11183507797479,-2.79725028229621,-298.281044953764
738540.49083058710675686598,9.12106692709128,-2.78801843317972,-298.253349406415
738540.49083067756146192551,9.13953062532426,-2.82494582964568,-298.308740501114
738540.49083076801616698503,9.15799432355724,-2.75109103671377,-298.299508651997
738540.49083085835445672274,9.17645802179022,-2.69569994201483,-298.271813104648
738540.49083094880916178226,9.19492172002319,-2.69569994201483,-298.290276802881
738540.49083103926386684179,9.21338541825617,-2.68646809289834,-298.271813104648
738540.49083112971857190132,9.22261726737266,-2.67723624378185,-298.290276802881
738540.49083122005686163902,9.22261726737266,-2.65877254554888,-298.225653859066
738540.49083131051156669855,9.24108096560564,-2.64954069643239,-298.299508651997
738540.49083140096627175808,9.23184911648915,-2.65877254554888,-298.299508651997
738540.49083149130456149578,9.23184911648915,-2.65877254554888,-298.308740501114
738540.49083158175926655531,9.20415356913968,-2.68646809289834,-298.244117557298
738540.49083167221397161484,9.1856898709067,-2.68646809289834,-298.281044953764
738540.49083176266867667437,9.16722617267373,-2.69569994201483,-298.299508651997
738540.49083185300696641207,9.15799432355724,-2.70493179113132,-298.308740501114
738540.49083194346167147160,9.12106692709128,-2.73262733848079,-298.299508651997
738540.49083203391637653112,9.09337137974181,-2.76032288583026,-298.299508651997
738540.49083212425466626883,9.1026032288583,-2.77878658406323,-298.308740501114
738540.49083221470937132835,9.06567583239235,-2.77878658406323,-298.31797235023
738540.49083230516407638788,9.03798028504288,-2.81571398052919,-298.31797235023
738540.49083239550236612558,9.04721213415937,-2.84340952787866,-298.31797235023
738540.49083248595707118511,9.04721213415937,-2.82494582964568,-298.327204199347
738540.49083257641177624464,9.01028473769341,-2.83417767876217,-298.34566789758
738540.49083266686648130417,9.0195165868099,-2.83417767876217,-298.151799066134
738540.49083275720477104187,9.01028473769341,-2.83417767876217,-298.244117557298
738540.49083284765947610140,9.05644398327586,-2.82494582964568,-298.327204199347
738540.49083293811418116093,9.03798028504288,-2.84340952787866,-298.308740501114
738540.49083302845247089863,9.03798028504288,-2.83417767876217,-298.327204199347
738540.49083311890717595816,9.02874843592639,-2.84340952787866,-298.327204199347
738540.49083320936188101768,9.02874843592639,-2.84340952787866,-298.327204199347
738540.49083329981658607721,9.05644398327586,-2.84340952787866,-298.299508651997
738540.49083339015487581491,9.02874843592639,-2.86187322611164,-298.327204199347
738540.49083348060958087444,9.03798028504288,-2.86187322611164,-298.327204199347
738540.49083357106428593397,9.05644398327586,-2.83417767876217,-298.308740501114
738540.49083366140257567167,9.05644398327586,-2.83417767876217,-298.31797235023
738540.49083375185728073120,9.03798028504288,-2.84340952787866,-298.327204199347
738540.49083384231198579073,9.13953062532426,-2.74185918759728,-298.336436048463
738540.49083393276669085026,9.05644398327586,-2.81571398052919,-298.299508651997
738540.49083402310498058796,9.01028473769341,-2.87110507522813,-298.34566789758
738540.49083411355968564749,9.01028473769341,-2.8895687734611,-298.336436048463
738540.49083420401439070702,9.12106692709128,-2.77878658406323,-298.271813104648
738540.49083429435268044472,9.01028473769341,-2.91726432081057,-298.34566789758
738540.49083438480738550425,8.95489364299448,-2.95419171727653,-298.34566789758
738540.49083447526209056377,8.97335734122745,-2.92649616992706,-298.31797235023
738540.49083456560038030148,9.00105288857692,-2.89880062257759,-298.327204199347
738540.49083465605508536100,8.97335734122745,-2.89880062257759,-298.290276802881
738540.49083474650979042053,9.02874843592639,-2.82494582964568,-298.262581255531
738540.49083483696449548006,9.01028473769341,-2.85264137699515,-298.290276802881
738540.49083492730278521776,9.03798028504288,-2.82494582964568,-298.299508651997
738540.49083501775749027729,9.00105288857692,-2.86187322611164,-298.271813104648
738540.49083510821219533682,8.98258919034394,-2.8895687734611,-298.290276802881
738540.49083519855048507452,9.0195165868099,-2.85264137699515,-298.308740501114
738540.49083528900519013405,9.01028473769341,-2.86187322611164,-298.281044953764
738540.49083537945989519358,9.0195165868099,-2.84340952787866,-298.308740501114
738540.49083546991460025311,8.99182103946043,-2.86187322611164,-298.290276802881
738540.49083556025288999081,8.99182103946043,-2.8895687734611,-298.290276802881
738540.49083565070759505033,8.97335734122745,-2.89880062257759,-298.299508651997
738540.49083574116230010986,9.0195165868099,-2.88033692434461,-298.262581255531
738540.49083583150058984756,9.0195165868099,-2.86187322611164,-298.253349406415
738540.49083592195529490709,8.9364299447615,-2.95419171727653,-298.253349406415
738540.49083601240999996662,8.95489364299448,-2.91726432081057,-298.262581255531
738540.49083610286470502615,8.98258919034394,-2.90803247169408,-298.262581255531
738540.49083619320299476385,8.97335734122745,-2.90803247169408,-298.1887264626
738540.49083628365769982338,9.0195165868099,-2.87110507522813,-298.244117557298
738540.49083637411240488291,9.00105288857692,-2.8895687734611,-298.262581255531
738540.49083646445069462061,9.01028473769341,-2.87110507522813,-298.34566789758
738540.49083655490539968014,9.00105288857692,-2.87110507522813,-298.354899746696
738540.49083664536010473967,9.00105288857692,-2.87110507522813,-298.373363444929
738540.49083673569839447737,9.01028473769341,-2.87110507522813,-298.364131595813
738540.49083682615309953690,9.0195165868099,-2.87110507522813,-298.391827143162
738540.49083691660780459642,9.01028473769341,-2.86187322611164,-298.373363444929
738540.49083700706250965595,9.00105288857692,-2.87110507522813,-298.308740501114
738540.49083709740079939365,9.01028473769341,-2.90803247169408,-298.354899746696
738540.49083718785550445318,8.98258919034394,-2.95419171727653,-298.354899746696
738540.49083727831020951271,9.0195165868099,-2.92649616992706,-298.34566789758
738540.49083736864849925041,9.02874843592639,-2.93572801904355,-298.327204199347
738540.49083745910320430994,9.0195165868099,-2.86187322611164,-298.34566789758
738540.49083754955790936947,9.07490768150883,-2.81571398052919,-298.336436048463
738540.49083764001261442900,9.03798028504288,-2.85264137699515,-298.327204199347
738540.49083773035090416670,9.0195165868099,-2.85264137699515,-298.336436048463
738540.49083782080560922623,9.05644398327586,-2.83417767876217,-298.34566789758
738540.49083791126031428576,9.05644398327586,-2.81571398052919,-298.34566789758
738540.49083800159860402346,9.09337137974181,-2.8064821314127,-298.253349406415
738540.49083809205330908298,9.15799432355724,-2.76032288583026,-298.336436048463
738540.49083818250801414251,9.11183507797479,-2.79725028229621,-298.290276802881
738540.49083827296271920204,9.05644398327586,-2.85264137699515,-298.271813104648
738540.49083836330100893974,9.02874843592639,-2.84340952787866,-298.308740501114
738540.49083845375571399927,9.05644398327586,-2.83417767876217,-298.31797235023
738540.49083854421041905880,9.03798028504288,-2.84340952787866,-298.290276802881
738540.49083863454870879650,9.01028473769341,-2.86187322611164,-298.262581255531
738540.49083872500341385603,8.97335734122745,-2.89880062257759,-298.271813104648
738540.49083881545811891556,8.98258919034394,-2.8895687734611,-298.281044953764
738540.49083890579640865326,8.95489364299448,-2.87110507522813,-298.308740501114
738540.49083899625111371279,8.98258919034394,-2.87110507522813,-298.290276802881
738540.49083908670581877232,8.94566179387799,-2.88033692434461,-298.234885708182
738540.49083917716052383184,8.96412549211096,-2.86187322611164,-298.234885708182
738540.49083926749881356955,8.94566179387799,-2.88033692434461,-298.281044953764
738540.49083935795351862907,8.99182103946043,-2.87110507522813,-298.281044953764
738540.49083944840822368860,9.04721213415937,-2.73262733848079,-298.253349406415
738540.49083953874651342630,9.39802240058595,-2.55722220526749,-298.281044953764
738540.49083962920121848583,9.72113711966307,-2.40028077028718,-298.290276802881
738540.49083971965592354536,9.63805047761467,-2.41874446852016,-298.16103091525
738540.49083981011062860489,9.19492172002319,-2.99111911374248,-298.244117557298
738540.49083990044891834259,8.77948850978118,-3.19421979430525,-298.327204199347
738540.49083999090362340212,8.61331522568438,-3.0649739066744,-298.290276802881
738540.49084008135832846165,8.56715598010193,-2.981887264626,-298.34566789758
738540.49084017169661819935,8.71486556596576,-2.8895687734611,-298.354899746696
738540.49084026215132325888,8.81641590624714,-2.8895687734611,-298.382595294046
738540.49084035260602831841,8.88103885006256,-2.87110507522813,-298.281044953764
738540.49084044306073337793,8.9364299447615,-2.87110507522813,-298.34566789758
738540.49084053339902311563,8.95489364299448,-2.85264137699515,-298.364131595813
738540.49084062385372817516,8.98258919034394,-2.84340952787866,-298.271813104648
738540.49084071430843323469,9.01028473769341,-2.82494582964568,-298.34566789758
738540.49084080464672297239,8.9364299447615,-2.87110507522813,-298.364131595813
738540.49084089510142803192,8.98258919034394,-2.85264137699515,-298.336436048463
738540.49084098555613309145,9.02874843592639,-2.82494582964568,-298.31797235023
738540.49084107601083815098,9.00105288857692,-2.83417767876217,-298.336436048463
738540.49084116634912788868,9.02874843592639,-2.82494582964568,-298.336436048463
738540.49084125680383294821,9.06567583239235,-2.79725028229621,-298.31797235023
738540.49084134725853800774,9.02874843592639,-2.84340952787866,-298.373363444929
738540.49084143759682774544,9.01028473769341,-2.84340952787866,-298.354899746696
738540.49084152805153280497,9.08413953062532,-2.77878658406323,-298.327204199347
738540.49084161850623786449,9.07490768150883,-2.77878658406323,-298.308740501114
738540.49084170884452760220,9.06567583239235,-2.79725028229621,-298.327204199347
738540.49084179929923266172,9.07490768150883,-2.8064821314127,-298.31797235023
738540.49084188975393772125,9.05644398327586,-2.82494582964568,-298.207190160833
738540.49084198020864278078,9.1026032288583,-2.77878658406323,-298.262581255531
738540.49084207054693251848,9.1856898709067,-2.68646809289834,-298.262581255531
738540.49084216100163757801,9.14876247444075,-2.75109103671377,-298.262581255531
738540.49084225145634263754,9.15799432355724,-2.76955473494675,-298.207190160833
738540.49084234179463237524,9.21338541825617,-2.70493179113132,-298.225653859066
738540.49084243224933743477,9.20415356913968,-2.66800439466536,-298.253349406415
738540.49084252270404249430,9.19492172002319,-2.67723624378185,-298.281044953764
738540.49084261315874755383,9.2780083620716,-2.63107699819941,-298.216422009949
738540.49084270349703729153,9.25954466383862,-2.6403088473159,-298.281044953764
738540.49084279395174235106,9.25954466383862,-2.64954069643239,-298.290276802881
738540.49084288440644741058,9.26877651295511,-2.62184514908292,-298.281044953764
738540.49084297474473714828,9.25031281472213,-2.62184514908292,-298.271813104648
738540.49084306519944220781,9.25031281472213,-2.61261329996643,-298.290276802881
738540.49084315565414726734,9.19492172002319,-2.68646809289834,-298.299508651997
738540.49084324610885232687,9.1856898709067,-2.67723624378185,-298.253349406415
738540.49084333644714206457,9.1026032288583,-2.74185918759728,-298.16103091525
738540.49084342690184712410,9.08413953062532,-2.77878658406323,-298.308740501114
738540.49084351735655218363,9.08413953062532,-2.76032288583026,-298.308740501114
738540.49084360769484192133,9.11183507797479,-2.75109103671377,-298.271813104648
738540.49084369814954698086,9.04721213415937,-2.82494582964568,-298.336436048463
738540.49084378860425204039,9.02874843592639,-2.84340952787866,-298.31797235023
738540.49084387894254177809,9.0195165868099,-2.85264137699515,-298.271813104648
738540.49084396939724683762,9.01028473769341,-2.84340952787866,-298.253349406415
738540.49084405985195189714,9.01028473769341,-2.83417767876217,-298.31797235023
738540.49084415030665695667,9.04721213415937,-2.8064821314127,-298.308740501114
738540.49084424064494669437,9.08413953062532,-2.77878658406323,-298.290276802881
738540.49084433109965175390,9.0195165868099,-2.86187322611164,-298.234885708182
738540.49084442155435681343,9.0195165868099,-2.86187322611164,-298.31797235023
738540.49084451189264655113,9.01028473769341,-2.84340952787866,-298.308740501114
738540.49084460234735161066,9.02874843592639,-2.84340952787866,-298.327204199347
738540.49084469280205667019,9.03798028504288,-2.83417767876217,-298.290276802881
738540.49084478325676172972,9.03798028504288,-2.84340952787866,-298.327204199347
738540.49084487359505146742,9.02874843592639,-2.84340952787866,-298.327204199347
738540.49084496404975652695,9.01028473769341,-2.86187322611164,-298.31797235023
738540.49084505450446158648,9.05644398327586,-2.8064821314127,-298.327204199347
738540.49084514484275132418,9.0195165868099,-2.82494582964568,-298.31797235023
738540.49084523529745638371,9.04721213415937,-2.8064821314127,-298.31797235023
738540.49084532575216144323,9.05644398327586,-2.81571398052919,-298.207190160833
738540.49084541620686650276,9.03798028504288,-2.81571398052919,-298.308740501114
738540.49084550654515624046,8.97335734122745,-2.88033692434461,-298.271813104648
738540.49084559699986129999,9.01028473769341,-2.87110507522813,-298.253349406415
738540.49084568745456635952,8.9364299447615,-2.90803247169408,-298.262581255531
738540.49084577779285609722,9.01028473769341,-2.86187322611164,-298.271813104648
738540.49084586824756115675,9.02874843592639,-2.83417767876217,-298.271813104648
738540.49084595870226621628,8.99182103946043,-2.85264137699515,-298.290276802881
738540.49084604904055595398,9.00105288857692,-2.84340952787866,-298.31797235023
738540.49084613949526101351,9.00105288857692,-2.86187322611164,-298.327204199347
738540.49084622994996607304,9.01028473769341,-2.84340952787866,-298.262581255531
738540.49084632040467113256,9.01028473769341,-2.86187322611164,-298.31797235023
738540.49084641074296087027,9.02874843592639,-2.84340952787866,-298.299508651997
738540.49084650119766592979,9.01028473769341,-2.84340952787866,-298.262581255531
738540.49084659165237098932,8.92719809564501,-2.90803247169408,-298.327204199347
738540.49084668199066072702,9.0195165868099,-2.86187322611164,-298.31797235023
738540.49084677244536578655,9.04721213415937,-2.84340952787866,-298.290276802881
738540.49084686290007084608,8.96412549211096,-2.88033692434461,-298.151799066134
738540.49084695335477590561,9.00105288857692,-2.86187322611164,-298.327204199347
738540.49084704369306564331,9.02874843592639,-2.83417767876217,-298.31797235023
738540.49084713414777070284,9.0195165868099,-2.84340952787866,-298.308740501114
738540.49084722460247576237,8.98258919034394,-2.87110507522813,-298.290276802881
738540.49084731494076550007,9.04721213415937,-2.83417767876217,-298.31797235023
738540.49084740539547055960,8.97335734122745,-2.8895687734611,-298.327204199347
738540.49084749585017561913,8.97335734122745,-2.86187322611164,-298.253349406415
738540.49084758630488067865,9.01028473769341,-2.86187322611164,-298.308740501114
738540.49084767664317041636,9.00105288857692,-2.85264137699515,-298.308740501114
738540.49084776709787547588,9.01028473769341,-2.85264137699515,-298.262581255531
738540.49084785755258053541,9.01028473769341,-2.84340952787866,-298.308740501114
738540.49084794789087027311,8.96412549211096,-2.86187322611164,-298.299508651997
738540.49084803834557533264,8.98258919034394,-2.86187322611164,-298.281044953764
738540.49084812880028039217,9.06567583239235,-2.8064821314127,-298.308740501114
738540.49084821913857012987,9.02874843592639,-2.84340952787866,-298.308740501114
738540.49084830959327518940,9.02874843592639,-2.85264137699515,-298.299508651997
738540.49084840004798024893,9.04721213415937,-2.83417767876217,-298.271813104648
738540.49084849050268530846,9.02874843592639,-2.86187322611164,-298.31797235023
738540.49084858084097504616,9.0195165868099,-2.87110507522813,-298.31797235023
738540.49084867129568010569,9.01028473769341,-2.87110507522813,-298.290276802881
738540.49084876175038516521,9.00105288857692,-2.85264137699515,-298.207190160833
738540.49084885208867490292,9.0195165868099,-2.84340952787866,-298.308740501114
738540.49084894254337996244,9.02874843592639,-2.85264137699515,-298.308740501114
738540.49084903299808502197,9.04721213415937,-2.86187322611164,-298.290276802881
738540.49084912345279008150,8.99182103946043,-2.86187322611164,-298.216422009949
738540.49084921379107981920,9.09337137974181,-2.79725028229621,-298.308740501114
738540.49084930424578487873,9.13953062532426,-2.76032288583026,-298.308740501114
738540.49084939470048993826,9.08413953062532,-2.81571398052919,-298.271813104648
738540.49084948503877967596,9.1026032288583,-2.8064821314127,-298.299508651997
738540.49084957549348473549,9.13029877620777,-2.76955473494675,-298.308740501114
738540.49084966594818979502,9.07490768150883,-2.8064821314127,-298.281044953764
738540.49084975640289485455,9.05644398327586,-2.8064821314127,-298.299508651997
738540.49084984674118459225,9.07490768150883,-2.78801843317972,-298.290276802881
738540.49084993719588965178,9.03798028504288,-2.79725028229621,-298.281044953764
738540.49085002765059471130,9.01028473769341,-2.85264137699515,-298.299508651997
738540.49085011798888444901,8.99182103946043,-2.85264137699515,-298.299508651997
738540.49085020844358950853,8.98258919034394,-2.87110507522813,-298.308740501114
738540.49085029889829456806,8.95489364299448,-2.90803247169408,-298.114871669668
738540.49085038935299962759,9.0195165868099,-2.82494582964568,-298.234885708182
738540.49085047969128936529,8.96412549211096,-2.8895687734611,-298.299508651997
738540.49085057014599442482,8.89950254829554,-2.92649616992706,-298.308740501114
738540.49085066060069948435,8.94566179387799,-2.89880062257759,-298.308740501114
738540.49085075093898922205,9.11183507797479,-2.73262733848079,-298.281044953764
738540.49085084139369428158,9.32416760765404,-2.52952665791803,-298.234885708182
738540.49085093184839934111,9.6195867793817,-2.39104892117069,-298.170262764367
738540.49085102218668907881,9.7026734214301,-2.32642597735527,-298.1887264626
738540.49085111264139413834,9.28724021118808,-2.95419171727653,-298.31797235023
738540.49085120309609919786,8.85334330271309,-3.25884273812067,-298.327204199347
738540.49085129355080425739,8.60408337656789,-3.11113315225684,-298.34566789758
738540.49085138388909399509,8.5948515274514,-3.00958281197546,-298.308740501114
738540.49085147434379905462,8.5948515274514,-3.00035096285897,-298.290276802881
738540.49085156479850411415,8.79795220801416,-2.92649616992706,-298.281044953764
738540.49085165513679385185,8.91796624652852,-2.83417767876217,-298.299508651997
738540.49085174559149891138,8.96412549211096,-2.84340952787866,-298.290276802881
738540.49085183604620397091,8.98258919034394,-2.83417767876217,-298.244117557298
738540.49085192650090903044,8.97335734122745,-2.85264137699515,-298.308740501114
738540.49085201683919876814,8.98258919034394,-2.86187322611164,-298.299508651997
738540.49085210729390382767,8.99182103946043,-2.85264137699515,-298.244117557298
738540.49085219774860888720,9.00105288857692,-2.83417767876217,-298.299508651997
738540.49085228808689862490,9.04721213415937,-2.8064821314127,-298.290276802881
738540.49085237854160368443,9.03798028504288,-2.82494582964568,-298.281044953764
738540.49085246899630874395,8.99182103946043,-2.85264137699515,-298.225653859066
738540.49085255945101380348,9.02874843592639,-2.81571398052919,-298.299508651997
738540.49085264978930354118,9.01028473769341,-2.84340952787866,-298.253349406415
738540.49085274024400860071,9.03798028504288,-2.83417767876217,-298.262581255531
738540.49085283069871366024,9.04721213415937,-2.82494582964568,-298.281044953764
738540.49085292103700339794,9.05644398327586,-2.8064821314127,-298.253349406415
738540.49085301149170845747,9.03798028504288,-2.79725028229621,-298.308740501114
738540.49085310194641351700,9.07490768150883,-2.77878658406323,-298.299508651997
738540.49085319228470325470,9.07490768150883,-2.75109103671377,-298.336436048463
738540.49085328273940831423,9.11183507797479,-2.73262733848079,-298.327204199347
738540.49085337319411337376,9.16722617267373,-2.68646809289834,-298.262581255531
738540.49085346364881843328,9.19492172002319,-2.65877254554888,-298.281044953764
738540.49085355398710817099,9.13953062532426,-2.73262733848079,-298.271813104648
738540.49085364444181323051,9.17645802179022,-2.70493179113132,-298.262581255531
738540.49085373489651829004,9.17645802179022,-2.66800439466536,-298.271813104648
738540.49085382523480802774,9.17645802179022,-2.67723624378185,-298.124103518784
738540.49085391568951308727,9.23184911648915,-2.6403088473159,-298.197958311716
738540.49085400614421814680,9.24108096560564,-2.6403088473159,-298.262581255531
738540.49085409659892320633,9.20415356913968,-2.6403088473159,-298.290276802881
738540.49085418693721294403,9.23184911648915,-2.6403088473159,-298.281044953764
738540.49085427739191800356,9.22261726737266,-2.64954069643239,-298.225653859066
738540.49085436784662306309,9.1856898709067,-2.65877254554888,-298.281044953764
738540.49085445818491280079,9.21338541825617,-2.64954069643239,-298.281044953764
738540.49085454863961786032,9.19492172002319,-2.69569994201483,-298.299508651997
738540.49085463909432291985,9.19492172002319,-2.66800439466536,-298.1887264626
738540.49085472954902797937,9.21338541825617,-2.64954069643239,-298.281044953764
738540.49085481988731771708,9.08413953062532,-2.74185918759728,-298.299508651997
738540.49085491034202277660,9.06567583239235,-2.75109103671377,-298.262581255531
738540.49085500079672783613,9.08413953062532,-2.73262733848079,-298.244117557298
738540.49085509113501757383,9.01028473769341,-2.8064821314127,-298.253349406415
738540.49085518158972263336,9.01028473769341,-2.81571398052919,-298.244117557298
738540.49085527204442769289,8.97335734122745,-2.87110507522813,-298.253349406415
738540.49085536238271743059,8.97335734122745,-2.88033692434461,-298.290276802881
738540.49085545283742249012,8.98258919034394,-2.86187322611164,-298.290276802881
738540.49085554329212754965,8.98258919034394,-2.86187322611164,-298.290276802881
738540.49085563374683260918,8.96412549211096,-2.87110507522813,-298.281044953764
738540.49085572408512234688,8.98258919034394,-2.86187322611164,-298.290276802881
738540.49085581453982740641,9.01028473769341,-2.83417767876217,-298.271813104648
738540.49085590499453246593,8.9364299447615,-2.8895687734611,-298.262581255531
738540.49085599533282220364,9.01028473769341,-2.83417767876217,-298.34566789758
738540.49085608578752726316,9.07490768150883,-2.79725028229621,-298.364131595813
738540.49085617624223232269,9.06567583239235,-2.8064821314127,-298.336436048463
738540.49085626669693738222,9.05644398327586,-2.8064821314127,-298.290276802881
738540.49085635703522711992,9.05644398327586,-2.79725028229621,-298.327204199347
738540.49085644748993217945,8.98258919034394,-2.86187322611164,-298.336436048463
738540.49085653794463723898,8.99182103946043,-2.82494582964568,-298.271813104648
738540.49085662828292697668,9.01028473769341,-2.81571398052919,-298.31797235023
738540.49085671873763203621,8.98258919034394,-2.83417767876217,-298.308740501114
738540.49085680919233709574,8.99182103946043,-2.84340952787866,-298.290276802881
738540.49085689964704215527,9.00105288857692,-2.84340952787866,-298.31797235023
738540.49085698998533189297,9.00105288857692,-2.84340952787866,-298.308740501114
738540.49085708044003695250,8.97335734122745,-2.87110507522813,-298.281044953764
738540.49085717089474201202,9.0195165868099,-2.85264137699515,-298.308740501114
738540.49085726123303174973,8.94566179387799,-2.91726432081057,-298.31797235023
738540.49085735168773680925,9.00105288857692,-2.84340952787866,-298.179494613483
738540.49085744214244186878,9.00105288857692,-2.81571398052919,-298.151799066134
738540.49085753259714692831,8.97335734122745,-2.81571398052919,-298.31797235023
738540.49085762293543666601,8.97335734122745,-2.82494582964568,-298.31797235023
738540.49085771339014172554,8.98258919034394,-2.83417767876217,-298.299508651997
738540.49085780384484678507,8.91796624652852,-2.87110507522813,-298.327204199347
738540.49085789418313652277,9.03798028504288,-2.79725028229621,-298.34566789758
738540.49085798463784158230,8.95489364299448,-2.88033692434461,-298.336436048463
738540.49085807509254664183,8.9364299447615,-2.88033692434461,-298.308740501114
738540.49085816543083637953,9.00105288857692,-2.81571398052919,-298.271813104648
738540.49085825588554143906,8.97335734122745,-2.85264137699515,-298.281044953764
738540.49085834634024649858,8.96412549211096,-2.86187322611164,-298.271813104648
738540.49085843679495155811,8.99182103946043,-2.82494582964568,-298.253349406415
738540.49085852713324129581,9.00105288857692,-2.82494582964568,-298.290276802881
738540.49085861758794635534,8.97335734122745,-2.83417767876217,-298.327204199347
738540.49085870804265141487,8.95489364299448,-2.85264137699515,-298.262581255531
738540.49085879838094115257,8.89027069917905,-2.89880062257759,-298.308740501114
738540.49085888883564621210,8.89950254829554,-2.8895687734611,-298.308740501114
738540.49085897929035127163,9.00105288857692,-2.83417767876217,-298.253349406415
738540.49085906974505633116,8.98258919034394,-2.84340952787866,-298.327204199347
738540.49085916008334606886,8.9364299447615,-2.87110507522813,-298.31797235023
738540.49085925053805112839,9.02874843592639,-2.81571398052919,-298.290276802881
738540.49085934099275618792,9.01028473769341,-2.82494582964568,-298.308740501114
738540.49085943133104592562,8.98258919034394,-2.83417767876217,-298.31797235023
738540.49085952178575098515,8.96412549211096,-2.86187322611164,-298.31797235023
738540.49085961224045604467,9.00105288857692,-2.82494582964568,-298.281044953764
738540.49085970269516110420,8.98258919034394,-2.82494582964568,-298.308740501114
738540.49085979303345084190,8.97335734122745,-2.84340952787866,-298.327204199347
738540.49085988348815590143,9.00105288857692,-2.82494582964568,-298.31797235023
738540.49085997394286096096,9.03798028504288,-2.79725028229621,-298.281044953764
738540.49086006428115069866,9.04721213415937,-2.8064821314127,-298.31797235023
738540.49086015473585575819,8.96412549211096,-2.87110507522813,-298.299508651997
738540.49086024519056081772,9.03798028504288,-2.8064821314127,-298.234885708182
738540.49086033552885055542,9.04721213415937,-2.77878658406323,-298.271813104648
738540.49086042598355561495,9.08413953062532,-2.76032288583026,-298.290276802881
738540.49086051643826067448,9.02874843592639,-2.8064821314127,-298.327204199347
738540.49086060689296573400,9.06567583239235,-2.77878658406323,-298.327204199347
738540.49086069723125547171,9.03798028504288,-2.76032288583026,-298.299508651997
738540.49086078768596053123,9.02874843592639,-2.76955473494675,-298.336436048463
738540.49086087814066559076,8.99182103946043,-2.77878658406323,-298.234885708182
738540.49086096847895532846,9.03798028504288,-2.76032288583026,-298.1887264626
738540.49086105893366038799,8.97335734122745,-2.81571398052919,-298.31797235023
738540.49086114938836544752,8.90873439741203,-2.89880062257759,-298.336436048463
738540.49086123984307050705,8.90873439741203,-2.87110507522813,-298.373363444929
738540.49086133018136024475,8.91796624652852,-2.88033692434461,-298.290276802881
738540.49086142063606530428,8.96412549211096,-2.84340952787866,-298.364131595813
738540.49086151109077036381,8.98258919034394,-2.8064821314127,-298.354899746696
738540.49086160142906010151,8.91796624652852,-2.82494582964568,-298.391827143162
738540.49086169188376516104,8.91796624652852,-2.83417767876217,-298.31797235023
738540.49086178233847022057,8.99182103946043,-2.75109103671377,-298.31797235023
738540.49086187279317528009,9.1026032288583,-2.63107699819941,-298.327204199347
738540.49086196313146501780,9.36109500412,-2.55722220526749,-298.299508651997
738540.49086205358617007732,9.60112308114872,-2.40028077028718,-298.207190160833
738540.49086214404087513685,9.42571794793542,-2.67723624378185,-298.281044953764
738540.49086223437916487455,9.07490768150883,-3.18498794518876,-298.391827143162
738540.49086232483386993408,8.72409741508225,-3.17575609607227,-298.391827143162
738540.49086241528857499361,8.57638782921842,-3.03727835932493,-298.336436048463
738540.49086250562686473131,8.57638782921842,-2.96342356639302,-298.290276802881
738540.49086259608156979084,8.62254707480087,-2.91726432081057,-298.281044953764
738540.49086268653627485037,8.69640186773278,-2.91726432081057,-298.244117557298
738540.49086277699097990990,8.75179296243171,-2.8895687734611,-298.271813104648
738540.49086286732926964760,8.81641590624714,-2.87110507522813,-298.299508651997
738540.49086295778397470713,8.87180700094607,-2.87110507522813,-298.262581255531
738540.49086304823867976665,8.91796624652852,-2.85264137699515,-298.336436048463
738540.49086313857696950436,8.96412549211096,-2.82494582964568,-298.327204199347
738540.49086322903167456388,8.94566179387799,-2.83417767876217,-298.327204199347
738540.49086331948637962341,8.98258919034394,-2.81571398052919,-298.327204199347
738540.49086340994108468294,8.94566179387799,-2.83417767876217,-298.327204199347
738540.49086350027937442064,8.95489364299448,-2.82494582964568,-298.31797235023
738540.49086359073407948017,8.96412549211096,-2.79725028229621,-298.31797235023
738540.49086368118878453970,8.96412549211096,-2.8064821314127,-298.336436048463
738540.49086377152707427740,8.96412549211096,-2.82494582964568,-298.327204199347
738540.49086386198177933693,8.9364299447615,-2.84340952787866,-298.336436048463
738540.49086395243648439646,8.9364299447615,-2.83417767876217,-298.308740501114
738540.49086404289118945599,9.0195165868099,-2.76955473494675,-298.327204199347
738540.49086413322947919369,9.00105288857692,-2.76955473494675,-298.31797235023
738540.49086422368418425322,9.00105288857692,-2.77878658406323,-298.281044953764
738540.49086431413888931274,9.06567583239235,-2.7233954893643,-298.308740501114
738540.49086440447717905045,9.03798028504288,-2.76032288583026,-298.216422009949
738540.49086449493188410997,9.07490768150883,-2.7233954893643,-298.16103091525
738540.49086458538658916950,9.1026032288583,-2.70493179113132,-298.299508651997
738540.49086467572487890720,9.06567583239235,-2.7233954893643,-298.290276802881
738540.49086476617958396673,9.07490768150883,-2.70493179113132,-298.253349406415
738540.49086485663428902626,9.13029877620777,-2.69569994201483,-298.262581255531
738540.49086494708899408579,9.11183507797479,-2.69569994201483,-298.281044953764
738540.49086503742728382349,9.15799432355724,-2.62184514908292,-298.271813104648
738540.49086512788198888302,9.14876247444075,-2.64954069643239,-298.299508651997
738540.49086521833669394255,9.15799432355724,-2.6403088473159,-298.262581255531
738540.49086530867498368025,9.14876247444075,-2.64954069643239,-298.281044953764
738540.49086539912968873978,9.1856898709067,-2.62184514908292,-298.308740501114
738540.49086548958439379930,9.13029877620777,-2.64954069643239,-298.299508651997
738540.49086558003909885883,9.12106692709128,-2.67723624378185,-298.290276802881
738540.49086567037738859653,9.16722617267373,-2.63107699819941,-298.34566789758
738540.49086576083209365606,9.09337137974181,-2.70493179113132,-298.354899746696
738540.49086585128679871559,9.07490768150883,-2.74185918759728,-298.299508651997
738540.49086594162508845329,9.07490768150883,-2.7233954893643,-298.354899746696
738540.49086603207979351282,9.00105288857692,-2.77878658406323,-298.391827143162
738540.49086612253449857235,8.90873439741203,-2.89880062257759,-298.299508651997
738540.49086621298920363188,8.94566179387799,-2.86187322611164,-298.327204199347
738540.49086630332749336958,8.94566179387799,-2.85264137699515,-298.327204199347
738540.49086639378219842911,8.98258919034394,-2.81571398052919,-298.262581255531
738540.49086648423690348864,9.08413953062532,-2.73262733848079,-298.336436048463
738540.49086657457519322634,8.98258919034394,-2.84340952787866,-298.327204199347
738540.49086666502989828587,9.00105288857692,-2.79725028229621,-298.308740501114
738540.49086675548460334539,9.04721213415937,-2.76032288583026,-298.327204199347
738540.49086684593930840492,8.94566179387799,-2.82494582964568,-298.34566789758
738540.49086693627759814262,8.90873439741203,-2.89880062257759,-298.34566789758
