time_dn,ecg_projection_ll_ra_mV,ecg_projection_la_ra_mV,ecg_projection_vx_rl_mV
738540.46222112223040312529,10.4319895016327,-2.65877254554888,-298.641087069308
738540.46222121268510818481,10.4319895016327,-2.66800439466536,-298.650318918424
738540.46222130313981324434,10.5058442945647,-2.60338145084994,-298.428754539628
738540.46222139359451830387,10.6904812768944,-2.47413556321909,-298.521073030793
738540.46222148404922336340,11.0505233924375,-2.35412152470473,-298.585695974609
738540.46222157450392842293,11.2536240730003,-2.22487563707389,-298.437986388745
738540.46222166484221816063,10.9028138065737,-2.49259926145207,-298.567232276376
738540.46222175529692322016,10.3765984069338,-2.88033692434461,-298.613391521958
738540.46222184575162827969,10.191961424604,-2.87110507522813,-298.678014465773
738540.46222193620633333921,10.0350199896237,-2.75109103671377,-298.558000427259
738540.46222202666103839874,10.0350199896237,-2.73262733848079,-298.613391521958
738540.46222211711574345827,10.0627155369732,-2.68646809289834,-298.631855220191
738540.46222220745403319597,10.2381206701865,-2.66800439466536,-298.631855220191
738540.46222229790873825550,10.3212073122349,-2.66800439466536,-298.594927823725
738540.46222238836344331503,10.3858302560503,-2.67723624378185,-298.585695974609
738540.46222247881814837456,10.4227576525162,-2.65877254554888,-298.558000427259
738540.46222256927285343409,10.4504531998657,-2.68646809289834,-298.539536729026
738540.46222265972755849361,10.4596850489822,-2.6403088473159,-298.576464125492
738540.46222275018226355314,10.4689168980987,-2.6403088473159,-298.567232276376
738540.46222284052055329084,10.4596850489822,-2.64954069643239,-298.521073030793
738540.46222293097525835037,10.4781487472152,-2.64954069643239,-298.567232276376
738540.46222302142996340990,10.4873805963317,-2.63107699819941,-298.604159672842
738540.46222311188466846943,10.4873805963317,-2.64954069643239,-298.539536729026
738540.46222320233937352896,10.4966124454482,-2.63107699819941,-298.622623371075
738540.46222329279407858849,10.4966124454482,-2.64954069643239,-298.622623371075
738540.46222338313236832619,10.5150761436811,-2.63107699819941,-298.604159672842
738540.46222347358707338572,10.5427716910306,-2.62184514908292,-298.604159672842
738540.46222356404177844524,10.5427716910306,-2.6403088473159,-298.622623371075
738540.46222365449648350477,10.5427716910306,-2.61261329996643,-298.613391521958
738540.46222374495118856430,10.5520035401471,-2.60338145084994,-298.585695974609
738540.46222383540589362383,10.5612353892636,-2.56645405438398,-298.613391521958
738540.46222392574418336153,10.5889309366131,-2.57568590350047,-298.622623371075
738540.46222401619888842106,10.5981627857295,-2.55722220526749,-298.594927823725
738540.46222410665359348059,10.6350901821955,-2.55722220526749,-298.613391521958
738540.46222419710829854012,10.6812494277779,-2.51106295968505,-298.604159672842
738540.46222428756300359964,10.6997131260109,-2.52952665791803,-298.604159672842
738540.46222437801770865917,10.7181768242439,-2.49259926145207,-298.521073030793
738540.46222446835599839687,10.7181768242439,-2.48336741233558,-298.604159672842
738540.46222455881070345640,10.7551042207099,-2.47413556321909,-298.594927823725
738540.46222464926540851593,10.7458723715934,-2.4649037141026,-298.567232276376
738540.46222473972011357546,10.7551042207099,-2.47413556321909,-298.53030487991
738540.46222483017481863499,10.7274086733604,-2.4649037141026,-298.465681936094
738540.46222492062952369452,10.7181768242439,-2.50183111056856,-298.511841181677
738540.46222501096781343222,10.6904812768944,-2.51106295968505,-298.558000427259
738540.46222510142251849174,10.6812494277779,-2.50183111056856,-298.604159672842
738540.46222519187722355127,10.625858333079,-2.52029480880154,-298.613391521958
738540.46222528233192861080,10.6166264839625,-2.56645405438398,-298.576464125492
738540.46222537278663367033,10.5612353892636,-2.56645405438398,-298.613391521958
738540.46222546324133872986,10.5520035401471,-2.58491775261696,-298.567232276376
738540.46222555357962846756,10.5150761436811,-2.60338145084994,-298.567232276376
738540.46222564403433352709,10.4966124454482,-2.62184514908292,-298.594927823725
738540.46222573448903858662,10.4873805963317,-2.61261329996643,-298.585695974609
738540.46222582494374364614,10.4873805963317,-2.63107699819941,-298.604159672842
738540.46222591539844870567,10.4966124454482,-2.6403088473159,-298.594927823725
738540.46222600585315376520,10.4689168980987,-2.62184514908292,-298.576464125492
738540.46222609630785882473,10.4966124454482,-2.6403088473159,-298.585695974609
738540.46222618664614856243,10.4781487472152,-2.63107699819941,-298.613391521958
738540.46222627710085362196,10.4966124454482,-2.64954069643239,-298.604159672842
738540.46222636755555868149,10.4873805963317,-2.6403088473159,-298.613391521958
738540.46222645801026374102,10.5058442945647,-2.65877254554888,-298.567232276376
738540.46222654846496880054,10.4873805963317,-2.65877254554888,-298.576464125492
738540.46222663891967386007,10.5058442945647,-2.66800439466536,-298.511841181677
738540.46222672925796359777,10.4966124454482,-2.6403088473159,-298.53030487991
738540.46222681971266865730,10.5058442945647,-2.64954069643239,-298.576464125492
738540.46222691016737371683,10.4504531998657,-2.64954069643239,-298.548768578143
738540.46222700062207877636,10.4781487472152,-2.65877254554888,-298.604159672842
738540.46222709107678383589,10.4873805963317,-2.63107699819941,-298.548768578143
738540.46222718153148889542,10.4873805963317,-2.65877254554888,-298.576464125492
738540.46222727186977863312,10.4966124454482,-2.6403088473159,-298.594927823725
738540.46222736232448369265,10.4966124454482,-2.65877254554888,-298.585695974609
738540.46222745277918875217,10.4781487472152,-2.64954069643239,-298.558000427259
738540.46222754323389381170,10.4781487472152,-2.65877254554888,-298.650318918424
738540.46222763368859887123,10.5058442945647,-2.65877254554888,-298.641087069308
738540.46222772414330393076,10.4781487472152,-2.64954069643239,-298.631855220191
738540.46222781448159366846,10.4873805963317,-2.64954069643239,-298.613391521958
738540.46222790493629872799,10.4689168980987,-2.64954069643239,-298.659550767541
738540.46222799539100378752,10.4781487472152,-2.68646809289834,-298.659550767541
738540.46222808584570884705,10.4596850489822,-2.66800439466536,-298.585695974609
738540.46222817630041390657,10.4689168980987,-2.69569994201483,-298.659550767541
738540.46222826675511896610,10.4596850489822,-2.65877254554888,-298.631855220191
738540.46222835709340870380,10.4596850489822,-2.67723624378185,-298.511841181677
738540.46222844754811376333,10.4689168980987,-2.65877254554888,-298.548768578143
738540.46222853800281882286,10.4689168980987,-2.67723624378185,-298.668782616657
738540.46222862845752388239,10.4781487472152,-2.65877254554888,-298.650318918424
738540.46222871891222894192,10.4966124454482,-2.66800439466536,-298.622623371075
738540.46222880936693400145,10.4689168980987,-2.65877254554888,-298.668782616657
738540.46222889982163906097,10.4596850489822,-2.67723624378185,-298.650318918424
738540.46222899015992879868,10.4781487472152,-2.66800439466536,-298.585695974609
738540.46222908061463385820,10.4504531998657,-2.67723624378185,-298.650318918424
738540.46222917106933891773,10.4781487472152,-2.66800439466536,-298.650318918424
738540.46222926152404397726,10.4689168980987,-2.67723624378185,-298.641087069308
738540.46222935197874903679,10.4781487472152,-2.66800439466536,-298.576464125492
738540.46222944243345409632,10.4689168980987,-2.66800439466536,-298.650318918424
738540.46222953277174383402,10.4689168980987,-2.67723624378185,-298.650318918424
738540.46222962322644889355,10.4596850489822,-2.65877254554888,-298.604159672842
738540.46222971368115395308,10.4596850489822,-2.67723624378185,-298.604159672842
738540.46222980413585901260,10.4689168980987,-2.65877254554888,-298.641087069308
738540.46222989459056407213,10.4689168980987,-2.67723624378185,-298.604159672842
738540.46222998504526913166,10.4781487472152,-2.65877254554888,-298.594927823725
738540.46223007538355886936,10.4689168980987,-2.67723624378185,-298.613391521958
738540.46223016583826392889,10.4689168980987,-2.66800439466536,-298.659550767541
738540.46223025629296898842,10.4781487472152,-2.66800439466536,-298.594927823725
738540.46223034674767404795,10.4873805963317,-2.67723624378185,-298.604159672842
738540.46223043720237910748,10.4781487472152,-2.66800439466536,-298.604159672842
738540.46223052765708416700,10.4873805963317,-2.68646809289834,-298.631855220191
738540.46223061799537390471,10.4689168980987,-2.64954069643239,-298.594927823725
738540.46223070845007896423,10.4873805963317,-2.66800439466536,-298.576464125492
738540.46223079890478402376,10.4596850489822,-2.66800439466536,-298.585695974609
738540.46223088935948908329,10.4781487472152,-2.66800439466536,-298.622623371075
738540.46223097981419414282,10.4781487472152,-2.66800439466536,-298.604159672842
738540.46223107026889920235,10.4781487472152,-2.67723624378185,-298.622623371075
738540.46223116060718894005,10.4689168980987,-2.66800439466536,-298.650318918424
738540.46223125106189399958,10.4966124454482,-2.68646809289834,-298.650318918424
738540.46223134151659905910,10.5243079927976,-2.67723624378185,-298.613391521958
738540.46223143197130411863,10.5335398419141,-2.67723624378185,-298.650318918424
738540.46223152242600917816,10.5427716910306,-2.64954069643239,-298.576464125492
738540.46223161288071423769,10.5612353892636,-2.63107699819941,-298.622623371075
738540.46223170321900397539,10.5796990874966,-2.61261329996643,-298.668782616657
738540.46223179367370903492,10.5889309366131,-2.61261329996643,-298.613391521958
738540.46223188412841409445,10.5981627857295,-2.6403088473159,-298.53030487991
738540.46223197458311915398,10.5889309366131,-2.63107699819941,-298.539536729026
738540.46223206503782421350,10.5520035401471,-2.63107699819941,-298.659550767541
738540.46223215549252927303,10.5335398419141,-2.61261329996643,-298.493377483444
738540.46223224594723433256,10.5520035401471,-2.6403088473159,-298.558000427259
738540.46223233628552407026,10.5243079927976,-2.62184514908292,-298.567232276376
738540.46223242674022912979,10.4966124454482,-2.66800439466536,-298.558000427259
738540.46223251719493418932,10.4689168980987,-2.67723624378185,-298.567232276376
738540.46223260764963924885,10.4781487472152,-2.68646809289834,-298.604159672842
738540.46223269810434430838,10.4504531998657,-2.68646809289834,-298.631855220191
738540.46223278855904936790,10.4689168980987,-2.67723624378185,-298.594927823725
738540.46223287889733910561,10.4596850489822,-2.67723624378185,-298.641087069308
738540.46223296935204416513,10.4504531998657,-2.69569994201483,-298.641087069308
738540.46223305980674922466,10.4412213507492,-2.67723624378185,-298.613391521958
738540.46223315026145428419,10.4966124454482,-2.66800439466536,-298.585695974609
738540.46223324071615934372,10.6166264839625,-2.53875850703452,-298.622623371075
738540.46223333117086440325,10.9212775048067,-2.40028077028718,-298.567232276376
738540.46223342150915414095,11.2905514694662,-2.25257118442335,-298.511841181677
738540.46223351196385920048,11.1705374309519,-2.2987304300058,-298.548768578143
738540.46223360241856426001,10.5889309366131,-2.76032288583026,-298.659550767541
738540.46223369287326931953,10.1365703299051,-2.84340952787866,-298.68724631489
738540.46223378332797437906,10.0350199896237,-2.78801843317972,-298.622623371075
738540.46223387378267943859,10.0165562913907,-2.71416364024781,-298.631855220191
738540.46223396412096917629,10.1550340281381,-2.69569994201483,-298.659550767541
738540.46223405457567423582,10.2842799157689,-2.67723624378185,-298.558000427259
738540.46223414503037929535,10.4042939542833,-2.66800439466536,-298.613391521958
738540.46223423548508435488,10.4504531998657,-2.65877254554888,-298.650318918424
738540.46223432593978941441,10.4689168980987,-2.66800439466536,-298.594927823725
738540.46223441639449447393,10.5058442945647,-2.64954069643239,-298.650318918424
738540.46223450673278421164,10.4966124454482,-2.65877254554888,-298.548768578143
738540.46223459718748927116,10.5058442945647,-2.6403088473159,-298.641087069308
738540.46223468764219433069,10.5150761436811,-2.64954069643239,-298.668782616657
738540.46223477809689939022,10.5058442945647,-2.64954069643239,-298.604159672842
738540.46223486855160444975,10.5150761436811,-2.65877254554888,-298.613391521958
738540.46223495900630950928,10.5335398419141,-2.64954069643239,-298.622623371075
738540.46223504934459924698,10.5150761436811,-2.63107699819941,-298.613391521958
738540.46223513979930430651,10.5427716910306,-2.63107699819941,-298.585695974609
738540.46223523025400936604,10.5612353892636,-2.61261329996643,-298.594927823725
738540.46223532070871442556,10.5704672383801,-2.6403088473159,-298.594927823725
738540.46223541116341948509,10.5704672383801,-2.62184514908292,-298.539536729026
738540.46223550161812454462,10.5889309366131,-2.63107699819941,-298.456450086978
738540.46223559207282960415,10.5981627857295,-2.62184514908292,-298.585695974609
738540.46223568241111934185,10.6166264839625,-2.60338145084994,-298.594927823725
738540.46223577286582440138,10.6350901821955,-2.57568590350047,-298.53030487991
738540.46223586332052946091,10.662785729545,-2.56645405438398,-298.585695974609
738540.46223595377523452044,10.662785729545,-2.54799035615101,-298.594927823725
738540.46223604422993957996,10.6997131260109,-2.53875850703452,-298.558000427259
738540.46223613468464463949,10.7181768242439,-2.52029480880154,-298.576464125492
738540.46223622502293437719,10.7458723715934,-2.50183111056856,-298.585695974609
738540.46223631547763943672,10.7643360698263,-2.48336741233558,-298.576464125492
738540.46223640593234449625,10.7551042207099,-2.47413556321909,-298.558000427259
738540.46223649638704955578,10.7735679189428,-2.47413556321909,-298.576464125492
738540.46223658684175461531,10.7827997680593,-2.45567186498611,-298.576464125492
738540.46223667729645967484,10.7920316171758,-2.48336741233558,-298.521073030793
738540.46223676763474941254,10.7643360698263,-2.47413556321909,-298.576464125492
738540.46223685808945447206,10.7458723715934,-2.50183111056856,-298.576464125492
738540.46223694854415953159,10.7366405224769,-2.50183111056856,-298.576464125492
738540.46223703899886459112,10.6904812768944,-2.52952665791803,-298.558000427259
738540.46223712945356965065,10.6535538804285,-2.53875850703452,-298.576464125492
738540.46223721990827471018,10.6166264839625,-2.56645405438398,-298.594927823725
738540.46223731024656444788,10.6166264839625,-2.58491775261696,-298.604159672842
738540.46223740070126950741,10.5796990874966,-2.61261329996643,-298.567232276376
738540.46223749115597456694,10.5889309366131,-2.60338145084994,-298.548768578143
738540.46223758161067962646,10.5612353892636,-2.63107699819941,-298.539536729026
738540.46223767206538468599,10.5612353892636,-2.63107699819941,-298.521073030793
738540.46223776252008974552,10.5335398419141,-2.6403088473159,-298.548768578143
738540.46223785285837948322,10.5427716910306,-2.6403088473159,-298.558000427259
738540.46223794331308454275,10.5243079927976,-2.64954069643239,-298.511841181677
738540.46223803376778960228,10.5335398419141,-2.6403088473159,-298.576464125492
738540.46223812422249466181,10.5243079927976,-2.64954069643239,-298.511841181677
738540.46223821467719972134,10.5427716910306,-2.64954069643239,-298.558000427259
738540.46223830513190478086,10.5150761436811,-2.65877254554888,-298.585695974609
738540.46223839547019451857,10.5520035401471,-2.67723624378185,-298.567232276376
738540.46223848592489957809,10.5520035401471,-2.63107699819941,-298.576464125492
738540.46223857637960463762,10.5520035401471,-2.65877254554888,-298.604159672842
738540.46223866683430969715,10.5520035401471,-2.64954069643239,-298.548768578143
738540.46223875728901475668,10.5520035401471,-2.65877254554888,-298.585695974609
738540.46223884774371981621,10.5520035401471,-2.64954069643239,-298.631855220191
738540.46223893819842487574,10.5335398419141,-2.65877254554888,-298.53030487991
738540.46223902853671461344,10.5520035401471,-2.64954069643239,-298.447218237861
738540.46223911899141967297,10.5427716910306,-2.6403088473159,-298.631855220191
738540.46223920944612473249,10.5520035401471,-2.6403088473159,-298.631855220191
738540.46223929990082979202,10.5427716910306,-2.6403088473159,-298.613391521958
738540.46223939035553485155,10.5612353892636,-2.6403088473159,-298.576464125492
738540.46223948081023991108,10.5427716910306,-2.6403088473159,-298.539536729026
738540.46223957114852964878,10.5612353892636,-2.64954069643239,-298.548768578143
738540.46223966160323470831,10.5335398419141,-2.6403088473159,-298.53030487991
738540.46223975205793976784,10.5520035401471,-2.64954069643239,-298.576464125492
738540.46223984251264482737,10.5335398419141,-2.64954069643239,-298.585695974609
738540.46223993296734988689,10.5150761436811,-2.66800439466536,-298.539536729026
738540.46224002342205494642,10.5243079927976,-2.64954069643239,-298.558000427259
738540.46224011376034468412,10.5335398419141,-2.67723624378185,-298.548768578143
738540.46224020421504974365,10.5243079927976,-2.66800439466536,-298.576464125492
738540.46224029466975480318,10.5335398419141,-2.66800439466536,-298.613391521958
738540.46224038512445986271,10.5335398419141,-2.6403088473159,-298.604159672842
738540.46224047557916492224,10.5427716910306,-2.65877254554888,-298.558000427259
738540.46224056603386998177,10.5427716910306,-2.64954069643239,-298.594927823725
738540.46224065637215971947,10.5243079927976,-2.64954069643239,-298.613391521958
738540.46224074682686477900,10.5243079927976,-2.64954069643239,-298.650318918424
738540.46224083728156983852,10.5058442945647,-2.64954069643239,-298.567232276376
738540.46224092773627489805,10.5427716910306,-2.66800439466536,-298.641087069308
738540.46224101819097995758,10.5243079927976,-2.64954069643239,-298.604159672842
738540.46224110864568501711,10.5335398419141,-2.66800439466536,-298.567232276376
738540.46224119898397475481,10.5243079927976,-2.64954069643239,-298.641087069308
738540.46224128943867981434,10.5335398419141,-2.65877254554888,-298.631855220191
738540.46224137989338487387,10.5335398419141,-2.6403088473159,-298.567232276376
738540.46224147034808993340,10.5335398419141,-2.65877254554888,-298.613391521958
738540.46224156080279499292,10.5243079927976,-2.64954069643239,-298.613391521958
738540.46224165125750005245,10.5335398419141,-2.65877254554888,-298.594927823725
738540.46224174171220511198,10.5520035401471,-2.6403088473159,-298.613391521958
738540.46224183205049484968,10.5150761436811,-2.65877254554888,-298.622623371075
738540.46224192250519990921,10.5520035401471,-2.64954069643239,-298.511841181677
738540.46224201295990496874,10.5335398419141,-2.66800439466536,-298.474913785211
738540.46224210341461002827,10.5612353892636,-2.66800439466536,-298.53030487991
738540.46224219386931508780,10.5150761436811,-2.66800439466536,-298.53030487991
738540.46224228432402014732,10.5427716910306,-2.64954069643239,-298.53030487991
738540.46224237466230988503,10.5520035401471,-2.64954069643239,-298.585695974609
738540.46224246511701494455,10.5335398419141,-2.6403088473159,-298.391827143162
738540.46224255557172000408,10.5427716910306,-2.6403088473159,-298.511841181677
738540.46224264602642506361,10.5243079927976,-2.64954069643239,-298.576464125492
738540.46224273648113012314,10.5335398419141,-2.64954069643239,-298.594927823725
738540.46224282693583518267,10.5427716910306,-2.65877254554888,-298.631855220191
738540.46224291727412492037,10.5704672383801,-2.63107699819941,-298.548768578143
738540.46224300772882997990,10.5427716910306,-2.64954069643239,-298.576464125492
738540.46224309818353503942,10.5520035401471,-2.6403088473159,-298.576464125492
738540.46224318863824009895,10.5243079927976,-2.65877254554888,-298.548768578143
738540.46224327909294515848,10.5520035401471,-2.6403088473159,-298.567232276376
738540.46224336954765021801,10.5335398419141,-2.64954069643239,-298.567232276376
738540.46224345988593995571,10.5889309366131,-2.6403088473159,-298.594927823725
738540.46224355034064501524,10.5889309366131,-2.6403088473159,-298.585695974609
738540.46224364079535007477,10.607394634846,-2.59414960173345,-298.567232276376
738540.46224373125005513430,10.644322031312,-2.55722220526749,-298.604159672842
738540.46224382170476019382,10.625858333079,-2.61261329996643,-298.558000427259
738540.46224391215946525335,10.607394634846,-2.61261329996643,-298.558000427259
738540.46224400249775499105,10.5612353892636,-2.6403088473159,-298.585695974609
738540.46224409295246005058,10.5335398419141,-2.62184514908292,-298.558000427259
738540.46224418340716511011,10.5427716910306,-2.6403088473159,-298.567232276376
738540.46224427386187016964,10.5427716910306,-2.62184514908292,-298.576464125492
738540.46224436431657522917,10.4781487472152,-2.64954069643239,-298.567232276376
738540.46224445477128028870,10.5150761436811,-2.64954069643239,-298.604159672842
738540.46224454510957002640,10.5150761436811,-2.65877254554888,-298.631855220191
738540.46224463556427508593,10.5243079927976,-2.65877254554888,-298.641087069308
738540.46224472601898014545,10.5427716910306,-2.65877254554888,-298.576464125492
738540.46224481647368520498,10.5427716910306,-2.66800439466536,-298.613391521958
738540.46224490692839026451,10.5243079927976,-2.66800439466536,-298.650318918424
738540.46224499738309532404,10.4781487472152,-2.67723624378185,-298.604159672842
738540.46224508783780038357,10.5427716910306,-2.6403088473159,-298.604159672842
738540.46224517817609012127,10.644322031312,-2.52952665791803,-298.585695974609
738540.46224526863079518080,10.9120456556902,-2.40028077028718,-298.53030487991
738540.46224535908550024033,11.2074648274178,-2.27103488265633,-298.50260933256
738540.46224544954020529985,11.1336100344859,-2.27103488265633,-298.521073030793
738540.46224553999491035938,10.6997131260109,-2.75109103671377,-298.594927823725
738540.46224563044961541891,10.2935117648854,-2.86187322611164,-298.539536729026
738540.46224572078790515661,10.1458021790216,-2.76032288583026,-298.539536729026
738540.46224581124261021614,10.1365703299051,-2.70493179113132,-298.53030487991
738540.46224590169731527567,10.2196569719535,-2.69569994201483,-298.511841181677
738540.46224599215202033520,10.3212073122349,-2.64954069643239,-298.382595294046
738540.46224608260672539473,10.3950621051668,-2.65877254554888,-298.511841181677
738540.46224617306143045425,10.4504531998657,-2.64954069643239,-298.456450086978
738540.46224626339972019196,10.5150761436811,-2.64954069643239,-298.53030487991
738540.46224635385442525148,10.5243079927976,-2.62184514908292,-298.484145634327
738540.46224644430913031101,10.5243079927976,-2.62184514908292,-298.558000427259
738540.46224653476383537054,10.5335398419141,-2.6403088473159,-298.613391521958
738540.46224662521854043007,10.5335398419141,-2.62184514908292,-298.622623371075
738540.46224671567324548960,10.5704672383801,-2.6403088473159,-298.585695974609
738540.46224680601153522730,10.5796990874966,-2.60338145084994,-298.604159672842
738540.46224689646624028683,10.5796990874966,-2.61261329996643,-298.622623371075
738540.46224698692094534636,10.5520035401471,-2.59414960173345,-298.539536729026
738540.46224707737565040588,10.5889309366131,-2.61261329996643,-298.558000427259
738540.46224716783035546541,10.5889309366131,-2.59414960173345,-298.558000427259
738540.46224725828506052494,10.6166264839625,-2.60338145084994,-298.558000427259
738540.46224734862335026264,10.6166264839625,-2.59414960173345,-298.585695974609
738540.46224743907805532217,10.5981627857295,-2.56645405438398,-298.567232276376
738540.46224752953276038170,10.625858333079,-2.54799035615101,-298.576464125492
738540.46224761998746544123,10.662785729545,-2.54799035615101,-298.585695974609
738540.46224771044217050076,10.6812494277779,-2.52029480880154,-298.585695974609
738540.46224780089687556028,10.662785729545,-2.54799035615101,-298.585695974609
738540.46224789123516529799,10.7089449751274,-2.52952665791803,-298.521073030793
738540.46224798168987035751,10.7366405224769,-2.52029480880154,-298.613391521958
738540.46224807214457541704,10.7551042207099,-2.50183111056856,-298.539536729026
738540.46224816259928047657,10.7551042207099,-2.45567186498611,-298.511841181677
738540.46224825305398553610,10.7920316171758,-2.45567186498611,-298.594927823725
738540.46224834350869059563,10.7920316171758,-2.44644001586962,-298.521073030793
738540.46224843396339565516,10.8197271645253,-2.44644001586962,-298.53030487991
738540.46224852430168539286,10.8104953154088,-2.44644001586962,-298.521073030793
738540.46224861475639045238,10.8012634662923,-2.44644001586962,-298.594927823725
738540.46224870521109551191,10.8104953154088,-2.42797631763665,-298.539536729026
738540.46224879566580057144,10.7827997680593,-2.4649037141026,-298.493377483444
738540.46224888612050563097,10.7735679189428,-2.4649037141026,-298.511841181677
738540.46224897657521069050,10.7274086733604,-2.49259926145207,-298.511841181677
738540.46224906691350042820,10.6904812768944,-2.51106295968505,-298.521073030793
738540.46224915736820548773,10.6535538804285,-2.52952665791803,-298.539536729026
738540.46224924782291054726,10.662785729545,-2.53875850703452,-298.585695974609
738540.46224933827761560678,10.607394634846,-2.56645405438398,-298.594927823725
738540.46224942873232066631,10.607394634846,-2.57568590350047,-298.539536729026
738540.46224951918702572584,10.5889309366131,-2.59414960173345,-298.456450086978
738540.46224960952531546354,10.5889309366131,-2.60338145084994,-298.558000427259
738540.46224969998002052307,10.5520035401471,-2.60338145084994,-298.539536729026
738540.46224979043472558260,10.5520035401471,-2.60338145084994,-298.622623371075
738540.46224988088943064213,10.5704672383801,-2.59414960173345,-298.613391521958
738540.46224997134413570166,10.5612353892636,-2.63107699819941,-298.594927823725
738540.46225006179884076118,10.5796990874966,-2.59414960173345,-298.585695974609
738540.46225015213713049889,10.5704672383801,-2.60338145084994,-298.604159672842
738540.46225024259183555841,10.5796990874966,-2.61261329996643,-298.613391521958
738540.46225033304654061794,10.5427716910306,-2.63107699819941,-298.53030487991
738540.46225042350124567747,10.5704672383801,-2.59414960173345,-298.548768578143
738540.46225051395595073700,10.5704672383801,-2.61261329996643,-298.539536729026
738540.46225060441065579653,10.5889309366131,-2.60338145084994,-298.558000427259
738540.46225069474894553423,10.5704672383801,-2.60338145084994,-298.548768578143
738540.46225078520365059376,10.607394634846,-2.60338145084994,-298.558000427259
738540.46225087565835565329,10.5981627857295,-2.61261329996643,-298.585695974609
738540.46225096611306071281,10.5981627857295,-2.62184514908292,-298.594927823725
738540.46225105656776577234,10.5796990874966,-2.58491775261696,-298.558000427259
738540.46225114702247083187,10.5796990874966,-2.60338145084994,-298.576464125492
738540.46225123736076056957,10.5981627857295,-2.57568590350047,-298.585695974609
738540.46225132781546562910,10.6350901821955,-2.60338145084994,-298.567232276376
738540.46225141827017068863,10.6166264839625,-2.60338145084994,-298.548768578143
738540.46225150872487574816,10.607394634846,-2.61261329996643,-298.585695974609
738540.46225159917958080769,10.607394634846,-2.59414960173345,-298.576464125492
738540.46225168963428586721,10.6166264839625,-2.60338145084994,-298.594927823725
738540.46225178008899092674,10.607394634846,-2.59414960173345,-298.604159672842
738540.46225187042728066444,10.5981627857295,-2.62184514908292,-298.613391521958
738540.46225196088198572397,10.6166264839625,-2.61261329996643,-298.594927823725
738540.46225205133669078350,10.6166264839625,-2.62184514908292,-298.521073030793
738540.46225214179139584303,10.607394634846,-2.61261329996643,-298.585695974609
738540.46225223224610090256,10.5981627857295,-2.60338145084994,-298.604159672842
738540.46225232270080596209,10.5981627857295,-2.62184514908292,-298.613391521958
738540.46225241303909569979,10.5981627857295,-2.61261329996643,-298.594927823725
738540.46225250349380075932,10.5981627857295,-2.61261329996643,-298.622623371075
738540.46225259394850581884,10.5889309366131,-2.61261329996643,-298.558000427259
738540.46225268440321087837,10.5981627857295,-2.63107699819941,-298.521073030793
738540.46225277485791593790,10.5796990874966,-2.62184514908292,-298.594927823725
738540.46225286531262099743,10.5889309366131,-2.62184514908292,-298.594927823725
738540.46225295565091073513,10.5889309366131,-2.61261329996643,-298.631855220191
738540.46225304610561579466,10.6166264839625,-2.62184514908292,-298.428754539628
738540.46225313656032085419,10.5889309366131,-2.62184514908292,-298.428754539628
738540.46225322701502591372,10.5981627857295,-2.61261329996643,-298.558000427259
738540.46225331746973097324,10.5796990874966,-2.62184514908292,-298.484145634327
738540.46225340792443603277,10.5981627857295,-2.62184514908292,-298.521073030793
738540.46225349826272577047,10.6166264839625,-2.61261329996643,-298.53030487991
738540.46225358871743083000,10.607394634846,-2.62184514908292,-298.50260933256
738540.46225367917213588953,10.6166264839625,-2.60338145084994,-298.53030487991
738540.46225376962684094906,10.5981627857295,-2.62184514908292,-298.585695974609
738540.46225386008154600859,10.6166264839625,-2.61261329996643,-298.613391521958
738540.46225395053625106812,10.5889309366131,-2.62184514908292,-298.548768578143
738540.46225404087454080582,10.5981627857295,-2.63107699819941,-298.604159672842
738540.46225413132924586535,10.5981627857295,-2.60338145084994,-298.613391521958
738540.46225422178395092487,10.6166264839625,-2.62184514908292,-298.576464125492
738540.46225431223865598440,10.5981627857295,-2.61261329996643,-298.585695974609
738540.46225440269336104393,10.5981627857295,-2.63107699819941,-298.622623371075
738540.46225449314806610346,10.5981627857295,-2.60338145084994,-298.631855220191
738540.46225458360277116299,10.5981627857295,-2.63107699819941,-298.594927823725
738540.46225467394106090069,10.5981627857295,-2.62184514908292,-298.613391521958
738540.46225476439576596022,10.5889309366131,-2.62184514908292,-298.613391521958
738540.46225485485047101974,10.5981627857295,-2.62184514908292,-298.576464125492
738540.46225494530517607927,10.6350901821955,-2.61261329996643,-298.650318918424
738540.46225503575988113880,10.6350901821955,-2.61261329996643,-298.650318918424
738540.46225512621458619833,10.6350901821955,-2.60338145084994,-298.558000427259
738540.46225521655287593603,10.662785729545,-2.59414960173345,-298.613391521958
738540.46225530700758099556,10.6904812768944,-2.55722220526749,-298.576464125492
738540.46225539746228605509,10.6904812768944,-2.58491775261696,-298.511841181677
738540.46225548791699111462,10.6720175786615,-2.58491775261696,-298.558000427259
738540.46225557837169617414,10.7089449751274,-2.58491775261696,-298.567232276376
738540.46225566882640123367,10.662785729545,-2.56645405438398,-298.548768578143
738540.46225575916469097137,10.6535538804285,-2.59414960173345,-298.558000427259
738540.46225584961939603090,10.6166264839625,-2.58491775261696,-298.576464125492
738540.46225594007410109043,10.6166264839625,-2.59414960173345,-298.511841181677
738540.46225603052880614996,10.5796990874966,-2.61261329996643,-298.548768578143
738540.46225612098351120949,10.5704672383801,-2.63107699819941,-298.53030487991
738540.46225621143821626902,10.5889309366131,-2.63107699819941,-298.521073030793
738540.46225630177650600672,10.5612353892636,-2.63107699819941,-298.539536729026
738540.46225639223121106625,10.5796990874966,-2.63107699819941,-298.585695974609
738540.46225648268591612577,10.5704672383801,-2.63107699819941,-298.567232276376
738540.46225657314062118530,10.5612353892636,-2.6403088473159,-298.474913785211
738540.46225666359532624483,10.5335398419141,-2.62184514908292,-298.465681936094
738540.46225675405003130436,10.6166264839625,-2.59414960173345,-298.521073030793
738540.46225684438832104206,10.7551042207099,-2.44644001586962,-298.474913785211
738540.46225693484302610159,11.1613055818354,-2.32642597735527,-298.447218237861
738540.46225702529773116112,11.4474929044465,-2.17871639149144,-298.456450086978
738540.46225711575243622065,11.1613055818354,-2.39104892117069,-298.465681936094
738540.46225720620714128017,10.5889309366131,-2.76955473494675,-298.604159672842
738540.46225729666184633970,10.2381206701865,-2.76955473494675,-298.622623371075
738540.46225738700013607740,10.1550340281381,-2.67723624378185,-298.594927823725
738540.46225747745484113693,10.210425122837,-2.64954069643239,-298.548768578143
738540.46225756790954619646,10.3119754631184,-2.63107699819941,-298.622623371075
738540.46225765836425125599,10.4504531998657,-2.64954069643239,-298.594927823725
738540.46225774881895631552,10.5058442945647,-2.63107699819941,-298.576464125492
738540.46225783927366137505,10.5612353892636,-2.63107699819941,-298.521073030793
738540.46225792972836643457,10.5889309366131,-2.61261329996643,-298.53030487991
738540.46225802006665617228,10.5889309366131,-2.60338145084994,-298.511841181677
738540.46225811052136123180,10.607394634846,-2.61261329996643,-298.521073030793
738540.46225820097606629133,10.625858333079,-2.58491775261696,-298.53030487991
738540.46225829143077135086,10.644322031312,-2.57568590350047,-298.604159672842
738540.46225838188547641039,10.644322031312,-2.56645405438398,-298.539536729026
738540.46225847234018146992,10.6720175786615,-2.58491775261696,-298.604159672842
738540.46225856267847120762,10.662785729545,-2.57568590350047,-298.622623371075
738540.46225865313317626715,10.6904812768944,-2.58491775261696,-298.585695974609
738540.46225874358788132668,10.6812494277779,-2.55722220526749,-298.594927823725
738540.46225883404258638620,10.6812494277779,-2.59414960173345,-298.576464125492
738540.46225892449729144573,10.6720175786615,-2.55722220526749,-298.428754539628
738540.46225901495199650526,10.6997131260109,-2.57568590350047,-298.521073030793
738540.46225910529028624296,10.6997131260109,-2.54799035615101,-298.511841181677
738540.46225919574499130249,10.7089449751274,-2.57568590350047,-298.511841181677
738540.46225928619969636202,10.7274086733604,-2.55722220526749,-298.539536729026
738540.46225937665440142155,10.7366405224769,-2.54799035615101,-298.539536729026
738540.46225946710910648108,10.7827997680593,-2.52029480880154,-298.53030487991
738540.46225955756381154060,10.7827997680593,-2.51106295968505,-298.484145634327
738540.46225964790210127831,10.7827997680593,-2.50183111056856,-298.539536729026
738540.46225973835680633783,10.8104953154088,-2.47413556321909,-298.53030487991
738540.46225982881151139736,10.8566545609912,-2.47413556321909,-298.50260933256
738540.46225991926621645689,10.8658864101077,-2.45567186498611,-298.484145634327
738540.46226000972092151642,10.8935819574572,-2.44644001586962,-298.521073030793
738540.46226010017562657595,10.8843501083407,-2.42797631763665,-298.474913785211
738540.46226019051391631365,10.8935819574572,-2.43720816675314,-298.401058992279
738540.46226028096862137318,10.8751182592242,-2.43720816675314,-298.474913785211
738540.46226037142332643270,10.8658864101077,-2.45567186498611,-298.493377483444
738540.46226046187803149223,10.8474227118748,-2.43720816675314,-298.53030487991
738540.46226055233273655176,10.8104953154088,-2.48336741233558,-298.548768578143
738540.46226064278744161129,10.7827997680593,-2.48336741233558,-298.558000427259
738540.46226073312573134899,10.7551042207099,-2.51106295968505,-298.558000427259
738540.46226082358043640852,10.7366405224769,-2.52952665791803,-298.567232276376
738540.46226091403514146805,10.7181768242439,-2.56645405438398,-298.511841181677
738540.46226100448984652758,10.6997131260109,-2.57568590350047,-298.521073030793
738540.46226109494455158710,10.6904812768944,-2.55722220526749,-298.493377483444
738540.46226118539925664663,10.6720175786615,-2.57568590350047,-298.474913785211
738540.46226127585396170616,10.662785729545,-2.56645405438398,-298.50260933256
738540.46226136619225144386,10.6535538804285,-2.58491775261696,-298.511841181677
738540.46226145664695650339,10.6350901821955,-2.58491775261696,-298.53030487991
738540.46226154710166156292,10.6535538804285,-2.60338145084994,-298.567232276376
738540.46226163755636662245,10.6535538804285,-2.60338145084994,-298.548768578143
738540.46226172801107168198,10.662785729545,-2.60338145084994,-298.594927823725
738540.46226181846577674150,10.662785729545,-2.60338145084994,-298.613391521958
738540.46226190880406647921,10.662785729545,-2.61261329996643,-298.576464125492
738540.46226199925877153873,10.6720175786615,-2.60338145084994,-298.631855220191
738540.46226208971347659826,10.662785729545,-2.59414960173345,-298.576464125492
738540.46226218016818165779,10.6720175786615,-2.60338145084994,-298.558000427259
738540.46226227062288671732,10.662785729545,-2.60338145084994,-298.585695974609
738540.46226236107759177685,10.6720175786615,-2.60338145084994,-298.585695974609
738540.46226245141588151455,10.662785729545,-2.61261329996643,-298.622623371075
738540.46226254187058657408,10.6535538804285,-2.59414960173345,-298.585695974609
738540.46226263232529163361,10.6535538804285,-2.59414960173345,-298.539536729026
738540.46226272277999669313,10.7181768242439,-2.60338145084994,-298.585695974609
738540.46226281323470175266,10.6904812768944,-2.57568590350047,-298.622623371075
738540.46226290368940681219,10.7089449751274,-2.59414960173345,-298.622623371075
738540.46226299402769654989,10.6720175786615,-2.58491775261696,-298.539536729026
738540.46226308448240160942,10.6812494277779,-2.59414960173345,-298.604159672842
738540.46226317493710666895,10.662785729545,-2.59414960173345,-298.539536729026
738540.46226326539181172848,10.6904812768944,-2.60338145084994,-298.50260933256
738540.46226335584651678801,10.662785729545,-2.60338145084994,-298.539536729026
738540.46226344630122184753,10.6720175786615,-2.61261329996643,-298.493377483444
738540.46226353663951158524,10.6720175786615,-2.60338145084994,-298.53030487991
738540.46226362709421664476,10.6720175786615,-2.60338145084994,-298.50260933256
738540.46226371754892170429,10.6812494277779,-2.61261329996643,-298.401058992279
738540.46226380800362676382,10.6535538804285,-2.62184514908292,-298.474913785211
738540.46226389845833182335,10.662785729545,-2.62184514908292,-298.521073030793
738540.46226398891303688288,10.6720175786615,-2.60338145084994,-298.511841181677
738540.46226407925132662058,10.662785729545,-2.61261329996643,-298.548768578143
738540.46226416970603168011,10.644322031312,-2.60338145084994,-298.548768578143
738540.46226426016073673964,10.6720175786615,-2.61261329996643,-298.50260933256
738540.46226435061544179916,10.6812494277779,-2.61261329996643,-298.493377483444
738540.46226444107014685869,10.6812494277779,-2.6403088473159,-298.53030487991
738540.46226453152485191822,10.6720175786615,-2.61261329996643,-298.521073030793
738540.46226462197955697775,10.6997131260109,-2.61261329996643,-298.539536729026
738540.46226471231784671545,10.6720175786615,-2.61261329996643,-298.53030487991
738540.46226480277255177498,10.6720175786615,-2.62184514908292,-298.511841181677
738540.46226489322725683451,10.662785729545,-2.61261329996643,-298.521073030793
738540.46226498368196189404,10.6720175786615,-2.61261329996643,-298.521073030793
738540.46226507413666695356,10.6720175786615,-2.60338145084994,-298.539536729026
738540.46226516459137201309,10.6535538804285,-2.63107699819941,-298.539536729026
738540.46226525492966175079,10.662785729545,-2.61261329996643,-298.558000427259
738540.46226534538436681032,10.6535538804285,-2.62184514908292,-298.567232276376
738540.46226543583907186985,10.662785729545,-2.63107699819941,-298.548768578143
738540.46226552629377692938,10.6535538804285,-2.62184514908292,-298.585695974609
738540.46226561674848198891,10.662785729545,-2.63107699819941,-298.604159672842
738540.46226570720318704844,10.6720175786615,-2.61261329996643,-298.548768578143
738540.46226579754147678614,10.6720175786615,-2.63107699819941,-298.585695974609
738540.46226588799618184566,10.6720175786615,-2.61261329996643,-298.567232276376
738540.46226597845088690519,10.662785729545,-2.62184514908292,-298.576464125492
738540.46226606890559196472,10.6720175786615,-2.60338145084994,-298.539536729026
738540.46226615936029702425,10.6812494277779,-2.62184514908292,-298.604159672842
738540.46226624981500208378,10.6904812768944,-2.61261329996643,-298.594927823725
738540.46226634015329182148,10.6720175786615,-2.63107699819941,-298.558000427259
738540.46226643060799688101,10.6720175786615,-2.61261329996643,-298.576464125492
738540.46226652106270194054,10.662785729545,-2.62184514908292,-298.558000427259
738540.46226661151740700006,10.662785729545,-2.62184514908292,-298.50260933256
738540.46226670197211205959,10.662785729545,-2.63107699819941,-298.576464125492
738540.46226679242681711912,10.6904812768944,-2.62184514908292,-298.594927823725
738540.46226688276510685682,10.6904812768944,-2.63107699819941,-298.548768578143
738540.46226697321981191635,10.7089449751274,-2.63107699819941,-298.594927823725
738540.46226706367451697588,10.7089449751274,-2.62184514908292,-298.567232276376
738540.46226715412922203541,10.7366405224769,-2.61261329996643,-298.548768578143
738540.46226724458392709494,10.7366405224769,-2.59414960173345,-298.419522690512
738540.46226733503863215446,10.7643360698263,-2.57568590350047,-298.576464125492
738540.46226742549333721399,10.7643360698263,-2.58491775261696,-298.613391521958
738540.46226751583162695169,10.7551042207099,-2.60338145084994,-298.53030487991
738540.46226760628633201122,10.7366405224769,-2.57568590350047,-298.594927823725
738540.46226769674103707075,10.7181768242439,-2.58491775261696,-298.558000427259
738540.46226778719574213028,10.7274086733604,-2.58491775261696,-298.567232276376
738540.46226787765044718981,10.7181768242439,-2.58491775261696,-298.465681936094
738540.46226796810515224934,10.6997131260109,-2.60338145084994,-298.539536729026
738540.46226805844344198704,10.662785729545,-2.6403088473159,-298.511841181677
738540.46226814889814704657,10.6812494277779,-2.64954069643239,-298.53030487991
738540.46226823935285210609,10.6535538804285,-2.63107699819941,-298.521073030793
738540.46226832980755716562,10.662785729545,-2.6403088473159,-298.50260933256
738540.46226842026226222515,10.625858333079,-2.64954069643239,-298.511841181677
738540.46226851071696728468,10.6535538804285,-2.64954069643239,-298.539536729026
738540.46226860105525702238,10.5796990874966,-2.6403088473159,-298.558000427259
738540.46226869150996208191,10.6720175786615,-2.64954069643239,-298.585695974609
738540.46226878196466714144,10.7551042207099,-2.49259926145207,-298.539536729026
738540.46226887241937220097,11.0689870906705,-2.37258522293771,-298.493377483444
738540.46226896287407726049,11.4013336588641,-2.2156437879574,-298.447218237861
738540.46226905332878232002,11.3090151676992,-2.27103488265633,-298.465681936094
738540.46226914366707205772,11.0689870906705,-2.51106295968505,-298.465681936094
738540.46226923412177711725,10.5243079927976,-2.86187322611164,-298.511841181677
738540.46226932457648217678,10.2842799157689,-2.79725028229621,-298.585695974609
738540.46226941503118723631,10.2196569719535,-2.73262733848079,-298.548768578143
738540.46226950548589229584,10.22888882107,-2.68646809289834,-298.539536729026
738540.46226959594059735537,10.4042939542833,-2.66800439466536,-298.53030487991
738540.46226968627888709307,10.5520035401471,-2.65877254554888,-298.576464125492
738540.46226977673359215260,10.5889309366131,-2.6403088473159,-298.521073030793
738540.46226986718829721212,10.6535538804285,-2.64954069643239,-298.53030487991
738540.46226995764300227165,10.6720175786615,-2.6403088473159,-298.558000427259
738540.46227004809770733118,10.6812494277779,-2.62184514908292,-298.567232276376
738540.46227013855241239071,10.6812494277779,-2.61261329996643,-298.50260933256
738540.46227022889070212841,10.6904812768944,-2.61261329996643,-298.548768578143
738540.46227031934540718794,10.6812494277779,-2.60338145084994,-298.585695974609
738540.46227040980011224747,10.6904812768944,-2.61261329996643,-298.576464125492
738540.46227050025481730700,10.6997131260109,-2.61261329996643,-298.465681936094
738540.46227059070952236652,10.6997131260109,-2.62184514908292,-298.521073030793
738540.46227068116422742605,10.7181768242439,-2.58491775261696,-298.373363444929
738540.46227077161893248558,10.7181768242439,-2.60338145084994,-298.50260933256
738540.46227086195722222328,10.7274086733604,-2.58491775261696,-298.474913785211
738540.46227095241192728281,10.7274086733604,-2.58491775261696,-298.548768578143
738540.46227104286663234234,10.7366405224769,-2.57568590350047,-298.548768578143
738540.46227113332133740187,10.7458723715934,-2.57568590350047,-298.567232276376
738540.46227122377604246140,10.7920316171758,-2.57568590350047,-298.493377483444
738540.46227131423074752092,10.7827997680593,-2.56645405438398,-298.548768578143
738540.46227140456903725863,10.7920316171758,-2.56645405438398,-298.567232276376
738540.46227149502374231815,10.8012634662923,-2.54799035615101,-298.548768578143
738540.46227158547844737768,10.8566545609912,-2.52029480880154,-298.548768578143
738540.46227167593315243721,10.8658864101077,-2.48336741233558,-298.558000427259
738540.46227176638785749674,10.8843501083407,-2.48336741233558,-298.567232276376
738540.46227185684256255627,10.8935819574572,-2.4649037141026,-298.465681936094
738540.46227194718085229397,10.9028138065737,-2.45567186498611,-298.548768578143
738540.46227203763555735350,10.9028138065737,-2.43720816675314,-298.548768578143
738540.46227212809026241302,10.9212775048067,-2.45567186498611,-298.484145634327
738540.46227221854496747255,10.9212775048067,-2.4649037141026,-298.484145634327
738540.46227230899967253208,10.8751182592242,-2.47413556321909,-298.493377483444
738540.46227239945437759161,10.8751182592242,-2.47413556321909,-298.50260933256
738540.46227248979266732931,10.8474227118748,-2.50183111056856,-298.53030487991
738540.46227258024737238884,10.8197271645253,-2.52029480880154,-298.484145634327
738540.46227267070207744837,10.7827997680593,-2.53875850703452,-298.493377483444
738540.46227276115678250790,10.7735679189428,-2.54799035615101,-298.567232276376
738540.46227285161148756742,10.7366405224769,-2.55722220526749,-298.50260933256
738540.46227294206619262695,10.7366405224769,-2.56645405438398,-298.50260933256
738540.46227303240448236465,10.7274086733604,-2.57568590350047,-298.521073030793
738540.46227312285918742418,10.6997131260109,-2.60338145084994,-298.53030487991
738540.46227321331389248371,10.7089449751274,-2.59414960173345,-298.50260933256
738540.46227330376859754324,10.7089449751274,-2.63107699819941,-298.50260933256
738540.46227339422330260277,10.6904812768944,-2.62184514908292,-298.548768578143
738540.46227348467800766230,10.6904812768944,-2.62184514908292,-298.567232276376
738540.46227357501629740000,10.6812494277779,-2.61261329996643,-298.567232276376
738540.46227366547100245953,10.6720175786615,-2.63107699819941,-298.53030487991
738540.46227375592570751905,10.6997131260109,-2.62184514908292,-298.548768578143
738540.46227384638041257858,10.662785729545,-2.63107699819941,-298.493377483444
738540.46227393683511763811,10.6997131260109,-2.6403088473159,-298.511841181677
738540.46227402728982269764,10.6997131260109,-2.63107699819941,-298.493377483444
738540.46227411774452775717,10.6904812768944,-2.6403088473159,-298.493377483444
738540.46227420808281749487,10.6904812768944,-2.63107699819941,-298.354899746696
738540.46227429853752255440,10.6997131260109,-2.6403088473159,-298.437986388745
738540.46227438899222761393,10.6812494277779,-2.6403088473159,-298.50260933256
738540.46227447944693267345,10.6720175786615,-2.6403088473159,-298.558000427259
738540.46227456990163773298,10.662785729545,-2.63107699819941,-298.576464125492
738540.46227466035634279251,10.6997131260109,-2.6403088473159,-298.585695974609
738540.46227475069463253021,10.6720175786615,-2.6403088473159,-298.53030487991
738540.46227484114933758974,10.6720175786615,-2.63107699819941,-298.594927823725
738540.46227493160404264927,10.6904812768944,-2.62184514908292,-298.576464125492
738540.46227502205874770880,10.6812494277779,-2.63107699819941,-298.567232276376
738540.46227511251345276833,10.6997131260109,-2.63107699819941,-298.548768578143
738540.46227520296815782785,10.662785729545,-2.62184514908292,-298.576464125492
738540.46227529330644756556,10.662785729545,-2.63107699819941,-298.576464125492
738540.46227538376115262508,10.644322031312,-2.65877254554888,-298.548768578143
738540.46227547421585768461,10.6720175786615,-2.64954069643239,-298.594927823725
738540.46227556467056274414,10.644322031312,-2.6403088473159,-298.604159672842
738540.46227565512526780367,10.644322031312,-2.65877254554888,-298.558000427259
738540.46227574557997286320,10.6350901821955,-2.65877254554888,-298.594927823725
738540.46227583591826260090,10.662785729545,-2.66800439466536,-298.604159672842
738540.46227592637296766043,10.662785729545,-2.64954069643239,-298.548768578143
738540.46227601682767271996,10.6535538804285,-2.65877254554888,-298.585695974609
738540.46227610728237777948,10.6350901821955,-2.65877254554888,-298.622623371075
738540.46227619773708283901,10.6720175786615,-2.66800439466536,-298.558000427259
738540.46227628819178789854,10.644322031312,-2.65877254554888,-298.604159672842
738540.46227637853007763624,10.662785729545,-2.65877254554888,-298.576464125492
738540.46227646898478269577,10.644322031312,-2.64954069643239,-298.53030487991
738540.46227655943948775530,10.6350901821955,-2.66800439466536,-298.567232276376
738540.46227664989419281483,10.644322031312,-2.65877254554888,-298.567232276376
738540.46227674034889787436,10.6350901821955,-2.65877254554888,-298.567232276376
738540.46227683080360293388,10.644322031312,-2.67723624378185,-298.493377483444
738540.46227692114189267159,10.625858333079,-2.65877254554888,-298.474913785211
738540.46227701159659773111,10.6350901821955,-2.66800439466536,-298.474913785211
738540.46227710205130279064,10.662785729545,-2.65877254554888,-298.511841181677
738540.46227719250600785017,10.6535538804285,-2.66800439466536,-298.484145634327
738540.46227728296071290970,10.6350901821955,-2.65877254554888,-298.548768578143
738540.46227737341541796923,10.644322031312,-2.64954069643239,-298.53030487991
738540.46227746387012302876,10.625858333079,-2.64954069643239,-298.511841181677
738540.46227755420841276646,10.6350901821955,-2.65877254554888,-298.511841181677
738540.46227764466311782598,10.625858333079,-2.64954069643239,-298.521073030793
738540.46227773511782288551,10.625858333079,-2.67723624378185,-298.382595294046
738540.46227782557252794504,10.625858333079,-2.66800439466536,-298.465681936094
738540.46227791602723300457,10.6350901821955,-2.66800439466536,-298.567232276376
738540.46227800648193806410,10.625858333079,-2.65877254554888,-298.576464125492
738540.46227809682022780180,10.644322031312,-2.66800439466536,-298.511841181677
738540.46227818727493286133,10.644322031312,-2.64954069643239,-298.576464125492
738540.46227827772963792086,10.6350901821955,-2.65877254554888,-298.594927823725
738540.46227836818434298038,10.644322031312,-2.65877254554888,-298.53030487991
738540.46227845863904803991,10.6350901821955,-2.65877254554888,-298.558000427259
738540.46227854909375309944,10.6350901821955,-2.65877254554888,-298.576464125492
738540.46227863943204283714,10.625858333079,-2.65877254554888,-298.585695974609
738540.46227872988674789667,10.625858333079,-2.67723624378185,-298.567232276376
738540.46227882034145295620,10.625858333079,-2.64954069643239,-298.613391521958
738540.46227891079615801573,10.6535538804285,-2.66800439466536,-298.631855220191
738540.46227900125086307526,10.662785729545,-2.64954069643239,-298.622623371075
738540.46227909170556813478,10.6720175786615,-2.65877254554888,-298.558000427259
738540.46227918204385787249,10.6904812768944,-2.62184514908292,-298.585695974609
738540.46227927249856293201,10.7181768242439,-2.62184514908292,-298.613391521958
738540.46227936295326799154,10.6997131260109,-2.62184514908292,-298.50260933256
738540.46227945340797305107,10.662785729545,-2.62184514908292,-298.548768578143
738540.46227954386267811060,10.6535538804285,-2.63107699819941,-298.604159672842
738540.46227963431738317013,10.6535538804285,-2.60338145084994,-298.604159672842
738540.46227972465567290783,10.6535538804285,-2.63107699819941,-298.548768578143
738540.46227981511037796736,10.6350901821955,-2.6403088473159,-298.613391521958
738540.46227990556508302689,10.607394634846,-2.66800439466536,-298.631855220191
738540.46227999601978808641,10.5889309366131,-2.68646809289834,-298.521073030793
738540.46228008647449314594,10.5889309366131,-2.68646809289834,-298.613391521958
738540.46228017692919820547,10.5889309366131,-2.68646809289834,-298.631855220191
738540.46228026738390326500,10.5889309366131,-2.68646809289834,-298.613391521958
738540.46228035772219300270,10.5612353892636,-2.68646809289834,-298.548768578143
738540.46228044817689806223,10.5889309366131,-2.68646809289834,-298.594927823725
738540.46228053863160312176,10.5612353892636,-2.67723624378185,-298.631855220191
738540.46228062908630818129,10.607394634846,-2.68646809289834,-298.567232276376
738540.46228071954101324081,10.6904812768944,-2.57568590350047,-298.548768578143
738540.46228080999571830034,10.9028138065737,-2.42797631763665,-298.53030487991
738540.46228090033400803804,11.2166966765343,-2.27103488265633,-298.484145634327
738540.46228099078871309757,11.2536240730003,-2.20641193884091,-298.419522690512
738540.46228108124341815710,10.8751182592242,-2.70493179113132,-298.548768578143
738540.46228117169812321663,10.4596850489822,-2.96342356639302,-298.594927823725
738540.46228126215282827616,10.2658162175359,-2.85264137699515,-298.456450086978
738540.46228135260753333569,10.22888882107,-2.77878658406323,-298.465681936094
738540.46228144294582307339,10.2750480666524,-2.73262733848079,-298.53030487991
738540.46228153340052813292,10.4042939542833,-2.69569994201483,-298.521073030793
738540.46228162385523319244,10.5058442945647,-2.68646809289834,-298.53030487991
738540.46228171430993825197,10.5243079927976,-2.67723624378185,-298.521073030793
738540.46228180476464331150,10.5704672383801,-2.67723624378185,-298.511841181677
738540.46228189521934837103,10.5796990874966,-2.66800439466536,-298.53030487991
738540.46228198555763810873,10.625858333079,-2.66800439466536,-298.576464125492
738540.46228207601234316826,10.5981627857295,-2.65877254554888,-298.511841181677
738540.46228216646704822779,10.625858333079,-2.67723624378185,-298.548768578143
738540.46228225692175328732,10.607394634846,-2.65877254554888,-298.585695974609
738540.46228234737645834684,10.607394634846,-2.65877254554888,-298.576464125492
738540.46228243783116340637,10.6166264839625,-2.65877254554888,-298.558000427259
738540.46228252816945314407,10.6350901821955,-2.6403088473159,-298.539536729026
738540.46228261862415820360,10.6535538804285,-2.63107699819941,-298.521073030793
738540.46228270907886326313,10.6535538804285,-2.62184514908292,-298.511841181677
738540.46228279953356832266,10.6720175786615,-2.61261329996643,-298.521073030793
738540.46228288998827338219,10.6720175786615,-2.60338145084994,-298.521073030793
738540.46228298044297844172,10.6904812768944,-2.61261329996643,-298.53030487991
738540.46228307078126817942,10.6812494277779,-2.59414960173345,-298.585695974609
738540.46228316123597323895,10.7181768242439,-2.60338145084994,-298.594927823725
738540.46228325169067829847,10.7274086733604,-2.57568590350047,-298.567232276376
738540.46228334214538335800,10.7551042207099,-2.57568590350047,-298.558000427259
738540.46228343260008841753,10.7274086733604,-2.54799035615101,-298.576464125492
738540.46228352305479347706,10.7551042207099,-2.55722220526749,-298.585695974609
738540.46228361350949853659,10.8012634662923,-2.52029480880154,-298.576464125492
738540.46228370384778827429,10.8197271645253,-2.52029480880154,-298.558000427259
738540.46228379430249333382,10.8197271645253,-2.48336741233558,-298.567232276376
738540.46228388475719839334,10.8289590136418,-2.48336741233558,-298.53030487991
738540.46228397521190345287,10.8381908627583,-2.48336741233558,-298.604159672842
738540.46228406566660851240,10.8381908627583,-2.50183111056856,-298.567232276376
738540.46228415612131357193,10.8289590136418,-2.48336741233558,-298.53030487991
738540.46228424645960330963,10.8197271645253,-2.48336741233558,-298.548768578143
738540.46228433691430836916,10.8289590136418,-2.50183111056856,-298.604159672842
738540.46228442736901342869,10.7920316171758,-2.50183111056856,-298.585695974609
738540.46228451782371848822,10.7735679189428,-2.52029480880154,-298.53030487991
738540.46228460827842354774,10.7458723715934,-2.52952665791803,-298.594927823725
738540.46228469873312860727,10.7089449751274,-2.59414960173345,-298.558000427259
738540.46228478907141834497,10.662785729545,-2.59414960173345,-298.428754539628
738540.46228487952612340450,10.662785729545,-2.61261329996643,-298.465681936094
738540.46228496998082846403,10.644322031312,-2.61261329996643,-298.567232276376
738540.46228506043553352356,10.625858333079,-2.6403088473159,-298.558000427259
738540.46228515089023858309,10.6166264839625,-2.6403088473159,-298.576464125492
738540.46228524134494364262,10.6166264839625,-2.64954069643239,-298.53030487991
738540.46228533168323338032,10.644322031312,-2.62184514908292,-298.521073030793
738540.46228542213793843985,10.625858333079,-2.63107699819941,-298.521073030793
738540.46228551259264349937,10.6535538804285,-2.63107699819941,-298.521073030793
738540.46228560304734855890,10.662785729545,-2.61261329996643,-298.53030487991
738540.46228569350205361843,10.6812494277779,-2.61261329996643,-298.567232276376
738540.46228578395675867796,10.6535538804285,-2.61261329996643,-298.539536729026
738540.46228587429504841566,10.644322031312,-2.62184514908292,-298.53030487991
738540.46228596474975347519,10.6535538804285,-2.61261329996643,-298.567232276376
738540.46228605520445853472,10.6535538804285,-2.6403088473159,-298.548768578143
738540.46228614565916359425,10.644322031312,-2.63107699819941,-298.539536729026
738540.46228623611386865377,10.644322031312,-2.6403088473159,-298.567232276376
738540.46228632656857371330,10.644322031312,-2.62184514908292,-298.558000427259
738540.46228641690686345100,10.6166264839625,-2.63107699819941,-298.548768578143
738540.46228650736156851053,10.6166264839625,-2.63107699819941,-298.539536729026
738540.46228659781627357006,10.6166264839625,-2.6403088473159,-298.548768578143
738540.46228668827097862959,10.6350901821955,-2.64954069643239,-298.548768578143
738540.46228677872568368912,10.6166264839625,-2.65877254554888,-298.558000427259
738540.46228686918038874865,10.607394634846,-2.6403088473159,-298.576464125492
738540.46228695963509380817,10.607394634846,-2.6403088473159,-298.567232276376
738540.46228704997338354588,10.607394634846,-2.65877254554888,-298.631855220191
738540.46228714042808860540,10.5889309366131,-2.65877254554888,-298.613391521958
738540.46228723088279366493,10.5889309366131,-2.65877254554888,-298.594927823725
738540.46228732133749872446,10.5981627857295,-2.6403088473159,-298.604159672842
738540.46228741179220378399,10.607394634846,-2.66800439466536,-298.604159672842
738540.46228750224690884352,10.5889309366131,-2.66800439466536,-298.613391521958
738540.46228759258519858122,10.5981627857295,-2.66800439466536,-298.567232276376
738540.46228768303990364075,10.5889309366131,-2.65877254554888,-298.613391521958
738540.46228777349460870028,10.607394634846,-2.67723624378185,-298.53030487991
738540.46228786394931375980,10.5796990874966,-2.65877254554888,-298.53030487991
738540.46228795440401881933,10.5796990874966,-2.68646809289834,-298.539536729026
738540.46228804485872387886,10.5796990874966,-2.66800439466536,-298.53030487991
738540.46228813519701361656,10.5612353892636,-2.67723624378185,-298.539536729026
738540.46228822565171867609,10.5889309366131,-2.66800439466536,-298.558000427259
738540.46228831610642373562,10.5796990874966,-2.65877254554888,-298.594927823725
738540.46228840656112879515,10.5981627857295,-2.65877254554888,-298.50260933256
738540.46228849701583385468,10.5889309366131,-2.64954069643239,-298.613391521958
738540.46228858747053891420,10.5981627857295,-2.65877254554888,-298.594927823725
738540.46228867780882865191,10.5796990874966,-2.64954069643239,-298.604159672842
738540.46228876826353371143,10.5981627857295,-2.66800439466536,-298.622623371075
738540.46228885871823877096,10.5796990874966,-2.66800439466536,-298.585695974609
738540.46228894917294383049,10.5981627857295,-2.66800439466536,-298.650318918424
738540.46228903962764889002,10.5520035401471,-2.66800439466536,-298.622623371075
738540.46228913008235394955,10.5796990874966,-2.67723624378185,-298.558000427259
738540.46228922042064368725,10.5520035401471,-2.66800439466536,-298.511841181677
738540.46228931087534874678,10.5889309366131,-2.68646809289834,-298.548768578143
738540.46228940133005380630,10.5427716910306,-2.66800439466536,-298.558000427259
738540.46228949178475886583,10.5612353892636,-2.68646809289834,-298.567232276376
738540.46228958223946392536,10.5796990874966,-2.66800439466536,-298.521073030793
738540.46228967269416898489,10.5704672383801,-2.66800439466536,-298.558000427259
738540.46228976303245872259,10.5612353892636,-2.66800439466536,-298.511841181677
738540.46228985348716378212,10.5612353892636,-2.68646809289834,-298.594927823725
738540.46228994394186884165,10.5889309366131,-2.66800439466536,-298.567232276376
738540.46229003439657390118,10.5889309366131,-2.64954069643239,-298.558000427259
738540.46229012485127896070,10.607394634846,-2.66800439466536,-298.567232276376
738540.46229021530598402023,10.625858333079,-2.62184514908292,-298.594927823725
738540.46229030576068907976,10.6535538804285,-2.6403088473159,-298.576464125492
738540.46229039609897881746,10.644322031312,-2.62184514908292,-298.622623371075
738540.46229048655368387699,10.6535538804285,-2.6403088473159,-298.604159672842
738540.46229057700838893652,10.6720175786615,-2.62184514908292,-298.53030487991
738540.46229066746309399605,10.662785729545,-2.6403088473159,-298.594927823725
738540.46229075791779905558,10.6535538804285,-2.62184514908292,-298.539536729026
738540.46229084837250411510,10.6350901821955,-2.63107699819941,-298.558000427259
738540.46229093871079385281,10.607394634846,-2.63107699819941,-298.631855220191
738540.46229102916549891233,10.607394634846,-2.6403088473159,-298.613391521958
738540.46229111962020397186,10.5427716910306,-2.66800439466536,-298.604159672842
738540.46229121007490903139,10.5335398419141,-2.68646809289834,-298.576464125492
738540.46229130052961409092,10.5335398419141,-2.69569994201483,-298.594927823725
738540.46229139098431915045,10.5335398419141,-2.67723624378185,-298.641087069308
738540.46229148132260888815,10.5335398419141,-2.67723624378185,-298.622623371075
738540.46229157177731394768,10.5243079927976,-2.69569994201483,-298.604159672842
738540.46229166223201900721,10.5243079927976,-2.68646809289834,-298.613391521958
738540.46229175268672406673,10.4781487472152,-2.68646809289834,-298.604159672842
738540.46229184314142912626,10.5335398419141,-2.67723624378185,-298.511841181677
738540.46229193359613418579,10.5889309366131,-2.54799035615101,-298.447218237861
738540.46229202393442392349,10.8289590136418,-2.43720816675314,-298.558000427259
738540.46229211438912898302,11.1520737327189,-2.2987304300058,-298.511841181677
738540.46229220484383404255,11.1797692800684,-2.27103488265633,-298.465681936094
738540.46229229529853910208,10.7827997680593,-2.70493179113132,-298.594927823725
738540.46229238575324416161,10.3950621051668,-2.94495986816004,-298.622623371075
738540.46229247620794922113,10.22888882107,-2.8064821314127,-298.613391521958
738540.46229256654623895884,10.1642658772546,-2.75109103671377,-298.650318918424
738540.46229265700094401836,10.210425122837,-2.67723624378185,-298.613391521958
738540.46229274745564907789,10.3581347087008,-2.58491775261696,-298.604159672842
738540.46229283791035413742,10.4412213507492,-2.63107699819941,-298.594927823725
738540.46229292836505919695,10.4966124454482,-2.63107699819941,-298.493377483444
738540.46229301881976425648,10.5427716910306,-2.6403088473159,-298.474913785211
738540.46229310927446931601,10.5520035401471,-2.6403088473159,-298.558000427259
738540.46229319961275905371,10.5520035401471,-2.64954069643239,-298.567232276376
738540.46229329006746411324,10.5520035401471,-2.6403088473159,-298.539536729026
738540.46229338052216917276,10.5704672383801,-2.64954069643239,-298.511841181677
738540.46229347097687423229,10.5704672383801,-2.63107699819941,-298.521073030793
738540.46229356143157929182,10.5889309366131,-2.64954069643239,-298.539536729026
738540.46229365188628435135,10.5612353892636,-2.63107699819941,-298.567232276376
738540.46229374222457408905,10.5612353892636,-2.6403088473159,-298.539536729026
738540.46229383267927914858,10.5981627857295,-2.63107699819941,-298.521073030793
738540.46229392313398420811,10.5889309366131,-2.62184514908292,-298.53030487991
738540.46229401358868926764,10.5981627857295,-2.63107699819941,-298.50260933256
738540.46229410404339432716,10.5981627857295,-2.62184514908292,-298.53030487991
738540.46229419449809938669,10.625858333079,-2.62184514908292,-298.548768578143
738540.46229428483638912439,10.6166264839625,-2.60338145084994,-298.539536729026
738540.46229437529109418392,10.6535538804285,-2.60338145084994,-298.539536729026
738540.46229446574579924345,10.644322031312,-2.59414960173345,-298.53030487991
738540.46229455620050430298,10.6812494277779,-2.57568590350047,-298.594927823725
738540.46229464665520936251,10.6997131260109,-2.53875850703452,-298.613391521958
738540.46229473710991442204,10.7089449751274,-2.54799035615101,-298.50260933256
738540.46229482744820415974,10.6997131260109,-2.52952665791803,-298.576464125492
738540.46229491790290921926,10.7458723715934,-2.53875850703452,-298.594927823725
738540.46229500835761427879,10.7735679189428,-2.49259926145207,-298.548768578143
738540.46229509881231933832,10.7551042207099,-2.52952665791803,-298.576464125492
738540.46229518926702439785,10.7735679189428,-2.49259926145207,-298.604159672842
738540.46229527972172945738,10.7827997680593,-2.52029480880154,-298.585695974609
738540.46229537006001919508,10.7920316171758,-2.50183111056856,-298.373363444929
738540.46229546051472425461,10.7735679189428,-2.52952665791803,-298.465681936094
738540.46229555096942931414,10.7551042207099,-2.51106295968505,-298.567232276376
738540.46229564142413437366,10.7274086733604,-2.52029480880154,-298.594927823725
738540.46229573187883943319,10.7181768242439,-2.53875850703452,-298.631855220191
738540.46229582233354449272,10.6812494277779,-2.53875850703452,-298.548768578143
738540.46229591267183423042,10.662785729545,-2.57568590350047,-298.622623371075
738540.46229600312653928995,10.625858333079,-2.57568590350047,-298.604159672842
738540.46229609358124434948,10.607394634846,-2.61261329996643,-298.558000427259
738540.46229618403594940901,10.5796990874966,-2.61261329996643,-298.622623371075
738540.46229627449065446854,10.5889309366131,-2.6403088473159,-298.613391521958
738540.46229636494535952806,10.5796990874966,-2.63107699819941,-298.585695974609
738540.46229645540006458759,10.5612353892636,-2.65877254554888,-298.622623371075
738540.46229654573835432529,10.5612353892636,-2.63107699819941,-298.613391521958
738540.46229663619305938482,10.5704672383801,-2.64954069643239,-298.613391521958
738540.46229672664776444435,10.5796990874966,-2.63107699819941,-298.613391521958
738540.46229681710246950388,10.5704672383801,-2.64954069643239,-298.594927823725
738540.46229690755717456341,10.5796990874966,-2.6403088473159,-298.631855220191
738540.46229699801187962294,10.5704672383801,-2.6403088473159,-298.604159672842
738540.46229708835016936064,10.5704672383801,-2.63107699819941,-298.521073030793
738540.46229717880487442017,10.5796990874966,-2.6403088473159,-298.539536729026
738540.46229726925957947969,10.5889309366131,-2.62184514908292,-298.474913785211
738540.46229735971428453922,10.5796990874966,-2.62184514908292,-298.50260933256
738540.46229745016898959875,10.6166264839625,-2.62184514908292,-298.521073030793
738540.46229754062369465828,10.5889309366131,-2.62184514908292,-298.50260933256
738540.46229763096198439598,10.5981627857295,-2.6403088473159,-298.521073030793
738540.46229772141668945551,10.5889309366131,-2.63107699819941,-298.585695974609
738540.46229781187139451504,10.5796990874966,-2.63107699819941,-298.594927823725
738540.46229790232609957457,10.5889309366131,-2.61261329996643,-298.539536729026
738540.46229799278080463409,10.5796990874966,-2.6403088473159,-298.594927823725
738540.46229808323550969362,10.5796990874966,-2.61261329996643,-298.604159672842
738540.46229817357379943132,10.5796990874966,-2.63107699819941,-298.558000427259
738540.46229826402850449085,10.5612353892636,-2.6403088473159,-298.613391521958
738540.46229835448320955038,10.5704672383801,-2.63107699819941,-298.631855220191
738540.46229844493791460991,10.5796990874966,-2.62184514908292,-298.622623371075
738540.46229853539261966944,10.5520035401471,-2.63107699819941,-298.576464125492
738540.46229862584732472897,10.5612353892636,-2.6403088473159,-298.622623371075
738540.46229871618561446667,10.5612353892636,-2.63107699819941,-298.604159672842
738540.46229880664031952620,10.5520035401471,-2.6403088473159,-298.558000427259
738540.46229889709502458572,10.5427716910306,-2.63107699819941,-298.391827143162
738540.46229898754972964525,10.5427716910306,-2.65877254554888,-298.511841181677
738540.46229907800443470478,10.5520035401471,-2.64954069643239,-298.558000427259
738540.46229916845913976431,10.5704672383801,-2.65877254554888,-298.558000427259
738540.46229925879742950201,10.5520035401471,-2.6403088473159,-298.585695974609
738540.46229934925213456154,10.5612353892636,-2.64954069643239,-298.548768578143
738540.46229943970683962107,10.5612353892636,-2.64954069643239,-298.585695974609
738540.46229953016154468060,10.5427716910306,-2.65877254554888,-298.558000427259
738540.46229962061624974012,10.5612353892636,-2.6403088473159,-298.576464125492
738540.46229971107095479965,10.5243079927976,-2.64954069643239,-298.594927823725
738540.46229980152565985918,10.5520035401471,-2.6403088473159,-298.613391521958
738540.46229989186394959688,10.5427716910306,-2.64954069643239,-298.650318918424
738540.46229998231865465641,10.5520035401471,-2.65877254554888,-298.576464125492
738540.46230007277335971594,10.5612353892636,-2.64954069643239,-298.641087069308
738540.46230016322806477547,10.5612353892636,-2.64954069643239,-298.631855220191
738540.46230025368276983500,10.5520035401471,-2.64954069643239,-298.548768578143
738540.46230034413747489452,10.5520035401471,-2.64954069643239,-298.622623371075
738540.46230043447576463223,10.5335398419141,-2.65877254554888,-298.650318918424
738540.46230052493046969175,10.5520035401471,-2.66800439466536,-298.594927823725
738540.46230061538517475128,10.5520035401471,-2.6403088473159,-298.594927823725
738540.46230070583987981081,10.5520035401471,-2.65877254554888,-298.622623371075
738540.46230079629458487034,10.5612353892636,-2.63107699819941,-298.622623371075
738540.46230088674928992987,10.5427716910306,-2.65877254554888,-298.585695974609
738540.46230097708757966757,10.5427716910306,-2.6403088473159,-298.622623371075
738540.46230106754228472710,10.5796990874966,-2.65877254554888,-298.641087069308
738540.46230115799698978662,10.5981627857295,-2.6403088473159,-298.558000427259
738540.46230124845169484615,10.607394634846,-2.66800439466536,-298.604159672842
738540.46230133890639990568,10.6350901821955,-2.6403088473159,-298.622623371075
738540.46230142936110496521,10.644322031312,-2.60338145084994,-298.631855220191
738540.46230151969939470291,10.644322031312,-2.63107699819941,-298.567232276376
738540.46230161015409976244,10.6350901821955,-2.61261329996643,-298.594927823725
738540.46230170060880482197,10.625858333079,-2.63107699819941,-298.641087069308
738540.46230179106350988150,10.6166264839625,-2.60338145084994,-298.585695974609
738540.46230188151821494102,10.6166264839625,-2.62184514908292,-298.585695974609
738540.46230197197292000055,10.5981627857295,-2.61261329996643,-298.631855220191
738540.46230206231120973825,10.5889309366131,-2.63107699819941,-298.613391521958
738540.46230215276591479778,10.5243079927976,-2.65877254554888,-298.594927823725
738540.46230224322061985731,10.5612353892636,-2.64954069643239,-298.585695974609
738540.46230233367532491684,10.5335398419141,-2.64954069643239,-298.567232276376
738540.46230242413002997637,10.5427716910306,-2.66800439466536,-298.428754539628
738540.46230251458473503590,10.5150761436811,-2.66800439466536,-298.456450086978
738540.46230260492302477360,10.5335398419141,-2.66800439466536,-298.604159672842
738540.46230269537772983313,10.4966124454482,-2.65877254554888,-298.585695974609
738540.46230278583243489265,10.5520035401471,-2.64954069643239,-298.576464125492
738540.46230287628713995218,10.625858333079,-2.52029480880154,-298.493377483444
738540.46230296674184501171,10.9305093539232,-2.41874446852016,-298.484145634327
738540.46230305719655007124,11.2443922238838,-2.30796227912229,-298.437986388745
738540.46230314765125513077,11.2166966765343,-2.28949858088931,-298.428754539628
738540.46230323798954486847,10.9951322977386,-2.49259926145207,-298.53030487991
738540.46230332844424992800,10.4966124454482,-2.83417767876217,-298.631855220191
738540.46230341889895498753,10.210425122837,-2.78801843317972,-298.622623371075
738540.46230350935366004705,10.1550340281381,-2.71416364024781,-298.650318918424
738540.46230359980836510658,10.1458021790216,-2.70493179113132,-298.631855220191
738540.46230369026307016611,10.2381206701865,-2.6403088473159,-298.548768578143
738540.46230378060135990381,10.3673665578173,-2.65877254554888,-298.622623371075
738540.46230387105606496334,10.4689168980987,-2.63107699819941,-298.576464125492
738540.46230396151077002287,10.4966124454482,-2.64954069643239,-298.521073030793
738540.46230405196547508240,10.5243079927976,-2.6403088473159,-298.604159672842
738540.46230414242018014193,10.5335398419141,-2.62184514908292,-298.650318918424
738540.46230423287488520145,10.5520035401471,-2.62184514908292,-298.631855220191
738540.46230432321317493916,10.5889309366131,-2.62184514908292,-298.594927823725
738540.46230441366787999868,10.5889309366131,-2.62184514908292,-298.622623371075
738540.46230450412258505821,10.5704672383801,-2.62184514908292,-298.613391521958
738540.46230459457729011774,10.607394634846,-2.62184514908292,-298.594927823725
738540.46230468503199517727,10.5981627857295,-2.61261329996643,-298.622623371075
738540.46230477548670023680,10.644322031312,-2.60338145084994,-298.613391521958
738540.46230486582498997450,10.6166264839625,-2.60338145084994,-298.576464125492
738540.46230495627969503403,10.644322031312,-2.59414960173345,-298.604159672842
738540.46230504673440009356,10.644322031312,-2.57568590350047,-298.622623371075
738540.46230513718910515308,10.6535538804285,-2.58491775261696,-298.585695974609
738540.46230522764381021261,10.6720175786615,-2.56645405438398,-298.594927823725
738540.46230531809851527214,10.6812494277779,-2.58491775261696,-298.613391521958
738540.46230540843680500984,10.7181768242439,-2.56645405438398,-298.622623371075
738540.46230549889151006937,10.7458723715934,-2.54799035615101,-298.576464125492
738540.46230558934621512890,10.7458723715934,-2.55722220526749,-298.622623371075
738540.46230567980092018843,10.7643360698263,-2.53875850703452,-298.484145634327
738540.46230577025562524796,10.8381908627583,-2.50183111056856,-298.567232276376
738540.46230586071033030748,10.8289590136418,-2.49259926145207,-298.585695974609
738540.46230595116503536701,10.8474227118748,-2.49259926145207,-298.465681936094
738540.46230604150332510471,10.8289590136418,-2.48336741233558,-298.391827143162
738540.46230613195803016424,10.8658864101077,-2.48336741233558,-298.548768578143
738540.46230622241273522377,10.8658864101077,-2.47413556321909,-298.604159672842
738540.46230631286744028330,10.8935819574572,-2.49259926145207,-298.53030487991
738540.46230640332214534283,10.8658864101077,-2.47413556321909,-298.548768578143
738540.46230649377685040236,10.8566545609912,-2.50183111056856,-298.585695974609
738540.46230658411514014006,10.8381908627583,-2.52029480880154,-298.567232276376
738540.46230667456984519958,10.8566545609912,-2.51106295968505,-298.594927823725
738540.46230676502455025911,10.7827997680593,-2.52952665791803,-298.622623371075
738540.46230685547925531864,10.7735679189428,-2.56645405438398,-298.594927823725
738540.46230694593396037817,10.7551042207099,-2.55722220526749,-298.548768578143
738540.46230703638866543770,10.7089449751274,-2.56645405438398,-298.558000427259
738540.46230712672695517540,10.6997131260109,-2.59414960173345,-298.437986388745
738540.46230721718166023493,10.6720175786615,-2.59414960173345,-298.484145634327
738540.46230730763636529446,10.6812494277779,-2.62184514908292,-298.465681936094
738540.46230739809107035398,10.662785729545,-2.62184514908292,-298.474913785211
738540.46230748854577541351,10.6535538804285,-2.64954069643239,-298.50260933256
738540.46230757900048047304,10.644322031312,-2.63107699819941,-298.484145634327
738540.46230766933877021074,10.6535538804285,-2.6403088473159,-298.539536729026
738540.46230775979347527027,10.662785729545,-2.63107699819941,-298.493377483444
738540.46230785024818032980,10.6720175786615,-2.63107699819941,-298.521073030793
738540.46230794070288538933,10.662785729545,-2.62184514908292,-298.539536729026
738540.46230803115759044886,10.662785729545,-2.6403088473159,-298.493377483444
738540.46230812161229550838,10.644322031312,-2.62184514908292,-298.539536729026
738540.46230821195058524609,10.6904812768944,-2.62184514908292,-298.511841181677
738540.46230830240529030561,10.662785729545,-2.62184514908292,-298.558000427259
738540.46230839285999536514,10.6904812768944,-2.62184514908292,-298.567232276376
738540.46230848331470042467,10.662785729545,-2.61261329996643,-298.576464125492
738540.46230857376940548420,10.6720175786615,-2.61261329996643,-298.548768578143
738540.46230866422411054373,10.662785729545,-2.62184514908292,-298.576464125492
738540.46230875456240028143,10.6535538804285,-2.63107699819941,-298.613391521958
738540.46230884501710534096,10.662785729545,-2.63107699819941,-298.567232276376
738540.46230893547181040049,10.6535538804285,-2.61261329996643,-298.585695974609
738540.46230902592651546001,10.662785729545,-2.63107699819941,-298.613391521958
738540.46230911638122051954,10.6535538804285,-2.60338145084994,-298.585695974609
738540.46230920683592557907,10.6720175786615,-2.62184514908292,-298.558000427259
738540.46230929729063063860,10.6350901821955,-2.63107699819941,-298.576464125492
738540.46230938762892037630,10.6812494277779,-2.62184514908292,-298.613391521958
738540.46230947808362543583,10.662785729545,-2.62184514908292,-298.474913785211
738540.46230956853833049536,10.6812494277779,-2.63107699819941,-298.511841181677
738540.46230965899303555489,10.662785729545,-2.63107699819941,-298.613391521958
738540.46230974944774061441,10.662785729545,-2.6403088473159,-298.594927823725
738540.46230983990244567394,10.644322031312,-2.6403088473159,-298.558000427259
738540.46230993024073541164,10.625858333079,-2.65877254554888,-298.613391521958
738540.46231002069544047117,10.625858333079,-2.65877254554888,-298.558000427259
738540.46231011115014553070,10.6535538804285,-2.64954069643239,-298.53030487991
738540.46231020160485059023,10.6535538804285,-2.6403088473159,-298.558000427259
738540.46231029205955564976,10.625858333079,-2.6403088473159,-298.548768578143
738540.46231038251426070929,10.6350901821955,-2.63107699819941,-298.53030487991
738540.46231047285255044699,10.625858333079,-2.6403088473159,-298.548768578143
738540.46231056330725550652,10.6350901821955,-2.64954069643239,-298.558000427259
738540.46231065376196056604,10.6350901821955,-2.64954069643239,-298.548768578143
738540.46231074421666562557,10.6350901821955,-2.65877254554888,-298.484145634327
738540.46231083467137068510,10.6350901821955,-2.6403088473159,-298.419522690512
738540.46231092512607574463,10.644322031312,-2.65877254554888,-298.50260933256
738540.46231101546436548233,10.6535538804285,-2.64954069643239,-298.50260933256
738540.46231110591907054186,10.644322031312,-2.65877254554888,-298.493377483444
738540.46231119637377560139,10.6720175786615,-2.64954069643239,-298.484145634327
738540.46231128682848066092,10.6350901821955,-2.65877254554888,-298.548768578143
738540.46231137728318572044,10.644322031312,-2.64954069643239,-298.548768578143
738540.46231146773789077997,10.6350901821955,-2.64954069643239,-298.539536729026
738540.46231155807618051767,10.644322031312,-2.65877254554888,-298.53030487991
738540.46231164853088557720,10.644322031312,-2.64954069643239,-298.594927823725
738540.46231173898559063673,10.6535538804285,-2.65877254554888,-298.567232276376
738540.46231182944029569626,10.644322031312,-2.65877254554888,-298.558000427259
738540.46231191989500075579,10.644322031312,-2.67723624378185,-298.585695974609
738540.46231201034970581532,10.662785729545,-2.6403088473159,-298.576464125492
738540.46231210068799555302,10.6904812768944,-2.64954069643239,-298.474913785211
738540.46231219114270061255,10.6812494277779,-2.6403088473159,-298.50260933256
738540.46231228159740567207,10.7089449751274,-2.6403088473159,-298.511841181677
738540.46231237205211073160,10.6997131260109,-2.61261329996643,-298.493377483444
738540.46231246250681579113,10.7551042207099,-2.61261329996643,-298.511841181677
738540.46231255296152085066,10.7643360698263,-2.59414960173345,-298.521073030793
738540.46231264341622591019,10.7551042207099,-2.61261329996643,-298.567232276376
738540.46231273375451564789,10.7551042207099,-2.61261329996643,-298.548768578143
738540.46231282420922070742,10.7274086733604,-2.60338145084994,-298.576464125492
738540.46231291466392576694,10.7274086733604,-2.60338145084994,-298.576464125492
738540.46231300511863082647,10.6904812768944,-2.61261329996643,-298.521073030793
738540.46231309557333588600,10.6904812768944,-2.62184514908292,-298.456450086978
738540.46231318602804094553,10.644322031312,-2.62184514908292,-298.594927823725
738540.46231327636633068323,10.6166264839625,-2.66800439466536,-298.631855220191
738540.46231336682103574276,10.6350901821955,-2.64954069643239,-298.567232276376
738540.46231345727574080229,10.625858333079,-2.67723624378185,-298.539536729026
738540.46231354773044586182,10.6166264839625,-2.64954069643239,-298.567232276376
738540.46231363818515092134,10.625858333079,-2.66800439466536,-298.576464125492
738540.46231372863985598087,10.5889309366131,-2.6403088473159,-298.521073030793
738540.46231381897814571857,10.5981627857295,-2.66800439466536,-298.548768578143
738540.46231390943285077810,10.6812494277779,-2.59414960173345,-298.539536729026
738540.46231399988755583763,10.9212775048067,-2.4649037141026,-298.493377483444
738540.46231409034226089716,11.2628559221168,-2.32642597735527,-298.456450086978
738540.46231418079696595669,11.4474929044465,-2.24333933530686,-298.437986388745
738540.46231427125167101622,11.059755241554,-2.52029480880154,-298.50260933256
738540.46231436158996075392,10.5058442945647,-2.82494582964568,-298.576464125492
738540.46231445204466581345,10.247352519303,-2.75109103671377,-298.567232276376
738540.46231454249937087297,10.210425122837,-2.71416364024781,-298.558000427259
738540.46231463295407593250,10.210425122837,-2.69569994201483,-298.53030487991
738540.46231472340878099203,10.2935117648854,-2.64954069643239,-298.548768578143
738540.46231481386348605156,10.4689168980987,-2.64954069643239,-298.548768578143
738540.46231490420177578926,10.5427716910306,-2.64954069643239,-298.539536729026
738540.46231499465648084879,10.644322031312,-2.64954069643239,-298.548768578143
738540.46231508511118590832,10.644322031312,-2.6403088473159,-298.558000427259
738540.46231517556589096785,10.662785729545,-2.6403088473159,-298.465681936094
738540.46231526602059602737,10.6812494277779,-2.63107699819941,-298.474913785211
738540.46231535647530108690,10.6720175786615,-2.6403088473159,-298.50260933256
738540.46231544681359082460,10.6720175786615,-2.63107699819941,-298.484145634327
738540.46231553726829588413,10.6720175786615,-2.6403088473159,-298.484145634327
738540.46231562772300094366,10.6812494277779,-2.61261329996643,-298.539536729026
738540.46231571817770600319,10.6720175786615,-2.6403088473159,-298.548768578143
738540.46231580863241106272,10.6997131260109,-2.63107699819941,-298.50260933256
738540.46231589908711612225,10.6812494277779,-2.62184514908292,-298.511841181677
738540.46231598954182118177,10.7274086733604,-2.62184514908292,-298.511841181677
738540.46231607988011091948,10.7181768242439,-2.63107699819941,-298.521073030793
738540.46231617033481597900,10.7458723715934,-2.61261329996643,-298.53030487991
738540.46231626078952103853,10.7827997680593,-2.58491775261696,-298.511841181677
738540.46231635124422609806,10.7827997680593,-2.59414960173345,-298.50260933256
738540.46231644169893115759,10.7735679189428,-2.58491775261696,-298.521073030793
738540.46231653215363621712,10.7920316171758,-2.59414960173345,-298.474913785211
738540.46231662249192595482,10.8104953154088,-2.55722220526749,-298.391827143162
738540.46231671294663101435,10.8289590136418,-2.54799035615101,-298.521073030793
738540.46231680340133607388,10.8658864101077,-2.52029480880154,-298.539536729026
738540.46231689385604113340,10.8843501083407,-2.52952665791803,-298.576464125492
738540.46231698431074619293,10.9028138065737,-2.51106295968505,-298.548768578143
738540.46231707476545125246,10.9028138065737,-2.49259926145207,-298.493377483444
738540.46231716510374099016,10.9305093539232,-2.48336741233558,-298.548768578143
738540.46231725555844604969,10.9212775048067,-2.50183111056856,-298.53030487991
738540.46231734601315110922,10.9397412030396,-2.48336741233558,-298.428754539628
738540.46231743646785616875,10.9305093539232,-2.48336741233558,-298.456450086978
738540.46231752692256122828,10.9397412030396,-2.49259926145207,-298.474913785211
738540.46231761737726628780,10.8751182592242,-2.51106295968505,-298.456450086978
738540.46231770771555602551,10.8658864101077,-2.52029480880154,-298.493377483444
738540.46231779817026108503,10.8474227118748,-2.52952665791803,-298.539536729026
738540.46231788862496614456,10.8012634662923,-2.56645405438398,-298.539536729026
738540.46231797907967120409,10.7643360698263,-2.56645405438398,-298.548768578143
738540.46231806953437626362,10.7735679189428,-2.59414960173345,-298.567232276376
738540.46231815998908132315,10.7274086733604,-2.60338145084994,-298.558000427259
738540.46231825032737106085,10.7458723715934,-2.62184514908292,-298.484145634327
738540.46231834078207612038,10.7366405224769,-2.61261329996643,-298.558000427259
738540.46231843123678117990,10.7274086733604,-2.63107699819941,-298.576464125492
738540.46231852169148623943,10.7366405224769,-2.63107699819941,-298.576464125492
738540.46231861214619129896,10.6997131260109,-2.6403088473159,-298.539536729026
738540.46231870260089635849,10.7274086733604,-2.62184514908292,-298.576464125492
738540.46231879305560141802,10.6997131260109,-2.6403088473159,-298.558000427259
738540.46231888339389115572,10.6997131260109,-2.65877254554888,-298.53030487991
738540.46231897384859621525,10.6997131260109,-2.6403088473159,-298.521073030793
738540.46231906430330127478,10.7274086733604,-2.6403088473159,-298.53030487991
738540.46231915475800633430,10.6904812768944,-2.6403088473159,-298.539536729026
738540.46231924521271139383,10.7089449751274,-2.66800439466536,-298.539536729026
738540.46231933566741645336,10.6904812768944,-2.63107699819941,-298.521073030793
738540.46231942600570619106,10.7274086733604,-2.6403088473159,-298.493377483444
738540.46231951646041125059,10.6997131260109,-2.6403088473159,-298.548768578143
738540.46231960691511631012,10.7089449751274,-2.64954069643239,-298.521073030793
738540.46231969736982136965,10.7089449751274,-2.63107699819941,-298.50260933256
738540.46231978782452642918,10.7181768242439,-2.6403088473159,-298.484145634327
738540.46231987827923148870,10.7181768242439,-2.62184514908292,-298.521073030793
738540.46231996861752122641,10.7274086733604,-2.6403088473159,-298.50260933256
738540.46232005907222628593,10.6997131260109,-2.63107699819941,-298.34566789758
738540.46232014952693134546,10.7181768242439,-2.64954069643239,-298.382595294046
738540.46232023998163640499,10.7366405224769,-2.62184514908292,-298.474913785211
738540.46232033043634146452,10.7089449751274,-2.64954069643239,-298.548768578143
738540.46232042089104652405,10.7181768242439,-2.64954069643239,-298.567232276376
738540.46232051122933626175,10.6997131260109,-2.6403088473159,-298.548768578143
738540.46232060168404132128,10.7089449751274,-2.67723624378185,-298.484145634327
738540.46232069213874638081,10.6812494277779,-2.6403088473159,-298.493377483444
738540.46232078259345144033,10.6904812768944,-2.64954069643239,-298.50260933256
738540.46232087304815649986,10.6720175786615,-2.6403088473159,-298.493377483444
738540.46232096350286155939,10.7089449751274,-2.66800439466536,-298.493377483444
738540.46232105384115129709,10.6812494277779,-2.64954069643239,-298.567232276376
738540.46232114429585635662,10.7089449751274,-2.65877254554888,-298.622623371075
738540.46232123475056141615,10.7089449751274,-2.64954069643239,-298.53030487991
738540.46232132520526647568,10.7089449751274,-2.65877254554888,-298.567232276376
738540.46232141565997153521,10.6904812768944,-2.65877254554888,-298.585695974609
738540.46232150611467659473,10.6997131260109,-2.66800439466536,-298.548768578143
738540.46232159645296633244,10.7089449751274,-2.6403088473159,-298.585695974609
738540.46232168690767139196,10.6904812768944,-2.65877254554888,-298.576464125492
738540.46232177736237645149,10.6904812768944,-2.64954069643239,-298.585695974609
738540.46232186781708151102,10.6812494277779,-2.65877254554888,-298.558000427259
738540.46232195827178657055,10.6812494277779,-2.65877254554888,-298.613391521958
738540.46232204872649163008,10.6720175786615,-2.65877254554888,-298.594927823725
738540.46232213918119668961,10.6997131260109,-2.65877254554888,-298.576464125492
738540.46232222951948642731,10.6720175786615,-2.64954069643239,-298.604159672842
738540.46232231997419148684,10.6904812768944,-2.66800439466536,-298.613391521958
738540.46232241042889654636,10.6812494277779,-2.64954069643239,-298.604159672842
738540.46232250088360160589,10.6812494277779,-2.66800439466536,-298.576464125492
738540.46232259133830666542,10.6812494277779,-2.66800439466536,-298.585695974609
738540.46232268179301172495,10.7181768242439,-2.64954069643239,-298.558000427259
738540.46232277213130146265,10.6997131260109,-2.66800439466536,-298.539536729026
738540.46232286258600652218,10.6997131260109,-2.67723624378185,-298.567232276376
738540.46232295304071158171,10.7089449751274,-2.64954069643239,-298.567232276376
738540.46232304349541664124,10.6904812768944,-2.65877254554888,-298.53030487991
738540.46232313395012170076,10.6997131260109,-2.65877254554888,-298.548768578143
738540.46232322440482676029,10.6997131260109,-2.65877254554888,-298.548768578143
738540.46232331474311649799,10.7274086733604,-2.64954069643239,-298.539536729026
738540.46232340519782155752,10.7274086733604,-2.64954069643239,-298.521073030793
738540.46232349565252661705,10.7458723715934,-2.65877254554888,-298.521073030793
738540.46232358610723167658,10.7827997680593,-2.61261329996643,-298.354899746696
738540.46232367656193673611,10.8012634662923,-2.61261329996643,-298.437986388745
738540.46232376701664179564,10.7827997680593,-2.61261329996643,-298.484145634327
738540.46232385735493153334,10.8012634662923,-2.63107699819941,-298.539536729026
738540.46232394780963659286,10.7735679189428,-2.62184514908292,-298.576464125492
738540.46232403826434165239,10.7458723715934,-2.62184514908292,-298.585695974609
738540.46232412871904671192,10.7551042207099,-2.60338145084994,-298.493377483444
738540.46232421917375177145,10.7089449751274,-2.63107699819941,-298.539536729026
738540.46232430962845683098,10.6904812768944,-2.63107699819941,-298.576464125492
738540.46232439996674656868,10.6812494277779,-2.64954069643239,-298.53030487991
738540.46232449042145162821,10.6997131260109,-2.64954069643239,-298.539536729026
738540.46232458087615668774,10.6812494277779,-2.66800439466536,-298.567232276376
738540.46232467133086174726,10.6812494277779,-2.66800439466536,-298.548768578143
738540.46232476178556680679,10.6720175786615,-2.65877254554888,-298.50260933256
738540.46232485224027186632,10.6720175786615,-2.67723624378185,-298.548768578143
738540.46232494257856160402,10.625858333079,-2.67723624378185,-298.53030487991
738540.46232503303326666355,10.6812494277779,-2.67723624378185,-298.465681936094
738540.46232512348797172308,10.7643360698263,-2.56645405438398,-298.493377483444
738540.46232521394267678261,11.041291543321,-2.43720816675314,-298.419522690512
738540.46232530439738184214,11.3828699606311,-2.28026673177282,-298.437986388745
738540.46232539485208690166,11.4197973570971,-2.27103488265633,-298.437986388745
738540.46232548530679196119,10.9212775048067,-2.65877254554888,-298.511841181677
738540.46232557564508169889,10.4596850489822,-2.86187322611164,-298.567232276376
738540.46232566609978675842,10.2565843684194,-2.76032288583026,-298.558000427259
738540.46232575655449181795,10.247352519303,-2.7233954893643,-298.558000427259
738540.46232584700919687748,10.3212073122349,-2.66800439466536,-298.539536729026
738540.46232593746390193701,10.4042939542833,-2.66800439466536,-298.50260933256
738540.46232602791860699654,10.5612353892636,-2.68646809289834,-298.493377483444
738540.46232611825689673424,10.5981627857295,-2.66800439466536,-298.493377483444
738540.46232620871160179377,10.6812494277779,-2.64954069643239,-298.493377483444
738540.46232629916630685329,10.6812494277779,-2.64954069643239,-298.50260933256
738540.46232638962101191282,10.7089449751274,-2.65877254554888,-298.539536729026
738540.46232648007571697235,10.6904812768944,-2.6403088473159,-298.50260933256
738540.46232657053042203188,10.7089449751274,-2.65877254554888,-298.539536729026
738540.46232666086871176958,10.7089449751274,-2.63107699819941,-298.53030487991
738540.46232675132341682911,10.7366405224769,-2.64954069643239,-298.50260933256
738540.46232684177812188864,10.7274086733604,-2.63107699819941,-298.53030487991
738540.46232693223282694817,10.7274086733604,-2.64954069643239,-298.53030487991
738540.46232702268753200769,10.7366405224769,-2.62184514908292,-298.511841181677
738540.46232711314223706722,10.7274086733604,-2.6403088473159,-298.382595294046
738540.46232720348052680492,10.7366405224769,-2.61261329996643,-298.456450086978
738540.46232729393523186445,10.7458723715934,-2.63107699819941,-298.53030487991
738540.46232738438993692398,10.7643360698263,-2.60338145084994,-298.493377483444
738540.46232747484464198351,10.8012634662923,-2.59414960173345,-298.53030487991
738540.46232756529934704304,10.8012634662923,-2.57568590350047,-298.465681936094
738540.46232765575405210257,10.8197271645253,-2.57568590350047,-298.391827143162
738540.46232774609234184027,10.8474227118748,-2.56645405438398,-298.447218237861
738540.46232783654704689980,10.8474227118748,-2.54799035615101,-298.474913785211
738540.46232792700175195932,10.8751182592242,-2.55722220526749,-298.50260933256
738540.46232801745645701885,10.8751182592242,-2.51106295968505,-298.50260933256
738540.46232810791116207838,10.9028138065737,-2.52029480880154,-298.493377483444
738540.46232819836586713791,10.9120456556902,-2.49259926145207,-298.493377483444
738540.46232828870415687561,10.9212775048067,-2.48336741233558,-298.50260933256
738540.46232837915886193514,10.9489730521561,-2.47413556321909,-298.465681936094
738540.46232846961356699467,10.9489730521561,-2.49259926145207,-298.493377483444
738540.46232856006827205420,10.9489730521561,-2.4649037141026,-298.493377483444
738540.46232865052297711372,10.9489730521561,-2.4649037141026,-298.456450086978
738540.46232874097768217325,10.9212775048067,-2.4649037141026,-298.447218237861
738540.46232883143238723278,10.8935819574572,-2.50183111056856,-298.465681936094
738540.46232892177067697048,10.8843501083407,-2.51106295968505,-298.474913785211
738540.46232901222538203001,10.8381908627583,-2.52952665791803,-298.456450086978
738540.46232910268008708954,10.8197271645253,-2.55722220526749,-298.484145634327
738540.46232919313479214907,10.8012634662923,-2.57568590350047,-298.484145634327
738540.46232928358949720860,10.7735679189428,-2.59414960173345,-298.511841181677
738540.46232937404420226812,10.7551042207099,-2.60338145084994,-298.493377483444
738540.46232946438249200583,10.7366405224769,-2.62184514908292,-298.474913785211
738540.46232955483719706535,10.7366405224769,-2.60338145084994,-298.539536729026
738540.46232964529190212488,10.7366405224769,-2.62184514908292,-298.567232276376
738540.46232973574660718441,10.7366405224769,-2.61261329996643,-298.558000427259
738540.46232982620131224394,10.7274086733604,-2.61261329996643,-298.511841181677
738540.46232991665601730347,10.7089449751274,-2.64954069643239,-298.539536729026
738540.46233000699430704117,10.6997131260109,-2.63107699819941,-298.548768578143
738540.46233009744901210070,10.7181768242439,-2.63107699819941,-298.567232276376
738540.46233018790371716022,10.6904812768944,-2.64954069643239,-298.521073030793
738540.46233027835842221975,10.7181768242439,-2.6403088473159,-298.558000427259
738540.46233036881312727928,10.7181768242439,-2.62184514908292,-298.548768578143
738540.46233045926783233881,10.7181768242439,-2.64954069643239,-298.53030487991
738540.46233054960612207651,10.6997131260109,-2.6403088473159,-298.493377483444
738540.46233064006082713604,10.7274086733604,-2.64954069643239,-298.373363444929
738540.46233073051553219557,10.7089449751274,-2.62184514908292,-298.391827143162
738540.46233082097023725510,10.7274086733604,-2.65877254554888,-298.484145634327
738540.46233091142494231462,10.7366405224769,-2.62184514908292,-298.493377483444
738540.46233100187964737415,10.7274086733604,-2.64954069643239,-298.521073030793
738540.46233109221793711185,10.7181768242439,-2.6403088473159,-298.539536729026
738540.46233118267264217138,10.7366405224769,-2.6403088473159,-298.53030487991
738540.46233127312734723091,10.7089449751274,-2.63107699819941,-298.474913785211
738540.46233136358205229044,10.7089449751274,-2.64954069643239,-298.493377483444
738540.46233145403675734997,10.6997131260109,-2.6403088473159,-298.493377483444
738540.46233154449146240950,10.7089449751274,-2.6403088473159,-298.484145634327
738540.46233163494616746902,10.7181768242439,-2.6403088473159,-298.50260933256
738540.46233172528445720673,10.7089449751274,-2.63107699819941,-298.474913785211
738540.46233181573916226625,10.6997131260109,-2.64954069643239,-298.484145634327
738540.46233190619386732578,10.6812494277779,-2.63107699819941,-298.50260933256
738540.46233199664857238531,10.6904812768944,-2.64954069643239,-298.539536729026
738540.46233208710327744484,10.6812494277779,-2.6403088473159,-298.521073030793
738540.46233217755798250437,10.6997131260109,-2.65877254554888,-298.539536729026
738540.46233226789627224207,10.6812494277779,-2.6403088473159,-298.539536729026
738540.46233235835097730160,10.6904812768944,-2.66800439466536,-298.558000427259
738540.46233244880568236113,10.6812494277779,-2.6403088473159,-298.53030487991
738540.46233253926038742065,10.6997131260109,-2.66800439466536,-298.53030487991
738540.46233262971509248018,10.6812494277779,-2.6403088473159,-298.50260933256
738540.46233272016979753971,10.6904812768944,-2.65877254554888,-298.50260933256
738540.46233281050808727741,10.6720175786615,-2.6403088473159,-298.511841181677
738540.46233290096279233694,10.6997131260109,-2.66800439466536,-298.53030487991
738540.46233299141749739647,10.6904812768944,-2.64954069643239,-298.567232276376
738540.46233308187220245600,10.6997131260109,-2.65877254554888,-298.548768578143
738540.46233317232690751553,10.6904812768944,-2.6403088473159,-298.53030487991
738540.46233326278161257505,10.6904812768944,-2.64954069643239,-298.511841181677
738540.46233335311990231276,10.6904812768944,-2.64954069643239,-298.521073030793
738540.46233344357460737228,10.6904812768944,-2.64954069643239,-298.53030487991
738540.46233353402931243181,10.6812494277779,-2.66800439466536,-298.521073030793
738540.46233362448401749134,10.6720175786615,-2.6403088473159,-298.548768578143
738540.46233371493872255087,10.6812494277779,-2.64954069643239,-298.576464125492
738540.46233380539342761040,10.662785729545,-2.6403088473159,-298.493377483444
738540.46233389573171734810,10.6720175786615,-2.65877254554888,-298.567232276376
738540.46233398618642240763,10.6812494277779,-2.64954069643239,-298.576464125492
738540.46233407664112746716,10.662785729545,-2.66800439466536,-298.493377483444
738540.46233416709583252668,10.6904812768944,-2.6403088473159,-298.447218237861
738540.46233425755053758621,10.6720175786615,-2.65877254554888,-298.456450086978
738540.46233434800524264574,10.6812494277779,-2.65877254554888,-298.576464125492
738540.46233443834353238344,10.6997131260109,-2.66800439466536,-298.53030487991
738540.46233452879823744297,10.7089449751274,-2.6403088473159,-298.567232276376
738540.46233461925294250250,10.7274086733604,-2.63107699819941,-298.548768578143
738540.46233470970764756203,10.7827997680593,-2.59414960173345,-298.474913785211
738540.46233480016235262156,10.8012634662923,-2.57568590350047,-298.548768578143
738540.46233489061705768108,10.8289590136418,-2.57568590350047,-298.576464125492
738540.46233498107176274061,10.7827997680593,-2.60338145084994,-298.539536729026
738540.46233507141005247831,10.7643360698263,-2.59414960173345,-298.53030487991
738540.46233516186475753784,10.7274086733604,-2.59414960173345,-298.585695974609
738540.46233525231946259737,10.7274086733604,-2.61261329996643,-298.548768578143
738540.46233534277416765690,10.7089449751274,-2.60338145084994,-298.50260933256
738540.46233543322887271643,10.6904812768944,-2.62184514908292,-298.567232276376
738540.46233552368357777596,10.6535538804285,-2.6403088473159,-298.576464125492
738540.46233561402186751366,10.644322031312,-2.65877254554888,-298.585695974609
738540.46233570447657257318,10.6350901821955,-2.64954069643239,-298.511841181677
738540.46233579493127763271,10.6350901821955,-2.65877254554888,-298.548768578143
738540.46233588538598269224,10.6350901821955,-2.65877254554888,-298.576464125492
738540.46233597584068775177,10.6535538804285,-2.64954069643239,-298.521073030793
738540.46233606629539281130,10.6535538804285,-2.64954069643239,-298.50260933256
738540.46233615663368254900,10.6720175786615,-2.62184514908292,-298.539536729026
738540.46233624708838760853,10.7089449751274,-2.52952665791803,-298.53030487991
738540.46233633754309266806,10.9489730521561,-2.39104892117069,-298.484145634327
738540.46233642799779772758,11.2720877712333,-2.28949858088931,-298.428754539628
738540.46233651845250278711,11.2720877712333,-2.2156437879574,-298.456450086978
738540.46233660890720784664,10.9120456556902,-2.6403088473159,-298.548768578143
738540.46233669924549758434,10.4596850489822,-2.8895687734611,-298.539536729026
738540.46233678970020264387,10.3304391613514,-2.76955473494675,-298.576464125492
738540.46233688015490770340,10.2750480666524,-2.71416364024781,-298.576464125492
738540.46233697060961276293,10.2842799157689,-2.68646809289834,-298.511841181677
738540.46233706106431782246,10.3765984069338,-2.65877254554888,-298.493377483444
738540.46233715151902288198,10.4966124454482,-2.66800439466536,-298.548768578143
738540.46233724185731261969,10.5427716910306,-2.6403088473159,-298.567232276376
738540.46233733231201767921,10.5612353892636,-2.64954069643239,-298.548768578143
738540.46233742276672273874,10.644322031312,-2.6403088473159,-298.53030487991
738540.46233751322142779827,10.6350901821955,-2.6403088473159,-298.567232276376
738540.46233760367613285780,10.6535538804285,-2.63107699819941,-298.567232276376
738540.46233769413083791733,10.644322031312,-2.62184514908292,-298.382595294046
738540.46233778446912765503,10.6904812768944,-2.6403088473159,-298.428754539628
738540.46233787492383271456,10.662785729545,-2.62184514908292,-298.548768578143
738540.46233796537853777409,10.7089449751274,-2.61261329996643,-298.548768578143
738540.46233805583324283361,10.6904812768944,-2.60338145084994,-298.53030487991
738540.46233814628794789314,10.7089449751274,-2.63107699819941,-298.585695974609
738540.46233823674265295267,10.6997131260109,-2.59414960173345,-298.576464125492
738540.46233832719735801220,10.7181768242439,-2.61261329996643,-298.521073030793
738540.46233841753564774990,10.7089449751274,-2.58491775261696,-298.539536729026
738540.46233850799035280943,10.7643360698263,-2.56645405438398,-298.53030487991
738540.46233859844505786896,10.8566545609912,-2.43720816675314,-298.511841181677
738540.46233868889976292849,10.8289590136418,-2.51106295968505,-298.511841181677
738540.46233877935446798801,10.8197271645253,-2.51106295968505,-298.474913785211
738540.46233886980917304754,10.8381908627583,-2.52029480880154,-298.465681936094
738540.46233896014746278524,10.8289590136418,-2.50183111056856,-298.456450086978
738540.46233905060216784477,10.8658864101077,-2.51106295968505,-298.474913785211
738540.46233914105687290430,10.8935819574572,-2.50183111056856,-298.456450086978
738540.46233923151157796383,10.8751182592242,-2.47413556321909,-298.521073030793
738540.46233932196628302336,10.8935819574572,-2.49259926145207,-298.493377483444
738540.46233941242098808289,10.9028138065737,-2.45567186498611,-298.521073030793
738540.46233950275927782059,10.9305093539232,-2.47413556321909,-298.511841181677
738540.46233959321398288012,10.9028138065737,-2.44644001586962,-298.493377483444
738540.46233968366868793964,10.9120456556902,-2.4649037141026,-298.521073030793
738540.46233977412339299917,10.9212775048067,-2.45567186498611,-298.511841181677
738540.46233986457809805870,10.8935819574572,-2.48336741233558,-298.50260933256
738540.46233995503280311823,10.8658864101077,-2.47413556321909,-298.521073030793
738540.46234004537109285593,10.8289590136418,-2.52029480880154,-298.511841181677
738540.46234013582579791546,10.8012634662923,-2.52029480880154,-298.521073030793
738540.46234022628050297499,10.7827997680593,-2.54799035615101,-298.511841181677
738540.46234031673520803452,10.7458723715934,-2.55722220526749,-298.53030487991
738540.46234040718991309404,10.7366405224769,-2.55722220526749,-298.539536729026
738540.46234049764461815357,10.7458723715934,-2.54799035615101,-298.474913785211
738540.46234058798290789127,10.7181768242439,-2.58491775261696,-298.53030487991
738540.46234067843761295080,10.7366405224769,-2.61261329996643,-298.53030487991
738540.46234076889231801033,10.6904812768944,-2.61261329996643,-298.50260933256
738540.46234085934702306986,10.6997131260109,-2.61261329996643,-298.511841181677
738540.46234094980172812939,10.6812494277779,-2.62184514908292,-298.493377483444
738540.46234104025643318892,10.6812494277779,-2.62184514908292,-298.493377483444
738540.46234113059472292662,10.6812494277779,-2.58491775261696,-298.484145634327
738540.46234122104942798615,10.6812494277779,-2.61261329996643,-298.474913785211
738540.46234131150413304567,10.6997131260109,-2.59414960173345,-298.419522690512
738540.46234140195883810520,10.6812494277779,-2.63107699819941,-298.493377483444
738540.46234149241354316473,10.6904812768944,-2.59414960173345,-298.548768578143
738540.46234158286824822426,10.6812494277779,-2.61261329996643,-298.493377483444
738540.46234167332295328379,10.6997131260109,-2.61261329996643,-298.558000427259
738540.46234176366124302149,10.7089449751274,-2.60338145084994,-298.511841181677
738540.46234185411594808102,10.7274086733604,-2.59414960173345,-298.521073030793
738540.46234194457065314054,10.7181768242439,-2.59414960173345,-298.474913785211
738540.46234203502535820007,10.7181768242439,-2.59414960173345,-298.484145634327
738540.46234212548006325960,10.6997131260109,-2.60338145084994,-298.548768578143
738540.46234221593476831913,10.6997131260109,-2.59414960173345,-298.585695974609
738540.46234230627305805683,10.6904812768944,-2.60338145084994,-298.594927823725
738540.46234239672776311636,10.6904812768944,-2.61261329996643,-298.521073030793
738540.46234248718246817589,10.6720175786615,-2.61261329996643,-298.558000427259
738540.46234257763717323542,10.6720175786615,-2.63107699819941,-298.558000427259
738540.46234266809187829494,10.6812494277779,-2.60338145084994,-298.576464125492
738540.46234275854658335447,10.6997131260109,-2.62184514908292,-298.567232276376
738540.46234284888487309217,10.662785729545,-2.60338145084994,-298.576464125492
738540.46234293933957815170,10.6720175786615,-2.62184514908292,-298.493377483444
738540.46234302979428321123,10.6812494277779,-2.63107699819941,-298.465681936094
738540.46234312024898827076,10.662785729545,-2.62184514908292,-298.493377483444
738540.46234321070369333029,10.6904812768944,-2.61261329996643,-298.493377483444
738540.46234330115839838982,10.6904812768944,-2.61261329996643,-298.493377483444
738540.46234339149668812752,10.6812494277779,-2.63107699819941,-298.521073030793
738540.46234348195139318705,10.6812494277779,-2.62184514908292,-298.585695974609
738540.46234357240609824657,10.6720175786615,-2.63107699819941,-298.594927823725
738540.46234366286080330610,10.644322031312,-2.63107699819941,-298.511841181677
738540.46234375331550836563,10.6812494277779,-2.63107699819941,-298.548768578143
738540.46234384377021342516,10.6720175786615,-2.62184514908292,-298.604159672842
738540.46234393410850316286,10.6812494277779,-2.63107699819941,-298.53030487991
738540.46234402456320822239,10.6535538804285,-2.63107699819941,-298.567232276376
738540.46234411501791328192,10.6904812768944,-2.63107699819941,-298.594927823725
738540.46234420547261834145,10.6720175786615,-2.60338145084994,-298.567232276376
738540.46234429592732340097,10.6904812768944,-2.62184514908292,-298.53030487991
738540.46234438638202846050,10.662785729545,-2.62184514908292,-298.567232276376
738540.46234447683673352003,10.6720175786615,-2.63107699819941,-298.604159672842
738540.46234456717502325773,10.644322031312,-2.63107699819941,-298.50260933256
738540.46234465762972831726,10.6535538804285,-2.64954069643239,-298.576464125492
738540.46234474808443337679,10.7181768242439,-2.60338145084994,-298.539536729026
738540.46234483853913843632,10.7089449751274,-2.61261329996643,-298.428754539628
738540.46234492899384349585,10.7366405224769,-2.62184514908292,-298.53030487991
738540.46234501944854855537,10.7089449751274,-2.60338145084994,-298.539536729026
738540.46234510978683829308,10.6904812768944,-2.62184514908292,-298.594927823725
738540.46234520024154335260,10.6720175786615,-2.60338145084994,-298.493377483444
738540.46234529069624841213,10.6904812768944,-2.62184514908292,-298.567232276376
738540.46234538115095347166,10.6812494277779,-2.60338145084994,-298.585695974609
738540.46234547160565853119,10.6997131260109,-2.62184514908292,-298.511841181677
738540.46234556206036359072,10.7181768242439,-2.60338145084994,-298.548768578143
738540.46234565239865332842,10.7274086733604,-2.62184514908292,-298.548768578143
738540.46234574285335838795,10.7366405224769,-2.59414960173345,-298.539536729026
738540.46234583330806344748,10.7643360698263,-2.60338145084994,-298.511841181677
738540.46234592376276850700,10.7920316171758,-2.57568590350047,-298.539536729026
738540.46234601421747356653,10.7920316171758,-2.57568590350047,-298.493377483444
738540.46234610467217862606,10.7827997680593,-2.58491775261696,-298.511841181677
738540.46234619501046836376,10.7643360698263,-2.60338145084994,-298.511841181677
738540.46234628546517342329,10.7458723715934,-2.56645405438398,-298.539536729026
738540.46234637591987848282,10.7274086733604,-2.58491775261696,-298.474913785211
738540.46234646637458354235,10.7089449751274,-2.59414960173345,-298.493377483444
738540.46234655682928860188,10.6997131260109,-2.60338145084994,-298.548768578143
738540.46234664728399366140,10.6812494277779,-2.62184514908292,-298.558000427259
738540.46234673762228339911,10.662785729545,-2.62184514908292,-298.622623371075
738540.46234682807698845863,10.662785729545,-2.64954069643239,-298.548768578143
738540.46234691853169351816,10.662785729545,-2.62184514908292,-298.585695974609
738540.46234700898639857769,10.6535538804285,-2.6403088473159,-298.604159672842
738540.46234709944110363722,10.662785729545,-2.6403088473159,-298.539536729026
738540.46234718989580869675,10.644322031312,-2.64954069643239,-298.604159672842
738540.46234728023409843445,10.644322031312,-2.63107699819941,-298.548768578143
738540.46234737068880349398,10.7366405224769,-2.55722220526749,-298.50260933256
738540.46234746114350855350,10.9305093539232,-2.42797631763665,-298.50260933256
738540.46234755159821361303,11.2905514694662,-2.32642597735527,-298.456450086978
738540.46234764205291867256,11.456724753563,-2.20641193884091,-298.401058992279
738540.46234773250762373209,11.041291543321,-2.52029480880154,-298.511841181677
738540.46234782296232879162,10.5612353892636,-2.84340952787866,-298.585695974609
738540.46234791330061852932,10.3212073122349,-2.74185918759728,-298.539536729026
738540.46234800375532358885,10.2750480666524,-2.69569994201483,-298.511841181677
738540.46234809421002864838,10.2750480666524,-2.64954069643239,-298.50260933256
738540.46234818466473370790,10.4042939542833,-2.63107699819941,-298.484145634327
738540.46234827511943876743,10.5243079927976,-2.63107699819941,-298.336436048463
738540.46234836557414382696,10.607394634846,-2.62184514908292,-298.465681936094
738540.46234845591243356466,10.625858333079,-2.62184514908292,-298.474913785211
738540.46234854636713862419,10.662785729545,-2.63107699819941,-298.456450086978
738540.46234863682184368372,10.662785729545,-2.61261329996643,-298.484145634327
738540.46234872727654874325,10.662785729545,-2.63107699819941,-298.493377483444
738540.46234881773125380278,10.6812494277779,-2.62184514908292,-298.53030487991
738540.46234890818595886230,10.6997131260109,-2.60338145084994,-298.493377483444
738540.46234899852424860001,10.6904812768944,-2.61261329996643,-298.521073030793
738540.46234908897895365953,10.6812494277779,-2.62184514908292,-298.539536729026
738540.46234917943365871906,10.7274086733604,-2.61261329996643,-298.548768578143
738540.46234926988836377859,10.7181768242439,-2.61261329996643,-298.511841181677
738540.46234936034306883812,10.7366405224769,-2.62184514908292,-298.521073030793
738540.46234945079777389765,10.7458723715934,-2.59414960173345,-298.521073030793
738540.46234954113606363535,10.7458723715934,-2.61261329996643,-298.493377483444
738540.46234963159076869488,10.7458723715934,-2.59414960173345,-298.50260933256
738540.46234972204547375441,10.7735679189428,-2.57568590350047,-298.539536729026
738540.46234981250017881393,10.7735679189428,-2.57568590350047,-298.539536729026
738540.46234990295488387346,10.8197271645253,-2.56645405438398,-298.567232276376
738540.46234999340958893299,10.8197271645253,-2.52952665791803,-298.521073030793
738540.46235008374787867069,10.8566545609912,-2.52952665791803,-298.511841181677
738540.46235017420258373022,10.8658864101077,-2.50183111056856,-298.576464125492
738540.46235026465728878975,10.9120456556902,-2.50183111056856,-298.567232276376
738540.46235035511199384928,10.9120456556902,-2.47413556321909,-298.493377483444
738540.46235044556669890881,10.9028138065737,-2.48336741233558,-298.493377483444
738540.46235053602140396833,10.9305093539232,-2.47413556321909,-298.539536729026
738540.46235062635969370604,10.9120456556902,-2.45567186498611,-298.558000427259
738540.46235071681439876556,10.9212775048067,-2.47413556321909,-298.465681936094
738540.46235080726910382509,10.9305093539232,-2.4649037141026,-298.548768578143
738540.46235089772380888462,10.9212775048067,-2.48336741233558,-298.567232276376
738540.46235098817851394415,10.9028138065737,-2.4649037141026,-298.50260933256
738540.46235107863321900368,10.8935819574572,-2.49259926145207,-298.539536729026
738540.46235116908792406321,10.8474227118748,-2.50183111056856,-298.576464125492
738540.46235125942621380091,10.8381908627583,-2.53875850703452,-298.548768578143
738540.46235134988091886044,10.7735679189428,-2.54799035615101,-298.539536729026
738540.46235144033562391996,10.7920316171758,-2.58491775261696,-298.567232276376
738540.46235153079032897949,10.7827997680593,-2.54799035615101,-298.576464125492
738540.46235162124503403902,10.7643360698263,-2.60338145084994,-298.539536729026
738540.46235171169973909855,10.7089449751274,-2.58491775261696,-298.585695974609
738540.46235180203802883625,10.7366405224769,-2.61261329996643,-298.410290841395
738540.46235189249273389578,10.7274086733604,-2.62184514908292,-298.465681936094
738540.46235198294743895531,10.7458723715934,-2.6403088473159,-298.567232276376
738540.46235207340214401484,10.7274086733604,-2.6403088473159,-298.558000427259
738540.46235216385684907436,10.7735679189428,-2.59414960173345,-298.558000427259
738540.46235225431155413389,10.7920316171758,-2.56645405438398,-298.558000427259
738540.46235234464984387159,10.7827997680593,-2.55722220526749,-298.558000427259
738540.46235243510454893112,10.7920316171758,-2.57568590350047,-298.576464125492
738540.46235252555925399065,10.7274086733604,-2.58491775261696,-298.521073030793
738540.46235261601395905018,10.7089449751274,-2.63107699819941,-298.539536729026
738540.46235270646866410971,10.6997131260109,-2.63107699819941,-298.558000427259
738540.46235279692336916924,10.7089449751274,-2.64954069643239,-298.511841181677
738540.46235288726165890694,10.7274086733604,-2.61261329996643,-298.474913785211
738540.46235297771636396646,10.7274086733604,-2.63107699819941,-298.447218237861
738540.46235306817106902599,10.7274086733604,-2.61261329996643,-298.474913785211
738540.46235315862577408552,10.7458723715934,-2.60338145084994,-298.484145634327
738540.46235324908047914505,10.7551042207099,-2.58491775261696,-298.484145634327
738540.46235333953518420458,10.7643360698263,-2.59414960173345,-298.437986388745
738540.46235342987347394228,10.7827997680593,-2.59414960173345,-298.484145634327
738540.46235352032817900181,10.7735679189428,-2.60338145084994,-298.493377483444
738540.46235361078288406134,10.7458723715934,-2.61261329996643,-298.465681936094
738540.46235370123758912086,10.7366405224769,-2.60338145084994,-298.539536729026
738540.46235379169229418039,10.7366405224769,-2.61261329996643,-298.539536729026
738540.46235388214699923992,10.7181768242439,-2.61261329996643,-298.567232276376
738540.46235397248528897762,10.7458723715934,-2.62184514908292,-298.539536729026
738540.46235406293999403715,10.6904812768944,-2.62184514908292,-298.493377483444
738540.46235415339469909668,10.7274086733604,-2.61261329996643,-298.493377483444
738540.46235424384940415621,10.7181768242439,-2.61261329996643,-298.428754539628
738540.46235433430410921574,10.7181768242439,-2.62184514908292,-298.465681936094
738540.46235442475881427526,10.6997131260109,-2.62184514908292,-298.493377483444
738540.46235451521351933479,10.7181768242439,-2.62184514908292,-298.53030487991
738540.46235460555180907249,10.7181768242439,-2.62184514908292,-298.558000427259
738540.46235469600651413202,10.6997131260109,-2.63107699819941,-298.484145634327
738540.46235478646121919155,10.7181768242439,-2.63107699819941,-298.493377483444
738540.46235487691592425108,10.6997131260109,-2.62184514908292,-298.50260933256
738540.46235496737062931061,10.6997131260109,-2.63107699819941,-298.511841181677
738540.46235505782533437014,10.6904812768944,-2.63107699819941,-298.511841181677
738540.46235514816362410784,10.6997131260109,-2.6403088473159,-298.594927823725
738540.46235523861832916737,10.6904812768944,-2.64954069643239,-298.558000427259
738540.46235532907303422689,10.7089449751274,-2.64954069643239,-298.437986388745
738540.46235541952773928642,10.7089449751274,-2.6403088473159,-298.493377483444
