time_dn,ecg_projection_ll_ra_mV,ecg_projection_la_ra_mV,ecg_projection_vx_rl_mV
738540.48417245096061378717,8.84411145359661,-2.60338145084994,-298.567232276376
738540.48417254141531884670,8.89027069917905,-2.59414960173345,-298.53030487991
738540.48417263187002390623,8.86257515182958,-2.66800439466536,-298.594927823725
738540.48417272220831364393,8.90873439741203,-2.64954069643239,-298.558000427259
738540.48417281266301870346,8.94566179387799,-2.60338145084994,-298.53030487991
738540.48417290311772376299,8.9364299447615,-2.60338145084994,-298.558000427259
738540.48417299357242882252,8.94566179387799,-2.62184514908292,-298.622623371075
738540.48417308402713388205,8.94566179387799,-2.61261329996643,-298.585695974609
738540.48417317448183894157,8.97335734122745,-2.59414960173345,-298.558000427259
738540.48417326482012867928,9.00105288857692,-2.55722220526749,-298.604159672842
738540.48417335527483373880,9.03798028504288,-2.52029480880154,-298.521073030793
738540.48417344572953879833,8.99182103946043,-2.59414960173345,-298.428754539628
738540.48417353618424385786,8.95489364299448,-2.6403088473159,-298.594927823725
738540.48417362663894891739,8.99182103946043,-2.58491775261696,-298.613391521958
738540.48417371697723865509,8.98258919034394,-2.58491775261696,-298.539536729026
738540.48417380743194371462,9.0195165868099,-2.56645405438398,-298.585695974609
738540.48417389788664877415,9.05644398327586,-2.53875850703452,-298.558000427259
738540.48417398834135383368,9.03798028504288,-2.56645405438398,-298.521073030793
738540.48417407879605889320,9.02874843592639,-2.56645405438398,-298.539536729026
738540.48417416925076395273,9.09337137974181,-2.49259926145207,-298.410290841395
738540.48417425958905369043,9.13029877620777,-2.43720816675314,-298.456450086978
738540.48417435004375874996,9.12106692709128,-2.50183111056856,-298.493377483444
738540.48417444049846380949,9.08413953062532,-2.52952665791803,-298.493377483444
738540.48417453095316886902,9.12106692709128,-2.50183111056856,-298.511841181677
738540.48417462140787392855,9.17645802179022,-2.42797631763665,-298.511841181677
738540.48417471174616366625,9.17645802179022,-2.42797631763665,-298.484145634327
738540.48417480220086872578,9.25031281472213,-2.35412152470473,-298.521073030793
738540.48417489265557378531,9.14876247444075,-2.48336741233558,-298.53030487991
738540.48417498311027884483,9.14876247444075,-2.45567186498611,-298.493377483444
738540.48417507356498390436,9.1856898709067,-2.40028077028718,-298.484145634327
738540.48417516401968896389,9.19492172002319,-2.40951261940367,-298.456450086978
738540.48417525435797870159,9.13953062532426,-2.44644001586962,-298.539536729026
738540.48417534481268376112,9.05644398327586,-2.53875850703452,-298.50260933256
738540.48417543526738882065,9.03798028504288,-2.54799035615101,-298.484145634327
738540.48417552572209388018,9.03798028504288,-2.54799035615101,-298.558000427259
738540.48417561617679893970,9.01028473769341,-2.56645405438398,-298.511841181677
738540.48417570663150399923,8.98258919034394,-2.57568590350047,-298.511841181677
738540.48417579696979373693,8.95489364299448,-2.59414960173345,-298.521073030793
738540.48417588742449879646,9.00105288857692,-2.56645405438398,-298.613391521958
738540.48417597787920385599,8.90873439741203,-2.6403088473159,-298.604159672842
738540.48417606833390891552,8.94566179387799,-2.60338145084994,-298.50260933256
738540.48417615878861397505,9.02874843592639,-2.52029480880154,-298.585695974609
738540.48417624912690371275,8.97335734122745,-2.59414960173345,-298.631855220191
738540.48417633958160877228,8.97335734122745,-2.56645405438398,-298.576464125492
738540.48417643003631383181,8.97335734122745,-2.60338145084994,-298.567232276376
738540.48417652049101889133,8.99182103946043,-2.56645405438398,-298.594927823725
738540.48417661094572395086,8.99182103946043,-2.58491775261696,-298.558000427259
738540.48417670140042901039,8.96412549211096,-2.60338145084994,-298.50260933256
738540.48417679173871874809,8.97335734122745,-2.59414960173345,-298.50260933256
738540.48417688219342380762,8.96412549211096,-2.62184514908292,-298.474913785211
738540.48417697264812886715,8.9364299447615,-2.6403088473159,-298.373363444929
738540.48417706310283392668,8.97335734122745,-2.59414960173345,-298.493377483444
738540.48417715355753898621,8.99182103946043,-2.56645405438398,-298.548768578143
738540.48417724389582872391,9.01028473769341,-2.54799035615101,-298.567232276376
738540.48417733435053378344,8.97335734122745,-2.59414960173345,-298.558000427259
738540.48417742480523884296,8.95489364299448,-2.62184514908292,-298.604159672842
738540.48417751525994390249,8.96412549211096,-2.58491775261696,-298.622623371075
738540.48417760571464896202,8.90873439741203,-2.6403088473159,-298.539536729026
738540.48417769616935402155,8.92719809564501,-2.63107699819941,-298.585695974609
738540.48417778650764375925,8.97335734122745,-2.59414960173345,-298.604159672842
738540.48417787696234881878,8.9364299447615,-2.60338145084994,-298.437986388745
738540.48417796741705387831,8.86257515182958,-2.69569994201483,-298.511841181677
738540.48417805787175893784,8.87180700094607,-2.68646809289834,-298.50260933256
738540.48417814832646399736,8.90873439741203,-2.63107699819941,-298.511841181677
738540.48417823866475373507,8.95489364299448,-2.59414960173345,-298.493377483444
738540.48417832911945879459,8.89950254829554,-2.64954069643239,-298.53030487991
738540.48417841957416385412,8.94566179387799,-2.59414960173345,-298.474913785211
738540.48417851002886891365,8.92719809564501,-2.63107699819941,-298.558000427259
738540.48417860048357397318,8.97335734122745,-2.60338145084994,-298.585695974609
738540.48417869093827903271,8.92719809564501,-2.62184514908292,-298.558000427259
738540.48417878127656877041,8.92719809564501,-2.61261329996643,-298.50260933256
738540.48417887173127382994,8.9364299447615,-2.58491775261696,-298.548768578143
738540.48417896218597888947,8.96412549211096,-2.59414960173345,-298.548768578143
738540.48417905264068394899,8.89950254829554,-2.6403088473159,-298.622623371075
738540.48417914309538900852,8.90873439741203,-2.62184514908292,-298.539536729026
738540.48417923355009406805,8.91796624652852,-2.61261329996643,-298.548768578143
738540.48417932388838380575,8.95489364299448,-2.56645405438398,-298.548768578143
738540.48417941434308886528,8.86257515182958,-2.66800439466536,-298.558000427259
738540.48417950479779392481,8.81641590624714,-2.71416364024781,-298.585695974609
738540.48417959525249898434,8.91796624652852,-2.61261329996643,-298.585695974609
738540.48417968570720404387,8.92719809564501,-2.60338145084994,-298.594927823725
738540.48417977604549378157,8.90873439741203,-2.60338145084994,-298.585695974609
738540.48417986650019884109,8.82564775536363,-2.69569994201483,-298.548768578143
738540.48417995695490390062,8.89950254829554,-2.64954069643239,-298.613391521958
738540.48418004740960896015,8.9364299447615,-2.58491775261696,-298.613391521958
738540.48418013786431401968,8.9364299447615,-2.57568590350047,-298.447218237861
738540.48418022831901907921,8.78872035889767,-2.74185918759728,-298.567232276376
738540.48418031865730881691,8.89027069917905,-2.65877254554888,-298.585695974609
738540.48418040911201387644,8.85334330271309,-2.66800439466536,-298.410290841395
738540.48418049956671893597,8.86257515182958,-2.65877254554888,-298.511841181677
738540.48418059002142399549,8.88103885006256,-2.62184514908292,-298.576464125492
738540.48418068047612905502,8.89950254829554,-2.61261329996643,-298.594927823725
738540.48418077081441879272,8.91796624652852,-2.61261329996643,-298.511841181677
738540.48418086126912385225,8.88103885006256,-2.63107699819941,-298.539536729026
738540.48418095172382891178,8.88103885006256,-2.63107699819941,-298.558000427259
738540.48418104217853397131,8.94566179387799,-2.56645405438398,-298.576464125492
738540.48418113263323903084,8.90873439741203,-2.62184514908292,-298.548768578143
738540.48418122308794409037,8.85334330271309,-2.68646809289834,-298.594927823725
738540.48418131342623382807,8.90873439741203,-2.65877254554888,-298.567232276376
738540.48418140388093888760,8.89950254829554,-2.65877254554888,-298.548768578143
738540.48418149433564394712,8.94566179387799,-2.62184514908292,-298.613391521958
738540.48418158479034900665,8.91796624652852,-2.6403088473159,-298.585695974609
738540.48418167524505406618,8.96412549211096,-2.61261329996643,-298.594927823725
738540.48418176558334380388,8.95489364299448,-2.61261329996643,-298.576464125492
738540.48418185603804886341,8.94566179387799,-2.59414960173345,-298.585695974609
738540.48418194649275392294,9.03798028504288,-2.47413556321909,-298.558000427259
738540.48418203694745898247,9.03798028504288,-2.47413556321909,-298.53030487991
738540.48418212740216404200,8.81641590624714,-2.69569994201483,-298.511841181677
738540.48418221785686910152,8.78872035889767,-2.71416364024781,-298.511841181677
738540.48418230819515883923,8.81641590624714,-2.71416364024781,-298.493377483444
738540.48418239864986389875,8.89950254829554,-2.62184514908292,-298.521073030793
738540.48418248910456895828,8.87180700094607,-2.6403088473159,-298.521073030793
738540.48418257955927401781,8.82564775536363,-2.64954069643239,-298.558000427259
738540.48418267001397907734,8.85334330271309,-2.62184514908292,-298.539536729026
738540.48418276046868413687,8.80718405713065,-2.67723624378185,-298.585695974609
738540.48418285080697387457,8.77948850978118,-2.68646809289834,-298.50260933256
738540.48418294126167893410,8.90873439741203,-2.59414960173345,-298.50260933256
738540.48418303171638399363,9.03798028504288,-2.42797631763665,-298.511841181677
738540.48418312217108905315,9.33339945677053,-2.3818170720542,-298.419522690512
738540.48418321262579411268,9.61035493026521,-2.25257118442335,-298.382595294046
738540.48418330296408385038,9.4441816461684,-2.36335337382122,-298.456450086978
738540.48418339341878890991,8.86257515182958,-2.85264137699515,-298.567232276376
738540.48418348387349396944,8.52099673451949,-2.88033692434461,-298.567232276376
738540.48418357432819902897,8.43791009247108,-2.74185918759728,-298.548768578143
738540.48418366478290408850,8.41021454512162,-2.71416364024781,-298.511841181677
738540.48418375523760914803,8.48406933805353,-2.67723624378185,-298.53030487991
738540.48418384557589888573,8.72409741508225,-2.53875850703452,-298.465681936094
738540.48418393603060394526,8.77948850978118,-2.59414960173345,-298.401058992279
738540.48418402648530900478,8.80718405713065,-2.62184514908292,-298.493377483444
738540.48418411694001406431,8.81641590624714,-2.6403088473159,-298.567232276376
738540.48418420739471912384,8.74256111331523,-2.73262733848079,-298.558000427259
738540.48418429773300886154,8.79795220801416,-2.70493179113132,-298.576464125492
738540.48418438818771392107,8.84411145359661,-2.65877254554888,-298.604159672842
738540.48418447864241898060,8.9364299447615,-2.53875850703452,-298.558000427259
738540.48418456909712404013,8.85334330271309,-2.6403088473159,-298.548768578143
738540.48418465955182909966,8.83487960448012,-2.64954069643239,-298.567232276376
738540.48418475000653415918,8.84411145359661,-2.64954069643239,-298.585695974609
738540.48418484034482389688,8.88103885006256,-2.63107699819941,-298.50260933256
738540.48418493079952895641,8.89027069917905,-2.60338145084994,-298.594927823725
738540.48418502125423401594,8.98258919034394,-2.52029480880154,-298.548768578143
738540.48418511170893907547,9.11183507797479,-2.40951261940367,-298.521073030793
738540.48418520216364413500,8.99182103946043,-2.52952665791803,-298.50260933256
738540.48418529261834919453,8.97335734122745,-2.55722220526749,-298.50260933256
738540.48418538295663893223,8.88103885006256,-2.67723624378185,-298.50260933256
738540.48418547341134399176,8.86257515182958,-2.68646809289834,-298.484145634327
738540.48418556386604905128,8.99182103946043,-2.56645405438398,-298.493377483444
738540.48418565432075411081,9.01028473769341,-2.54799035615101,-298.548768578143
738540.48418574477545917034,9.04721213415937,-2.51106295968505,-298.548768578143
738540.48418583511374890804,9.0195165868099,-2.52029480880154,-298.539536729026
738540.48418592556845396757,9.19492172002319,-2.3818170720542,-298.539536729026
738540.48418601602315902710,9.20415356913968,-2.37258522293771,-298.558000427259
738540.48418610647786408663,9.13953062532426,-2.42797631763665,-298.50260933256
738540.48418619693256914616,9.04721213415937,-2.51106295968505,-298.548768578143
738540.48418628738727420568,9.06567583239235,-2.51106295968505,-298.548768578143
738540.48418637772556394339,9.03798028504288,-2.52952665791803,-298.558000427259
738540.48418646818026900291,9.1026032288583,-2.45567186498611,-298.53030487991
738540.48418655863497406244,9.15799432355724,-2.40028077028718,-298.558000427259
738540.48418664908967912197,9.16722617267373,-2.3818170720542,-298.558000427259
738540.48418673954438418150,9.06567583239235,-2.48336741233558,-298.484145634327
738540.48418682988267391920,9.01028473769341,-2.53875850703452,-298.558000427259
738540.48418692033737897873,9.06567583239235,-2.47413556321909,-298.53030487991
738540.48418701079208403826,9.00105288857692,-2.52952665791803,-298.511841181677
738540.48418710124678909779,8.9364299447615,-2.56645405438398,-298.567232276376
738540.48418719170149415731,8.98258919034394,-2.52029480880154,-298.576464125492
738540.48418728215619921684,8.99182103946043,-2.52952665791803,-298.594927823725
738540.48418737249448895454,8.77948850978118,-2.7233954893643,-298.567232276376
738540.48418746294919401407,8.89027069917905,-2.63107699819941,-298.391827143162
738540.48418755340389907360,8.9364299447615,-2.56645405438398,-298.364131595813
738540.48418764385860413313,8.86257515182958,-2.63107699819941,-298.50260933256
738540.48418773431330919266,8.92719809564501,-2.56645405438398,-298.511841181677
738540.48418782465159893036,8.78872035889767,-2.7233954893643,-298.521073030793
738540.48418791510630398989,8.79795220801416,-2.69569994201483,-298.521073030793
738540.48418800556100904942,8.86257515182958,-2.64954069643239,-298.50260933256
738540.48418809601571410894,8.95489364299448,-2.52952665791803,-298.50260933256
738540.48418818647041916847,8.95489364299448,-2.54799035615101,-298.50260933256
738540.48418827692512422800,8.86257515182958,-2.65877254554888,-298.511841181677
738540.48418836726341396570,8.89027069917905,-2.63107699819941,-298.558000427259
738540.48418845771811902523,8.87180700094607,-2.65877254554888,-298.50260933256
738540.48418854817282408476,8.85334330271309,-2.66800439466536,-298.585695974609
738540.48418863862752914429,8.89950254829554,-2.63107699819941,-298.594927823725
738540.48418872908223420382,8.91796624652852,-2.57568590350047,-298.558000427259
738540.48418881953693926334,8.86257515182958,-2.65877254554888,-298.53030487991
738540.48418890987522900105,8.87180700094607,-2.6403088473159,-298.604159672842
738540.48418900032993406057,8.92719809564501,-2.59414960173345,-298.567232276376
738540.48418909078463912010,8.91796624652852,-2.58491775261696,-298.521073030793
738540.48418918123934417963,8.89027069917905,-2.61261329996643,-298.594927823725
738540.48418927169404923916,8.92719809564501,-2.57568590350047,-298.567232276376
738540.48418936203233897686,8.85334330271309,-2.64954069643239,-298.567232276376
738540.48418945248704403639,8.87180700094607,-2.62184514908292,-298.511841181677
738540.48418954294174909592,8.87180700094607,-2.62184514908292,-298.604159672842
738540.48418963339645415545,8.82564775536363,-2.68646809289834,-298.604159672842
738540.48418972385115921497,8.85334330271309,-2.65877254554888,-298.521073030793
738540.48418981430586427450,8.83487960448012,-2.64954069643239,-298.576464125492
738540.48418990464415401220,8.88103885006256,-2.62184514908292,-298.567232276376
738540.48418999509885907173,8.86257515182958,-2.6403088473159,-298.567232276376
738540.48419008555356413126,8.86257515182958,-2.6403088473159,-298.521073030793
738540.48419017600826919079,8.84411145359661,-2.66800439466536,-298.576464125492
738540.48419026646297425032,8.83487960448012,-2.64954069643239,-298.521073030793
738540.48419035680126398802,8.92719809564501,-2.56645405438398,-298.484145634327
738540.48419044725596904755,8.84411145359661,-2.64954069643239,-298.50260933256
738540.48419053771067410707,8.89950254829554,-2.60338145084994,-298.511841181677
738540.48419062816537916660,8.84411145359661,-2.64954069643239,-298.511841181677
738540.48419071862008422613,8.81641590624714,-2.68646809289834,-298.539536729026
738540.48419080907478928566,8.92719809564501,-2.56645405438398,-298.567232276376
738540.48419089941307902336,8.77948850978118,-2.73262733848079,-298.594927823725
738540.48419098986778408289,8.81641590624714,-2.68646809289834,-298.419522690512
738540.48419108032248914242,8.89950254829554,-2.59414960173345,-298.484145634327
738540.48419117077719420195,8.89027069917905,-2.61261329996643,-298.594927823725
738540.48419126123189926147,8.87180700094607,-2.62184514908292,-298.558000427259
738540.48419135168660432100,8.83487960448012,-2.68646809289834,-298.558000427259
738540.48419144202489405870,8.89950254829554,-2.59414960173345,-298.567232276376
738540.48419153247959911823,8.88103885006256,-2.60338145084994,-298.558000427259
738540.48419162293430417776,8.79795220801416,-2.69569994201483,-298.521073030793
738540.48419171338900923729,8.85334330271309,-2.65877254554888,-298.511841181677
738540.48419180384371429682,8.92719809564501,-2.57568590350047,-298.539536729026
738540.48419189418200403452,8.91796624652852,-2.58491775261696,-298.567232276376
738540.48419198463670909405,8.7610248115482,-2.73262733848079,-298.604159672842
738540.48419207509141415358,8.85334330271309,-2.65877254554888,-298.576464125492
738540.48419216554611921310,8.88103885006256,-2.63107699819941,-298.613391521958
738540.48419225600082427263,8.87180700094607,-2.64954069643239,-298.53030487991
738540.48419234645552933216,8.89950254829554,-2.62184514908292,-298.521073030793
738540.48419243679381906986,8.88103885006256,-2.6403088473159,-298.585695974609
738540.48419252724852412939,8.82564775536363,-2.68646809289834,-298.576464125492
738540.48419261770322918892,8.84411145359661,-2.65877254554888,-298.539536729026
738540.48419270815793424845,8.88103885006256,-2.63107699819941,-298.576464125492
738540.48419279861263930798,8.85334330271309,-2.67723624378185,-298.50260933256
738540.48419288895092904568,8.87180700094607,-2.63107699819941,-298.511841181677
738540.48419297940563410521,8.80718405713065,-2.70493179113132,-298.594927823725
738540.48419306986033916473,8.89027069917905,-2.66800439466536,-298.613391521958
738540.48419316031504422426,8.99182103946043,-2.55722220526749,-298.567232276376
738540.48419325076974928379,8.92719809564501,-2.62184514908292,-298.613391521958
738540.48419334122445434332,8.86257515182958,-2.68646809289834,-298.613391521958
738540.48419343156274408102,8.97335734122745,-2.59414960173345,-298.576464125492
738540.48419352201744914055,8.89027069917905,-2.66800439466536,-298.474913785211
738540.48419361247215420008,8.88103885006256,-2.68646809289834,-298.576464125492
738540.48419370292685925961,8.89950254829554,-2.63107699819941,-298.604159672842
738540.48419379338156431913,8.88103885006256,-2.63107699819941,-298.594927823725
738540.48419388371985405684,8.87180700094607,-2.64954069643239,-298.511841181677
738540.48419397417455911636,8.87180700094607,-2.63107699819941,-298.604159672842
738540.48419406462926417589,8.87180700094607,-2.6403088473159,-298.613391521958
738540.48419415508396923542,8.84411145359661,-2.6403088473159,-298.511841181677
738540.48419424553867429495,8.84411145359661,-2.64954069643239,-298.585695974609
738540.48419433599337935448,8.85334330271309,-2.63107699819941,-298.604159672842
738540.48419442633166909218,8.88103885006256,-2.63107699819941,-298.521073030793
738540.48419451678637415171,8.89950254829554,-2.58491775261696,-298.428754539628
738540.48419460724107921124,9.00105288857692,-2.48336741233558,-298.410290841395
738540.48419469769578427076,8.69640186773278,-2.77878658406323,-298.521073030793
738540.48419478815048933029,8.74256111331523,-2.7233954893643,-298.493377483444
738540.48419487860519438982,8.87180700094607,-2.63107699819941,-298.53030487991
738540.48419496894348412752,9.02874843592639,-2.51106295968505,-298.521073030793
738540.48419505939818918705,9.50880458998382,-2.27103488265633,-298.465681936094
738540.48419514985289424658,9.74883266701254,-2.1233252967925,-298.456450086978
738540.48419524030759930611,9.26877651295511,-2.52952665791803,-298.53030487991
738540.48419533076230436563,8.68717001861629,-2.8064821314127,-298.604159672842
738540.48419542110059410334,8.42867824335459,-2.76032288583026,-298.594927823725
738540.48419551155529916286,8.511764885403,-2.59414960173345,-298.50260933256
738540.48419560201000422239,8.35482345042268,-2.77878658406323,-298.493377483444
738540.48419569246470928192,8.40098269600513,-2.77878658406323,-298.548768578143
738540.48419578291941434145,8.65947447126682,-2.67723624378185,-298.539536729026
738540.48419587337411940098,8.69640186773278,-2.68646809289834,-298.50260933256
738540.48419596371240913868,8.75179296243171,-2.7233954893643,-298.548768578143
738540.48419605416711419821,8.80718405713065,-2.67723624378185,-298.521073030793
738540.48419614462181925774,8.85334330271309,-2.63107699819941,-298.50260933256
738540.48419623507652431726,8.81641590624714,-2.67723624378185,-298.53030487991
738540.48419632553122937679,8.83487960448012,-2.66800439466536,-298.521073030793
738540.48419641586951911449,8.86257515182958,-2.63107699819941,-298.576464125492
738540.48419650632422417402,8.94566179387799,-2.55722220526749,-298.558000427259
738540.48419659677892923355,8.85334330271309,-2.6403088473159,-298.558000427259
738540.48419668723363429308,8.84411145359661,-2.67723624378185,-298.594927823725
738540.48419677768833935261,8.92719809564501,-2.58491775261696,-298.576464125492
738540.48419686814304441214,8.89950254829554,-2.62184514908292,-298.53030487991
738540.48419695848133414984,8.88103885006256,-2.65877254554888,-298.567232276376
738540.48419704893603920937,8.90873439741203,-2.63107699819941,-298.585695974609
738540.48419713939074426889,8.96412549211096,-2.57568590350047,-298.567232276376
738540.48419722984544932842,9.0195165868099,-2.52952665791803,-298.576464125492
738540.48419732030015438795,9.04721213415937,-2.50183111056856,-298.53030487991
738540.48419741075485944748,8.95489364299448,-2.60338145084994,-298.567232276376
738540.48419750109314918518,9.06567583239235,-2.47413556321909,-298.576464125492
738540.48419759154785424471,9.00105288857692,-2.54799035615101,-298.594927823725
738540.48419768200255930424,9.02874843592639,-2.55722220526749,-298.53030487991
738540.48419777245726436377,9.03798028504288,-2.56645405438398,-298.585695974609
738540.48419786291196942329,9.08413953062532,-2.51106295968505,-298.567232276376
738540.48419795325025916100,9.13953062532426,-2.43720816675314,-298.484145634327
738540.48419804370496422052,9.06567583239235,-2.50183111056856,-298.474913785211
738540.48419813415966928005,9.15799432355724,-2.41874446852016,-298.447218237861
738540.48419822461437433958,9.03798028504288,-2.54799035615101,-298.53030487991
738540.48419831506907939911,9.12106692709128,-2.4649037141026,-298.576464125492
738540.48419840552378445864,9.17645802179022,-2.39104892117069,-298.539536729026
738540.48419849586207419634,9.0195165868099,-2.55722220526749,-298.567232276376
738540.48419858631677925587,9.03798028504288,-2.53875850703452,-298.447218237861
738540.48419867677148431540,9.04721213415937,-2.52029480880154,-298.548768578143
738540.48419876722618937492,9.01028473769341,-2.53875850703452,-298.558000427259
738540.48419885768089443445,9.01028473769341,-2.53875850703452,-298.50260933256
738540.48419894801918417215,8.97335734122745,-2.55722220526749,-298.474913785211
738540.48419903847388923168,9.0195165868099,-2.50183111056856,-298.484145634327
738540.48419912892859429121,9.01028473769341,-2.52029480880154,-298.493377483444
738540.48419921938329935074,9.01028473769341,-2.52029480880154,-298.493377483444
738540.48419930983800441027,8.92719809564501,-2.56645405438398,-298.493377483444
738540.48419940029270946980,8.78872035889767,-2.71416364024781,-298.50260933256
738540.48419949063099920750,8.86257515182958,-2.64954069643239,-298.50260933256
738540.48419958108570426702,8.82564775536363,-2.69569994201483,-298.539536729026
738540.48419967154040932655,8.81641590624714,-2.7233954893643,-298.558000427259
738540.48419976199511438608,8.82564775536363,-2.71416364024781,-298.539536729026
738540.48419985244981944561,8.82564775536363,-2.73262733848079,-298.53030487991
738540.48419994278810918331,8.87180700094607,-2.67723624378185,-298.539536729026
738540.48420003324281424284,8.90873439741203,-2.65877254554888,-298.511841181677
738540.48420012369751930237,8.90873439741203,-2.64954069643239,-298.521073030793
738540.48420021415222436190,8.9364299447615,-2.63107699819941,-298.567232276376
738540.48420030460692942142,8.9364299447615,-2.62184514908292,-298.567232276376
738540.48420039506163448095,8.87180700094607,-2.69569994201483,-298.585695974609
738540.48420048539992421865,8.86257515182958,-2.68646809289834,-298.594927823725
738540.48420057585462927818,9.03798028504288,-2.50183111056856,-298.50260933256
738540.48420066630933433771,8.79795220801416,-2.76032288583026,-298.594927823725
738540.48420075676403939724,8.90873439741203,-2.64954069643239,-298.576464125492
738540.48420084721874445677,8.87180700094607,-2.66800439466536,-298.493377483444
738540.48420093767344951630,8.82564775536363,-2.73262733848079,-298.567232276376
738540.48420102801173925400,8.90873439741203,-2.66800439466536,-298.558000427259
738540.48420111846644431353,8.91796624652852,-2.65877254554888,-298.53030487991
738540.48420120892114937305,8.89950254829554,-2.68646809289834,-298.511841181677
738540.48420129937585443258,8.89027069917905,-2.69569994201483,-298.548768578143
738540.48420138983055949211,8.92719809564501,-2.66800439466536,-298.511841181677
738540.48420148016884922981,8.91796624652852,-2.64954069643239,-298.594927823725
738540.48420157062355428934,8.9364299447615,-2.6403088473159,-298.53030487991
738540.48420166107825934887,8.95489364299448,-2.58491775261696,-298.437986388745
738540.48420175153296440840,8.77948850978118,-2.77878658406323,-298.567232276376
738540.48420184198766946793,8.79795220801416,-2.76032288583026,-298.604159672842
738540.48420193244237452745,8.89027069917905,-2.64954069643239,-298.585695974609
738540.48420202278066426516,8.87180700094607,-2.67723624378185,-298.558000427259
738540.48420211323536932468,8.90873439741203,-2.64954069643239,-298.585695974609
738540.48420220369007438421,8.88103885006256,-2.67723624378185,-298.604159672842
738540.48420229414477944374,8.9364299447615,-2.63107699819941,-298.604159672842
738540.48420238459948450327,8.9364299447615,-2.63107699819941,-298.53030487991
738540.48420247493777424097,8.94566179387799,-2.63107699819941,-298.567232276376
738540.48420256539247930050,9.00105288857692,-2.55722220526749,-298.585695974609
738540.48420265584718436003,8.86257515182958,-2.71416364024781,-298.576464125492
738540.48420274630188941956,8.84411145359661,-2.74185918759728,-298.576464125492
738540.48420283675659447908,8.87180700094607,-2.70493179113132,-298.604159672842
738540.48420292721129953861,8.89027069917905,-2.70493179113132,-298.576464125492
738540.48420301754958927631,8.80718405713065,-2.76955473494675,-298.548768578143
738540.48420310800429433584,8.84411145359661,-2.73262733848079,-298.576464125492
738540.48420319845899939537,8.84411145359661,-2.71416364024781,-298.585695974609
738540.48420328891370445490,8.89027069917905,-2.68646809289834,-298.604159672842
738540.48420337936840951443,8.89950254829554,-2.65877254554888,-298.548768578143
738540.48420346970669925213,8.83487960448012,-2.7233954893643,-298.548768578143
738540.48420356016140431166,8.89950254829554,-2.66800439466536,-298.401058992279
738540.48420365061610937119,8.97335734122745,-2.58491775261696,-298.50260933256
738540.48420374107081443071,8.87180700094607,-2.67723624378185,-298.521073030793
738540.48420383152551949024,8.85334330271309,-2.71416364024781,-298.521073030793
738540.48420392198022454977,8.89027069917905,-2.66800439466536,-298.511841181677
738540.48420401231851428747,8.87180700094607,-2.69569994201483,-298.548768578143
738540.48420410277321934700,8.80718405713065,-2.76032288583026,-298.53030487991
738540.48420419322792440653,8.87180700094607,-2.68646809289834,-298.511841181677
738540.48420428368262946606,8.92719809564501,-2.6403088473159,-298.521073030793
738540.48420437413733452559,8.89950254829554,-2.66800439466536,-298.493377483444
738540.48420446459203958511,8.9364299447615,-2.61261329996643,-298.548768578143
738540.48420455493032932281,8.87180700094607,-2.68646809289834,-298.53030487991
738540.48420464538503438234,8.88103885006256,-2.65877254554888,-298.493377483444
738540.48420473583973944187,8.89027069917905,-2.6403088473159,-298.493377483444
738540.48420482629444450140,8.90873439741203,-2.62184514908292,-298.511841181677
738540.48420491674914956093,8.95489364299448,-2.59414960173345,-298.576464125492
738540.48420500708743929863,9.00105288857692,-2.55722220526749,-298.567232276376
738540.48420509754214435816,8.99182103946043,-2.55722220526749,-298.548768578143
738540.48420518799684941769,8.96412549211096,-2.59414960173345,-298.401058992279
738540.48420527845155447721,8.89950254829554,-2.65877254554888,-298.521073030793
738540.48420536890625953674,8.9364299447615,-2.61261329996643,-298.50260933256
738540.48420545936096459627,8.97335734122745,-2.59414960173345,-298.493377483444
738540.48420554969925433397,8.95489364299448,-2.60338145084994,-298.521073030793
738540.48420564015395939350,8.94566179387799,-2.60338145084994,-298.567232276376
738540.48420573060866445303,8.97335734122745,-2.55722220526749,-298.558000427259
738540.48420582106336951256,8.96412549211096,-2.57568590350047,-298.558000427259
738540.48420591151807457209,8.94566179387799,-2.56645405438398,-298.53030487991
738540.48420600185636430979,8.89950254829554,-2.63107699819941,-298.594927823725
738540.48420609231106936932,8.9364299447615,-2.60338145084994,-298.558000427259
738540.48420618276577442884,8.9364299447615,-2.58491775261696,-298.53030487991
738540.48420627322047948837,8.80718405713065,-2.68646809289834,-298.567232276376
738540.48420636367518454790,8.78872035889767,-2.75109103671377,-298.585695974609
738540.48420645412988960743,8.78872035889767,-2.74185918759728,-298.548768578143
738540.48420654446817934513,8.77025666066469,-2.73262733848079,-298.576464125492
738540.48420663492288440466,8.85334330271309,-2.70493179113132,-298.558000427259
738540.48420672537758946419,8.95489364299448,-2.55722220526749,-298.521073030793
738540.48420681583229452372,9.1856898709067,-2.39104892117069,-298.484145634327
738540.48420690628699958324,9.54573198644978,-2.20641193884091,-298.474913785211
738540.48420699674170464277,9.64728232673116,-2.11409344767602,-298.437986388745
738540.48420708707999438047,9.39802240058595,-2.34488967558824,-298.465681936094
738540.48420717753469944000,8.89950254829554,-2.90803247169408,-298.558000427259
738540.48420726798940449953,8.58561967833491,-2.8895687734611,-298.53030487991
738540.48420735844410955906,8.63177892391736,-2.66800439466536,-298.50260933256
738540.48420744889881461859,8.58561967833491,-2.64954069643239,-298.484145634327
738540.48420753923710435629,8.58561967833491,-2.73262733848079,-298.484145634327
738540.48420762969180941582,8.66870632038331,-2.73262733848079,-298.53030487991
738540.48420772014651447535,8.69640186773278,-2.76955473494675,-298.521073030793
738540.48420781060121953487,8.74256111331523,-2.76032288583026,-298.567232276376
738540.48420790105592459440,8.80718405713065,-2.70493179113132,-298.447218237861
738540.48420799151062965393,8.81641590624714,-2.66800439466536,-298.474913785211
738540.48420808184891939163,8.83487960448012,-2.64954069643239,-298.50260933256
738540.48420817230362445116,8.86257515182958,-2.63107699819941,-298.484145634327
738540.48420826275832951069,8.88103885006256,-2.63107699819941,-298.50260933256
738540.48420835321303457022,8.85334330271309,-2.6403088473159,-298.484145634327
738540.48420844366773962975,8.89027069917905,-2.61261329996643,-298.53030487991
738540.48420853400602936745,8.99182103946043,-2.52029480880154,-298.465681936094
738540.48420862446073442698,9.02874843592639,-2.49259926145207,-298.31797235023
738540.48420871491543948650,9.02874843592639,-2.51106295968505,-298.465681936094
738540.48420880537014454603,8.87180700094607,-2.6403088473159,-298.484145634327
738540.48420889582484960556,8.84411145359661,-2.68646809289834,-298.493377483444
738540.48420898627955466509,8.83487960448012,-2.71416364024781,-298.539536729026
738540.48420907661784440279,8.89950254829554,-2.6403088473159,-298.521073030793
738540.48420916707254946232,8.92719809564501,-2.60338145084994,-298.521073030793
738540.48420925752725452185,8.97335734122745,-2.57568590350047,-298.511841181677
738540.48420934798195958138,8.98258919034394,-2.55722220526749,-298.548768578143
738540.48420943843666464090,9.02874843592639,-2.51106295968505,-298.539536729026
738540.48420952877495437860,9.05644398327586,-2.48336741233558,-298.539536729026
738540.48420961922965943813,9.06567583239235,-2.45567186498611,-298.548768578143
738540.48420970968436449766,9.09337137974181,-2.42797631763665,-298.484145634327
738540.48420980013906955719,9.1026032288583,-2.40951261940367,-298.539536729026
738540.48420989059377461672,9.34263130588702,-2.16948454237495,-298.511841181677
738540.48420998104847967625,9.37032685323649,-2.14178899502548,-298.410290841395
738540.48421007138676941395,9.09337137974181,-2.4649037141026,-298.511841181677
738540.48421016184147447348,9.02874843592639,-2.53875850703452,-298.521073030793
738540.48421025229617953300,9.02874843592639,-2.51106295968505,-298.465681936094
738540.48421034275088459253,9.03798028504288,-2.4649037141026,-298.511841181677
738540.48421043320558965206,9.05644398327586,-2.45567186498611,-298.53030487991
738540.48421052366029471159,9.03798028504288,-2.47413556321909,-298.511841181677
738540.48421061399858444929,9.03798028504288,-2.47413556321909,-298.558000427259
738540.48421070445328950882,8.98258919034394,-2.52029480880154,-298.539536729026
738540.48421079490799456835,9.00105288857692,-2.50183111056856,-298.539536729026
738540.48421088536269962788,9.0195165868099,-2.49259926145207,-298.474913785211
738540.48421097581740468740,8.92719809564501,-2.56645405438398,-298.521073030793
738540.48421106615569442511,8.92719809564501,-2.59414960173345,-298.539536729026
738540.48421115661039948463,9.04721213415937,-2.45567186498611,-298.511841181677
738540.48421124706510454416,9.09337137974181,-2.40951261940367,-298.539536729026
738540.48421133751980960369,8.77025666066469,-2.76032288583026,-298.558000427259
738540.48421142797451466322,8.79795220801416,-2.74185918759728,-298.585695974609
738540.48421151842921972275,8.83487960448012,-2.69569994201483,-298.50260933256
738540.48421160876750946045,8.88103885006256,-2.64954069643239,-298.539536729026
738540.48421169922221451998,8.88103885006256,-2.64954069643239,-298.576464125492
738540.48421178967691957951,8.9364299447615,-2.60338145084994,-298.493377483444
738540.48421188013162463903,9.00105288857692,-2.53875850703452,-298.558000427259
738540.48421197058632969856,8.98258919034394,-2.56645405438398,-298.484145634327
738540.48421206092461943626,8.97335734122745,-2.56645405438398,-298.437986388745
738540.48421215137932449579,8.95489364299448,-2.57568590350047,-298.299508651997
738540.48421224183402955532,8.87180700094607,-2.67723624378185,-298.373363444929
738540.48421233228873461485,8.89950254829554,-2.65877254554888,-298.465681936094
738540.48421242274343967438,8.87180700094607,-2.66800439466536,-298.465681936094
738540.48421251319814473391,8.89950254829554,-2.62184514908292,-298.474913785211
738540.48421260353643447161,8.88103885006256,-2.66800439466536,-298.465681936094
738540.48421269399113953114,8.88103885006256,-2.66800439466536,-298.53030487991
738540.48421278444584459066,8.89027069917905,-2.64954069643239,-298.548768578143
738540.48421287490054965019,8.89950254829554,-2.6403088473159,-298.539536729026
738540.48421296535525470972,8.94566179387799,-2.60338145084994,-298.493377483444
738540.48421305580995976925,9.0195165868099,-2.51106295968505,-298.558000427259
738540.48421314614824950695,8.9364299447615,-2.60338145084994,-298.548768578143
738540.48421323660295456648,8.87180700094607,-2.66800439466536,-298.456450086978
738540.48421332705765962601,8.91796624652852,-2.59414960173345,-298.465681936094
738540.48421341751236468554,8.9364299447615,-2.60338145084994,-298.511841181677
738540.48421350796706974506,8.89027069917905,-2.64954069643239,-298.53030487991
738540.48421359830535948277,8.94566179387799,-2.58491775261696,-298.521073030793
738540.48421368876006454229,8.92719809564501,-2.61261329996643,-298.493377483444
738540.48421377921476960182,8.86257515182958,-2.66800439466536,-298.548768578143
738540.48421386966947466135,8.87180700094607,-2.64954069643239,-298.558000427259
738540.48421396012417972088,8.89950254829554,-2.63107699819941,-298.410290841395
738540.48421405057888478041,8.89027069917905,-2.66800439466536,-298.50260933256
738540.48421414091717451811,8.91796624652852,-2.6403088473159,-298.539536729026
738540.48421423137187957764,8.90873439741203,-2.62184514908292,-298.521073030793
738540.48421432182658463717,8.90873439741203,-2.63107699819941,-298.493377483444
738540.48421441228128969669,8.91796624652852,-2.63107699819941,-298.548768578143
738540.48421450273599475622,8.87180700094607,-2.66800439466536,-298.548768578143
738540.48421459307428449392,8.88103885006256,-2.65877254554888,-298.484145634327
738540.48421468352898955345,8.98258919034394,-2.54799035615101,-298.50260933256
738540.48421477398369461298,8.9364299447615,-2.58491775261696,-298.539536729026
738540.48421486443839967251,8.89950254829554,-2.6403088473159,-298.511841181677
738540.48421495489310473204,8.85334330271309,-2.69569994201483,-298.493377483444
738540.48421504534780979156,8.89027069917905,-2.64954069643239,-298.539536729026
738540.48421513568609952927,8.96412549211096,-2.57568590350047,-298.493377483444
738540.48421522614080458879,8.87180700094607,-2.66800439466536,-298.465681936094
738540.48421531659550964832,8.85334330271309,-2.66800439466536,-298.511841181677
738540.48421540705021470785,8.94566179387799,-2.58491775261696,-298.50260933256
738540.48421549750491976738,8.82564775536363,-2.70493179113132,-298.465681936094
738540.48421558784320950508,8.82564775536363,-2.68646809289834,-298.511841181677
738540.48421567829791456461,8.99182103946043,-2.56645405438398,-298.373363444929
738540.48421576875261962414,9.04721213415937,-2.50183111056856,-298.354899746696
738540.48421585920732468367,8.9364299447615,-2.59414960173345,-298.493377483444
738540.48421594966202974319,8.89950254829554,-2.65877254554888,-298.50260933256
738540.48421604011673480272,8.91796624652852,-2.65877254554888,-298.50260933256
738540.48421613045502454042,9.02874843592639,-2.52952665791803,-298.419522690512
738540.48421622090972959995,8.90873439741203,-2.69569994201483,-298.465681936094
738540.48421631136443465948,8.9364299447615,-2.63107699819941,-298.456450086978
738540.48421640181913971901,8.96412549211096,-2.62184514908292,-298.447218237861
738540.48421649227384477854,9.02874843592639,-2.56645405438398,-298.437986388745
738540.48421658272854983807,9.13029877620777,-2.42797631763665,-298.428754539628
738540.48421667306683957577,8.91796624652852,-2.65877254554888,-298.447218237861
738540.48421676352154463530,8.96412549211096,-2.57568590350047,-298.50260933256
738540.48421685397624969482,9.07490768150883,-2.44644001586962,-298.474913785211
738540.48421694443095475435,8.77025666066469,-2.76032288583026,-298.493377483444
738540.48421703488565981388,8.88103885006256,-2.66800439466536,-298.456450086978
738540.48421712522394955158,8.95489364299448,-2.56645405438398,-298.456450086978
738540.48421721567865461111,8.80718405713065,-2.73262733848079,-298.50260933256
738540.48421730613335967064,8.82564775536363,-2.70493179113132,-298.484145634327
738540.48421739658806473017,8.96412549211096,-2.56645405438398,-298.456450086978
738540.48421748704276978970,8.98258919034394,-2.52952665791803,-298.484145634327
738540.48421757749747484922,9.03798028504288,-2.47413556321909,-298.493377483444
738540.48421766783576458693,8.95489364299448,-2.52952665791803,-298.493377483444
738540.48421775829046964645,8.73332926419874,-2.8064821314127,-298.558000427259
738540.48421784874517470598,8.86257515182958,-2.61261329996643,-298.50260933256
738540.48421793919987976551,9.42571794793542,-2.13255714590899,-298.336436048463
738540.48421802965458482504,9.23184911648915,-2.52952665791803,-298.382595294046
738540.48421811999287456274,9.41648609881893,-2.31719412823878,-298.382595294046
738540.48421821044757962227,9.07490768150883,-2.74185918759728,-298.493377483444
738540.48421830090228468180,8.87180700094607,-2.96342356639302,-298.521073030793
738540.48421839135698974133,8.60408337656789,-2.90803247169408,-298.558000427259
738540.48421848181169480085,8.45637379070406,-2.84340952787866,-298.539536729026
738540.48421857226639986038,8.48406933805353,-2.75109103671377,-298.539536729026
738540.48421866260468959808,8.55792413098544,-2.68646809289834,-298.539536729026
738540.48421875305939465761,8.65947447126682,-2.66800439466536,-298.484145634327
738540.48421884351409971714,8.87180700094607,-2.52952665791803,-298.539536729026
738540.48421893396880477667,9.21338541825617,-2.20641193884091,-298.521073030793
738540.48421902442350983620,8.56715598010193,-2.94495986816004,-298.521073030793
738540.48421911476179957390,9.08413953062532,-2.40951261940367,-298.493377483444
738540.48421920521650463343,8.70563371684927,-2.82494582964568,-298.447218237861
738540.48421929567120969296,8.86257515182958,-2.6403088473159,-298.410290841395
738540.48421938612591475248,9.71190527054659,-1.73558763389996,-298.391827143162
738540.48421947658061981201,8.42867824335459,-3.10190130314035,-298.576464125492
738540.48421956703532487154,8.5948515274514,-2.92649616992706,-298.576464125492
738540.48421965737361460924,9.00105288857692,-2.49259926145207,-298.465681936094
738540.48421974782831966877,8.6779381694998,-2.85264137699515,-298.521073030793
738540.48421983828302472830,8.82564775536363,-2.70493179113132,-298.548768578143
738540.48421992873772978783,8.91796624652852,-2.62184514908292,-298.493377483444
738540.48422001919243484735,8.96412549211096,-2.58491775261696,-298.493377483444
738540.48422010964713990688,8.95489364299448,-2.57568590350047,-298.539536729026
738540.48422019998542964458,8.97335734122745,-2.57568590350047,-298.493377483444
738540.48422029044013470411,9.01028473769341,-2.53875850703452,-298.437986388745
738540.48422038089483976364,9.01028473769341,-2.53875850703452,-298.484145634327
738540.48422047134954482317,9.04721213415937,-2.49259926145207,-298.50260933256
738540.48422056180424988270,9.05644398327586,-2.49259926145207,-298.493377483444
738540.48422065214253962040,9.26877651295511,-2.24333933530686,-298.437986388745
738540.48422074259724467993,9.06567583239235,-2.47413556321909,-298.53030487991
738540.48422083305194973946,9.1856898709067,-2.36335337382122,-298.465681936094
738540.48422092350665479898,9.37955870235298,-2.15102084414197,-298.391827143162
738540.48422101396135985851,9.30570390942106,-2.19718008972442,-298.456450086978
738540.48422110441606491804,9.05644398327586,-2.52029480880154,-298.484145634327
738540.48422119475435465574,9.03798028504288,-2.50183111056856,-298.456450086978
738540.48422128520905971527,8.90873439741203,-2.64954069643239,-298.419522690512
738540.48422137566376477480,8.95489364299448,-2.59414960173345,-298.410290841395
738540.48422146611846983433,9.04721213415937,-2.50183111056856,-298.391827143162
738540.48422155657317489386,9.04721213415937,-2.47413556321909,-298.401058992279
738540.48422164691146463156,9.07490768150883,-2.48336741233558,-298.382595294046
738540.48422173736616969109,9.01028473769341,-2.52952665791803,-298.419522690512
738540.48422182782087475061,9.02874843592639,-2.52952665791803,-298.428754539628
738540.48422191827557981014,9.00105288857692,-2.55722220526749,-298.419522690512
738540.48422200873028486967,9.00105288857692,-2.56645405438398,-298.401058992279
738540.48422209918498992920,8.97335734122745,-2.59414960173345,-298.465681936094
738540.48422218952327966690,8.98258919034394,-2.59414960173345,-298.474913785211
738540.48422227997798472643,8.96412549211096,-2.58491775261696,-298.53030487991
738540.48422237043268978596,9.0195165868099,-2.52029480880154,-298.474913785211
738540.48422246088739484549,9.06567583239235,-2.45567186498611,-298.521073030793
738540.48422255134209990501,8.9364299447615,-2.58491775261696,-298.465681936094
738540.48422264179680496454,8.82564775536363,-2.71416364024781,-298.50260933256
738540.48422273213509470224,9.04721213415937,-2.51106295968505,-298.456450086978
738540.48422282258979976177,9.19492172002319,-2.32642597735527,-298.428754539628
738540.48422291304450482130,9.17645802179022,-2.31719412823878,-298.465681936094
738540.48422300349920988083,8.84411145359661,-2.74185918759728,-298.539536729026
738540.48422309395391494036,8.78872035889767,-2.73262733848079,-298.558000427259
738540.48422318429220467806,8.70563371684927,-2.82494582964568,-298.567232276376
738540.48422327474690973759,8.65024262215033,-2.88033692434461,-298.539536729026
738540.48422336520161479712,8.84411145359661,-2.74185918759728,-298.567232276376
738540.48422345565631985664,8.91796624652852,-2.66800439466536,-298.53030487991
738540.48422354611102491617,8.91796624652852,-2.65877254554888,-298.484145634327
738540.48422363656572997570,8.9364299447615,-2.6403088473159,-298.53030487991
738540.48422372690401971340,8.9364299447615,-2.63107699819941,-298.539536729026
738540.48422381735872477293,8.92719809564501,-2.63107699819941,-298.493377483444
738540.48422390781342983246,8.94566179387799,-2.62184514908292,-298.474913785211
738540.48422399826813489199,8.95489364299448,-2.61261329996643,-298.539536729026
738540.48422408872283995152,9.06567583239235,-2.50183111056856,-298.539536729026
738540.48422417906112968922,8.91796624652852,-2.63107699819941,-298.521073030793
738540.48422426951583474874,8.83487960448012,-2.73262733848079,-298.576464125492
738540.48422435997053980827,9.06567583239235,-2.50183111056856,-298.567232276376
738540.48422445042524486780,9.79499191259499,-1.70789208655049,-298.50260933256
738540.48422454087994992733,8.84411145359661,-2.70493179113132,-298.558000427259
738540.48422463133465498686,8.55792413098544,-3.01881466109195,-298.548768578143
738540.48422472167294472456,8.79795220801416,-2.76955473494675,-298.53030487991
738540.48422481212764978409,8.74256111331523,-2.8064821314127,-298.511841181677
738540.48422490258235484362,8.68717001861629,-2.87110507522813,-298.548768578143
738540.48422499303705990314,8.80718405713065,-2.74185918759728,-298.548768578143
738540.48422508349176496267,8.87180700094607,-2.68646809289834,-298.53030487991
738540.48422517383005470037,8.89027069917905,-2.66800439466536,-298.493377483444
738540.48422526428475975990,8.91796624652852,-2.65877254554888,-298.53030487991
738540.48422535473946481943,8.90873439741203,-2.66800439466536,-298.401058992279
738540.48422544519416987896,8.90873439741203,-2.66800439466536,-298.53030487991
738540.48422553564887493849,8.92719809564501,-2.6403088473159,-298.521073030793
738540.48422562610357999802,9.13029877620777,-2.40951261940367,-298.493377483444
738540.48422571644186973572,8.91796624652852,-2.64954069643239,-298.511841181677
738540.48422580689657479525,9.14876247444075,-2.42797631763665,-298.50260933256
738540.48422589735127985477,9.42571794793542,-2.05870235297708,-298.447218237861
738540.48422598780598491430,8.32712790307321,-3.22191534165471,-298.521073030793
738540.48422607826068997383,8.55792413098544,-3.01881466109195,-298.50260933256
738540.48422616871539503336,8.75179296243171,-2.8064821314127,-298.465681936094
738540.48422625905368477106,8.82564775536363,-2.7233954893643,-298.419522690512
738540.48422634950838983059,8.83487960448012,-2.70493179113132,-298.336436048463
738540.48422643996309489012,8.89950254829554,-2.65877254554888,-298.474913785211
738540.48422653041779994965,8.89950254829554,-2.66800439466536,-298.521073030793
738540.48422662087250500917,8.90873439741203,-2.65877254554888,-298.465681936094
738540.48422671121079474688,8.89027069917905,-2.66800439466536,-298.484145634327
738540.48422680166549980640,8.90873439741203,-2.65877254554888,-298.493377483444
738540.48422689212020486593,9.13953062532426,-2.42797631763665,-298.456450086978
738540.48422698257490992546,9.13953062532426,-2.40951261940367,-298.50260933256
738540.48422707302961498499,8.98258919034394,-2.58491775261696,-298.53030487991
738540.48422716348432004452,9.00105288857692,-2.54799035615101,-298.539536729026
738540.48422725382260978222,8.77948850978118,-2.81571398052919,-298.511841181677
738540.48422734427731484175,8.80718405713065,-2.79725028229621,-298.539536729026
738540.48422743473201990128,8.81641590624714,-2.77878658406323,-298.558000427259
738540.48422752518672496080,8.86257515182958,-2.69569994201483,-298.474913785211
738540.48422761564143002033,8.90873439741203,-2.62184514908292,-298.539536729026
738540.48422770597971975803,8.90873439741203,-2.62184514908292,-298.558000427259
738540.48422779643442481756,8.90873439741203,-2.6403088473159,-298.567232276376
738540.48422788688912987709,8.89027069917905,-2.64954069643239,-298.511841181677
738540.48422797734383493662,8.89027069917905,-2.64954069643239,-298.558000427259
738540.48422806779853999615,9.04721213415937,-2.48336741233558,-298.548768578143
738540.48422815825324505568,9.31493575853755,-2.19718008972442,-298.447218237861
738540.48422824859153479338,8.79795220801416,-2.7233954893643,-298.567232276376
738540.48422833904623985291,8.6779381694998,-2.84340952787866,-298.594927823725
738540.48422842950094491243,8.60408337656789,-2.93572801904355,-298.511841181677
738540.48422851995564997196,8.77025666066469,-2.74185918759728,-298.539536729026
738540.48422861041035503149,8.84411145359661,-2.64954069643239,-298.474913785211
738540.48422870086506009102,8.81641590624714,-2.74185918759728,-298.511841181677
738540.48422879120334982872,9.02874843592639,-2.52029480880154,-298.410290841395
738540.48422888165805488825,9.39802240058595,-2.36335337382122,-298.373363444929
738540.48422897211275994778,9.65651417584765,-2.15102084414197,-298.382595294046
738540.48422906256746500731,9.26877651295511,-2.53875850703452,-298.428754539628
738540.48422915302217006683,8.94566179387799,-2.77878658406323,-298.493377483444
738540.48422924336045980453,8.82564775536363,-2.54799035615101,-298.50260933256
738540.48422933381516486406,8.52099673451949,-2.69569994201483,-298.493377483444
738540.48422942426986992359,8.29943235572375,-2.88033692434461,-298.493377483444
738540.48422951472457498312,8.27173680837428,-3.03727835932493,-298.50260933256
738540.48422960517928004265,8.43791009247108,-2.91726432081057,-298.484145634327
738540.48422969563398510218,8.66870632038331,-2.76032288583026,-298.456450086978
738540.48422978597227483988,8.75179296243171,-2.70493179113132,-298.50260933256
738540.48422987642697989941,8.78872035889767,-2.70493179113132,-298.419522690512
738540.48422996688168495893,8.85334330271309,-2.65877254554888,-298.558000427259
738540.48423005733639001846,8.85334330271309,-2.66800439466536,-298.576464125492
738540.48423014779109507799,8.87180700094607,-2.66800439466536,-298.484145634327
738540.48423023812938481569,8.98258919034394,-2.54799035615101,-298.511841181677
738540.48423032858408987522,9.1026032288583,-2.40028077028718,-298.511841181677
738540.48423041903879493475,9.04721213415937,-2.49259926145207,-298.521073030793
738540.48423050949349999428,8.81641590624714,-2.7233954893643,-298.558000427259
738540.48423059994820505381,8.92719809564501,-2.58491775261696,-298.511841181677
738540.48423069040291011333,8.73332926419874,-2.8064821314127,-298.558000427259
738540.48423078074119985104,8.72409741508225,-2.83417767876217,-298.548768578143
738540.48423087119590491056,8.82564775536363,-2.74185918759728,-298.539536729026
738540.48423096165060997009,8.89027069917905,-2.67723624378185,-298.50260933256
738540.48423105210531502962,8.96412549211096,-2.62184514908292,-298.484145634327
738540.48423114256002008915,8.96412549211096,-2.60338145084994,-298.53030487991
738540.48423123289830982685,8.99182103946043,-2.56645405438398,-298.576464125492
738540.48423132335301488638,8.97335734122745,-2.59414960173345,-298.567232276376
738540.48423141380771994591,9.02874843592639,-2.55722220526749,-298.50260933256
738540.48423150426242500544,9.04721213415937,-2.53875850703452,-298.585695974609
738540.48423159471713006496,9.11183507797479,-2.4649037141026,-298.548768578143
738540.48423168517183512449,9.80422376171148,-1.72635578478347,-298.474913785211
738540.48423177551012486219,9.34263130588702,-2.20641193884091,-298.53030487991
738540.48423186596482992172,8.69640186773278,-2.89880062257759,-298.594927823725
738540.48423195641953498125,8.86257515182958,-2.75109103671377,-298.576464125492
738540.48423204687424004078,8.89950254829554,-2.69569994201483,-298.558000427259
738540.48423213732894510031,9.02874843592639,-2.55722220526749,-298.548768578143
738540.48423222778365015984,9.09337137974181,-2.48336741233558,-298.53030487991
738540.48423231812193989754,9.08413953062532,-2.48336741233558,-298.521073030793
738540.48423240857664495707,9.09337137974181,-2.49259926145207,-298.558000427259
738540.48423249903135001659,9.03798028504288,-2.52952665791803,-298.594927823725
738540.48423258948605507612,9.02874843592639,-2.53875850703452,-298.53030487991
738540.48423267994076013565,8.99182103946043,-2.57568590350047,-298.558000427259
738540.48423277027904987335,8.96412549211096,-2.59414960173345,-298.567232276376
738540.48423286073375493288,8.95489364299448,-2.60338145084994,-298.53030487991
738540.48423295118845999241,9.17645802179022,-2.35412152470473,-298.558000427259
738540.48423304164316505194,9.1856898709067,-2.33565782647175,-298.604159672842
738540.48423313209787011147,8.70563371684927,-2.87110507522813,-298.558000427259
738540.48423322255257517099,8.9364299447615,-2.61261329996643,-298.567232276376
738540.48423331289086490870,8.83487960448012,-2.71416364024781,-298.558000427259
738540.48423340334556996822,8.63177892391736,-2.96342356639302,-298.419522690512
738540.48423349380027502775,8.6779381694998,-2.91726432081057,-298.511841181677
738540.48423358425498008728,8.79795220801416,-2.79725028229621,-298.484145634327
738540.48423367470968514681,8.81641590624714,-2.74185918759728,-298.521073030793
738540.48423376504797488451,8.86257515182958,-2.74185918759728,-298.539536729026
738540.48423385550267994404,8.89950254829554,-2.69569994201483,-298.50260933256
738540.48423394595738500357,9.19492172002319,-2.3818170720542,-298.484145634327
738540.48423403641209006310,8.83487960448012,-2.76032288583026,-298.539536729026
738540.48423412686679512262,9.45341349528489,-2.10486159855953,-298.493377483444
738540.48423421732150018215,8.88103885006256,-2.70493179113132,-298.53030487991
738540.48423430765978991985,8.43791009247108,-3.20345164342174,-298.604159672842
738540.48423439811449497938,8.72409741508225,-2.8895687734611,-298.567232276376
738540.48423448856920003891,8.83487960448012,-2.77878658406323,-298.53030487991
738540.48423457902390509844,8.84411145359661,-2.74185918759728,-298.604159672842
738540.48423466947861015797,8.89027069917905,-2.71416364024781,-298.594927823725
738540.48423475981689989567,9.00105288857692,-2.59414960173345,-298.539536729026
738540.48423485027160495520,8.82564775536363,-2.75109103671377,-298.594927823725
738540.48423494072631001472,9.19492172002319,-2.35412152470473,-298.50260933256
738540.48423503118101507425,8.98258919034394,-2.60338145084994,-298.53030487991
738540.48423512163572013378,8.60408337656789,-3.00035096285897,-298.567232276376
738540.48423521209042519331,9.04721213415937,-2.52029480880154,-298.594927823725
738540.48423530242871493101,9.24108096560564,-2.28949858088931,-298.548768578143
738540.48423539288341999054,8.56715598010193,-3.01881466109195,-298.585695974609
738540.48423548333812505007,8.70563371684927,-2.88033692434461,-298.53030487991
738540.48423557379283010960,8.81641590624714,-2.76032288583026,-298.594927823725
738540.48423566424753516912,8.84411145359661,-2.7233954893643,-298.604159672842
738540.48423575470224022865,8.87180700094607,-2.69569994201483,-298.548768578143
738540.48423584504052996635,9.03798028504288,-2.52952665791803,-298.585695974609
738540.48423593549523502588,9.12106692709128,-2.42797631763665,-298.558000427259
738540.48423602594994008541,8.61331522568438,-2.96342356639302,-298.594927823725
738540.48423611640464514494,8.88103885006256,-2.69569994201483,-298.567232276376
738540.48423620685935020447,8.9364299447615,-2.61261329996643,-298.594927823725
738540.48423629719763994217,8.73332926419874,-2.85264137699515,-298.604159672842
738540.48423638765234500170,8.7610248115482,-2.83417767876217,-298.539536729026
738540.48423647810705006123,8.84411145359661,-2.74185918759728,-298.613391521958
738540.48423656856175512075,8.88103885006256,-2.71416364024781,-298.585695974609
738540.48423665901646018028,9.24108096560564,-2.33565782647175,-298.511841181677
738540.48423674947116523981,9.21338541825617,-2.35412152470473,-298.604159672842
738540.48423683980945497751,8.62254707480087,-2.981887264626,-298.456450086978
738540.48423693026416003704,8.53022858363597,-3.08343760490738,-298.539536729026
738540.48423702071886509657,8.73332926419874,-2.85264137699515,-298.641087069308
738540.48423711117357015610,8.77025666066469,-2.8064821314127,-298.594927823725
738540.48423720162827521563,8.80718405713065,-2.76032288583026,-298.548768578143
738540.48423729196656495333,8.85334330271309,-2.73262733848079,-298.493377483444
738540.48423738242127001286,8.85334330271309,-2.7233954893643,-298.521073030793
738540.48423747287597507238,8.84411145359661,-2.73262733848079,-298.511841181677
738540.48423756333068013191,8.84411145359661,-2.73262733848079,-298.437986388745
738540.48423765378538519144,8.86257515182958,-2.74185918759728,-298.474913785211
738540.48423774424009025097,8.87180700094607,-2.74185918759728,-298.50260933256
738540.48423783457837998867,9.07490768150883,-2.53875850703452,-298.539536729026
738540.48423792503308504820,9.23184911648915,-2.37258522293771,-298.558000427259
738540.48423801548779010773,8.9364299447615,-2.69569994201483,-298.567232276376
738540.48423810594249516726,8.65947447126682,-3.00958281197546,-298.604159672842
738540.48423819639720022678,8.78872035889767,-2.85264137699515,-298.594927823725
738540.48423828685190528631,8.86257515182958,-2.76955473494675,-298.585695974609
738540.48423837719019502401,9.05644398327586,-2.58491775261696,-298.548768578143
738540.48423846764490008354,9.1026032288583,-2.48336741233558,-298.539536729026
738540.48423855809960514307,8.74256111331523,-2.87110507522813,-298.558000427259
738540.48423864855431020260,8.77948850978118,-2.81571398052919,-298.558000427259
738540.48423873900901526213,8.84411145359661,-2.76032288583026,-298.567232276376
738540.48423882934730499983,8.87180700094607,-2.73262733848079,-298.53030487991
738540.48423891980201005936,8.88103885006256,-2.71416364024781,-298.567232276376
738540.48423901025671511889,9.0195165868099,-2.57568590350047,-298.604159672842
738540.48423910071142017841,9.17645802179022,-2.40028077028718,-298.585695974609
738540.48423919116612523794,8.69640186773278,-2.90803247169408,-298.622623371075
738540.48423928162083029747,8.65024262215033,-2.96342356639302,-298.613391521958
738540.48423937195912003517,8.75179296243171,-2.84340952787866,-298.594927823725
738540.48423946241382509470,8.85334330271309,-2.74185918759728,-298.53030487991
738540.48423955286853015423,8.89950254829554,-2.69569994201483,-298.576464125492
738540.48423964332323521376,9.25954466383862,-2.37258522293771,-298.576464125492
738540.48423973377794027328,8.5948515274514,-3.02804651020844,-298.604159672842
738540.48423982411623001099,9.0195165868099,-2.71416364024781,-298.594927823725
738540.48423991457093507051,9.49034089175085,-2.40028077028718,-298.456450086978
738540.48424000502564013004,9.4441816461684,-2.3818170720542,-298.511841181677
738540.48424009548034518957,8.97335734122745,-2.92649616992706,-298.594927823725
738540.48424018593505024910,8.53946043275246,-3.12036500137333,-298.567232276376
738540.48424027638975530863,8.38251899777215,-3.01881466109195,-298.567232276376
738540.48424036672804504633,8.38251899777215,-2.92649616992706,-298.401058992279
738540.48424045718275010586,8.49330118717002,-2.88033692434461,-298.456450086978
738540.48424054763745516539,8.62254707480087,-2.84340952787866,-298.548768578143
738540.48424063809216022491,8.70563371684927,-2.83417767876217,-298.585695974609
738540.48424072854686528444,8.77948850978118,-2.82494582964568,-298.650318918424
738540.48424081888515502214,8.83487960448012,-2.77878658406323,-298.613391521958
738540.48424090933986008167,9.0195165868099,-2.59414960173345,-298.604159672842
738540.48424099979456514120,9.50880458998382,-2.08639790032655,-298.594927823725
738540.48424109024927020073,8.66870632038331,-2.95419171727653,-298.594927823725
738540.48424118070397526026,8.47483748893704,-3.19421979430525,-298.659550767541
738540.48424127115868031979,8.5948515274514,-3.07420575579089,-298.641087069308
738540.48424136149697005749,8.69640186773278,-2.93572801904355,-298.641087069308
738540.48424145195167511702,8.7610248115482,-2.87110507522813,-298.594927823725
738540.48424154240638017654,8.82564775536363,-2.83417767876217,-298.631855220191
738540.48424163286108523607,8.82564775536363,-2.81571398052919,-298.641087069308
738540.48424172331579029560,8.85334330271309,-2.79725028229621,-298.585695974609
738540.48424181377049535513,8.85334330271309,-2.8064821314127,-298.622623371075
738540.48424190410878509283,8.87180700094607,-2.79725028229621,-298.604159672842
738540.48424199456349015236,8.87180700094607,-2.78801843317972,-298.53030487991
738540.48424208501819521189,8.89950254829554,-2.76955473494675,-298.521073030793
738540.48424217547290027142,8.96412549211096,-2.7233954893643,-298.50260933256
738540.48424226592760533094,8.99182103946043,-2.66800439466536,-298.50260933256
738540.48424235626589506865,8.87180700094607,-2.81571398052919,-298.521073030793
738540.48424244672060012817,8.97335734122745,-2.71416364024781,-298.585695974609
738540.48424253717530518770,9.02874843592639,-2.64954069643239,-298.511841181677
738540.48424262763001024723,8.96412549211096,-2.73262733848079,-298.521073030793
738540.48424271808471530676,9.11183507797479,-2.57568590350047,-298.567232276376
738540.48424280853942036629,9.15799432355724,-2.52029480880154,-298.493377483444
738540.48424289887771010399,8.98258919034394,-2.69569994201483,-298.576464125492
738540.48424298933241516352,9.25954466383862,-2.40951261940367,-298.539536729026
738540.48424307978712022305,9.36109500412,-2.27103488265633,-298.484145634327
738540.48424317024182528257,8.78872035889767,-2.89880062257759,-298.576464125492
738540.48424326069653034210,8.87180700094607,-2.78801843317972,-298.548768578143
738540.48424335103482007980,8.95489364299448,-2.70493179113132,-298.594927823725
738540.48424344148952513933,8.96412549211096,-2.67723624378185,-298.594927823725
738540.48424353194423019886,8.91796624652852,-2.71416364024781,-298.558000427259
738540.48424362239893525839,8.9364299447615,-2.70493179113132,-298.558000427259
738540.48424371285364031792,8.87180700094607,-2.75109103671377,-298.576464125492
738540.48424380330834537745,8.86257515182958,-2.76032288583026,-298.585695974609
738540.48424389364663511515,8.85334330271309,-2.77878658406323,-298.511841181677
738540.48424398410134017467,8.82564775536363,-2.79725028229621,-298.521073030793
738540.48424407455604523420,8.80718405713065,-2.8064821314127,-298.622623371075
738540.48424416501075029373,8.88103885006256,-2.73262733848079,-298.558000427259
738540.48424425546545535326,9.13029877620777,-2.47413556321909,-298.539536729026
738540.48424434592016041279,9.14876247444075,-2.4649037141026,-298.539536729026
738540.48424443625845015049,8.49330118717002,-3.15729239783929,-298.558000427259
738540.48424452671315521002,8.53022858363597,-3.10190130314035,-298.576464125492
738540.48424461716786026955,8.65947447126682,-2.96342356639302,-298.585695974609
738540.48424470762256532907,8.69640186773278,-2.91726432081057,-298.622623371075
738540.48424479807727038860,8.77025666066469,-2.85264137699515,-298.604159672842
738540.48424488841556012630,8.75179296243171,-2.8895687734611,-298.631855220191
738540.48424497887026518583,8.78872035889767,-2.85264137699515,-298.631855220191
738540.48424506932497024536,8.75179296243171,-2.88033692434461,-298.604159672842
738540.48424515977967530489,8.78872035889767,-2.86187322611164,-298.641087069308
738540.48424525023438036442,8.79795220801416,-2.85264137699515,-298.641087069308
738540.48424534068908542395,8.81641590624714,-2.84340952787866,-298.650318918424
738540.48424543102737516165,8.79795220801416,-2.85264137699515,-298.631855220191
738540.48424552148208022118,8.80718405713065,-2.84340952787866,-298.631855220191
738540.48424561193678528070,8.84411145359661,-2.77878658406323,-298.650318918424
738540.48424570239149034023,8.81641590624714,-2.81571398052919,-298.668782616657
738540.48424579284619539976,8.96412549211096,-2.67723624378185,-298.659550767541
738540.48424588318448513746,9.00105288857692,-2.63107699819941,-298.659550767541
738540.48424597363919019699,8.61331522568438,-3.01881466109195,-298.604159672842
738540.48424606409389525652,8.64101077303384,-3.00035096285897,-298.622623371075
738540.48424615454860031605,8.78872035889767,-2.85264137699515,-298.558000427259
738540.48424624500330537558,8.79795220801416,-2.82494582964568,-298.585695974609
738540.48424633545801043510,8.71486556596576,-2.90803247169408,-298.613391521958
738540.48424642579630017281,8.73332926419874,-2.8895687734611,-298.650318918424
738540.48424651625100523233,8.71486556596576,-2.87110507522813,-298.678014465773
738540.48424660670571029186,8.73332926419874,-2.86187322611164,-298.659550767541
738540.48424669716041535139,8.7610248115482,-2.84340952787866,-298.650318918424
738540.48424678761512041092,8.72409741508225,-2.87110507522813,-298.696478164006
738540.48424687795341014862,8.77948850978118,-2.81571398052919,-298.641087069308
738540.48424696840811520815,9.00105288857692,-2.57568590350047,-298.576464125492
738540.48424705886282026768,8.89950254829554,-2.70493179113132,-298.594927823725
738540.48424714931752532721,8.70563371684927,-2.89880062257759,-298.622623371075
738540.48424723977223038673,8.64101077303384,-2.981887264626,-298.604159672842
738540.48424733022693544626,8.5948515274514,-2.99111911374248,-298.622623371075
738540.48424742056522518396,8.63177892391736,-2.94495986816004,-298.493377483444
738540.48424751101993024349,8.65024262215033,-2.94495986816004,-298.447218237861
738540.48424760147463530302,8.71486556596576,-2.89880062257759,-298.594927823725
738540.48424769192934036255,8.72409741508225,-2.87110507522813,-298.622623371075
738540.48424778238404542208,8.73332926419874,-2.86187322611164,-298.576464125492
738540.48424787283875048161,8.74256111331523,-2.86187322611164,-298.604159672842
738540.48424796317704021931,8.72409741508225,-2.85264137699515,-298.650318918424
738540.48424805363174527884,8.74256111331523,-2.83417767876217,-298.659550767541
738540.48424814408645033836,8.71486556596576,-2.85264137699515,-298.585695974609
738540.48424823454115539789,8.74256111331523,-2.85264137699515,-298.68724631489
738540.48424832499586045742,8.71486556596576,-2.86187322611164,-298.68724631489
738540.48424841533415019512,8.74256111331523,-2.82494582964568,-298.68724631489
738540.48424850578885525465,8.77025666066469,-2.78801843317972,-298.631855220191
738540.48424859624356031418,8.78872035889767,-2.78801843317972,-298.659550767541
738540.48424868669826537371,8.86257515182958,-2.64954069643239,-298.641087069308
738540.48424877715297043324,8.96412549211096,-2.59414960173345,-298.631855220191
738540.48424886760767549276,8.73332926419874,-2.86187322611164,-298.68724631489
738540.48424895794596523046,8.84411145359661,-2.69569994201483,-298.659550767541
738540.48424904840067028999,8.47483748893704,-3.1480605487228,-298.696478164006
738540.48424913885537534952,8.60408337656789,-3.01881466109195,-298.650318918424
738540.48424922931008040905,8.72409741508225,-2.8895687734611,-298.613391521958
738540.48424931976478546858,8.77025666066469,-2.83417767876217,-298.594927823725
738540.48424941010307520628,8.79795220801416,-2.82494582964568,-298.567232276376
738540.48424950055778026581,8.77948850978118,-2.81571398052919,-298.585695974609
738540.48424959101248532534,8.80718405713065,-2.77878658406323,-298.585695974609
738540.48424968146719038486,8.7610248115482,-2.8064821314127,-298.631855220191
738540.48424977192189544439,8.7610248115482,-2.78801843317972,-298.650318918424
738540.48424986237660050392,8.75179296243171,-2.8064821314127,-298.705710013123
738540.48424995271489024162,8.70563371684927,-2.83417767876217,-298.631855220191
738540.48425004316959530115,8.68717001861629,-2.84340952787866,-298.68724631489
738540.48425013362430036068,8.70563371684927,-2.81571398052919,-298.668782616657
738540.48425022407900542021,8.71486556596576,-2.81571398052919,-298.613391521958
738540.48425031453371047974,8.75179296243171,-2.77878658406323,-298.585695974609
738540.48425040487200021744,8.66870632038331,-2.86187322611164,-298.521073030793
738540.48425049532670527697,8.62254707480087,-2.89880062257759,-298.585695974609
738540.48425058578141033649,8.65947447126682,-2.84340952787866,-298.613391521958
738540.48425067623611539602,8.77025666066469,-2.77878658406323,-298.567232276376
738540.48425076669082045555,8.88103885006256,-2.63107699819941,-298.548768578143
738540.48425085714552551508,9.28724021118808,-2.40951261940367,-298.511841181677
738540.48425094748381525278,9.45341349528489,-2.28026673177282,-298.419522690512
738540.48425103793852031231,9.06567583239235,-2.69569994201483,-298.465681936094
738540.48425112839322537184,8.70563371684927,-3.08343760490738,-298.650318918424
738540.48425121884793043137,8.7610248115482,-2.6403088473159,-298.650318918424
738540.48425130930263549089,8.32712790307321,-2.91726432081057,-298.659550767541
738540.48425139975734055042,8.0870998260445,-3.12959685048982,-298.659550767541
738540.48425149009563028812,8.17941831720939,-3.10190130314035,-298.659550767541
738540.48425158055033534765,8.41021454512162,-2.93572801904355,-298.659550767541
738540.48425167100504040718,8.53022858363597,-2.88033692434461,-298.641087069308
738540.48425176145974546671,8.60408337656789,-2.85264137699515,-298.622623371075
738540.48425185191445052624,8.65024262215033,-2.83417767876217,-298.622623371075
738540.48425194225274026394,8.6779381694998,-2.83417767876217,-298.613391521958
738540.48425203270744532347,8.6779381694998,-2.81571398052919,-298.650318918424
738540.48425212316215038300,8.69640186773278,-2.79725028229621,-298.650318918424
738540.48425221361685544252,8.68717001861629,-2.8064821314127,-298.678014465773
738540.48425230407156050205,8.73332926419874,-2.77878658406323,-298.668782616657
738540.48425239452626556158,8.72409741508225,-2.78801843317972,-298.585695974609
738540.48425248486455529928,8.89027069917905,-2.61261329996643,-298.650318918424
738540.48425257531926035881,8.97335734122745,-2.50183111056856,-298.678014465773
738540.48425266577396541834,8.77948850978118,-2.74185918759728,-298.604159672842
738540.48425275622867047787,8.7610248115482,-2.74185918759728,-298.650318918424
738540.48425284668337553740,8.72409741508225,-2.77878658406323,-298.678014465773
738540.48425293702166527510,8.53022858363597,-3.00958281197546,-298.659550767541
738540.48425302747637033463,8.60408337656789,-2.96342356639302,-298.631855220191
738540.48425311793107539415,8.73332926419874,-2.82494582964568,-298.576464125492
738540.48425320838578045368,8.80718405713065,-2.77878658406323,-298.567232276376
738540.48425329884048551321,8.86257515182958,-2.73262733848079,-298.558000427259
738540.48425338929519057274,8.89027069917905,-2.69569994201483,-298.576464125492
738540.48425347963348031044,8.90873439741203,-2.67723624378185,-298.613391521958
738540.48425357008818536997,8.91796624652852,-2.65877254554888,-298.567232276376
738540.48425366054289042950,8.96412549211096,-2.62184514908292,-298.659550767541
738540.48425375099759548903,8.96412549211096,-2.61261329996643,-298.641087069308
738540.48425384145230054855,8.96412549211096,-2.58491775261696,-298.594927823725
738540.48425393190700560808,8.98258919034394,-2.56645405438398,-298.631855220191
738540.48425402224529534578,8.99182103946043,-2.55722220526749,-298.622623371075
738540.48425411270000040531,8.99182103946043,-2.54799035615101,-298.631855220191
738540.48425420315470546484,8.99182103946043,-2.55722220526749,-298.650318918424
738540.48425429360941052437,8.96412549211096,-2.56645405438398,-298.613391521958
738540.48425438406411558390,8.91796624652852,-2.60338145084994,-298.659550767541
738540.48425447440240532160,8.88103885006256,-2.62184514908292,-298.567232276376
738540.48425456485711038113,8.84411145359661,-2.64954069643239,-298.474913785211
738540.48425465531181544065,8.82564775536363,-2.65877254554888,-298.585695974609
738540.48425474576652050018,8.77025666066469,-2.70493179113132,-298.650318918424
738540.48425483622122555971,8.78872035889767,-2.70493179113132,-298.641087069308
738540.48425492667593061924,8.78872035889767,-2.71416364024781,-298.68724631489
738540.48425501701422035694,8.7610248115482,-2.73262733848079,-298.68724631489
738540.48425510746892541647,8.80718405713065,-2.68646809289834,-298.594927823725
738540.48425519792363047600,8.71486556596576,-2.75109103671377,-298.613391521958
738540.48425528837833553553,8.66870632038331,-2.79725028229621,-298.604159672842
738540.48425537883304059505,8.79795220801416,-2.67723624378185,-298.594927823725
738540.48425546917133033276,8.75179296243171,-2.71416364024781,-298.604159672842
738540.48425555962603539228,9.12106692709128,-2.34488967558824,-298.594927823725
738540.48425565008074045181,8.72409741508225,-2.76032288583026,-298.631855220191
738540.48425574053544551134,8.45637379070406,-3.04651020844142,-298.641087069308
738540.48425583099015057087,8.58561967833491,-2.91726432081057,-298.641087069308
738540.48425592144485563040,8.61331522568438,-2.8895687734611,-298.641087069308
738540.48425601178314536810,8.65024262215033,-2.85264137699515,-298.622623371075
738540.48425610223785042763,8.69640186773278,-2.8064821314127,-298.631855220191
738540.48425619269255548716,8.71486556596576,-2.78801843317972,-298.650318918424
738540.48425628314726054668,8.70563371684927,-2.78801843317972,-298.585695974609
738540.48425637360196560621,8.73332926419874,-2.76955473494675,-298.604159672842
738540.48425646394025534391,8.73332926419874,-2.77878658406323,-298.594927823725
738540.48425655439496040344,8.74256111331523,-2.76032288583026,-298.567232276376
738540.48425664484966546297,8.74256111331523,-2.76955473494675,-298.604159672842
738540.48425673530437052250,8.72409741508225,-2.76955473494675,-298.622623371075
738540.48425682575907558203,8.72409741508225,-2.76032288583026,-298.585695974609
738540.48425691621378064156,8.74256111331523,-2.75109103671377,-298.668782616657
738540.48425700655207037926,8.70563371684927,-2.76955473494675,-298.659550767541
738540.48425709700677543879,8.70563371684927,-2.76032288583026,-298.650318918424
738540.48425718746148049831,8.73332926419874,-2.74185918759728,-298.631855220191
738540.48425727791618555784,8.74256111331523,-2.73262733848079,-298.724173711356
738540.48425736837089061737,8.70563371684927,-2.77878658406323,-298.705710013123
738540.48425745882559567690,8.75179296243171,-2.7233954893643,-298.594927823725
738540.48425754916388541460,8.9364299447615,-2.52952665791803,-298.659550767541
738540.48425763961859047413,8.71486556596576,-2.74185918759728,-298.678014465773
738540.48425773007329553366,8.54869228186895,-2.91726432081057,-298.678014465773
738540.48425782052800059319,8.65024262215033,-2.82494582964568,-298.631855220191
738540.48425791098270565271,8.74256111331523,-2.73262733848079,-298.678014465773
738540.48425800132099539042,8.70563371684927,-2.76955473494675,-298.668782616657
738540.48425809177570044994,8.63177892391736,-2.83417767876217,-298.521073030793
738540.48425818223040550947,8.6779381694998,-2.79725028229621,-298.668782616657
738540.48425827268511056900,8.70563371684927,-2.78801843317972,-298.678014465773
738540.48425836313981562853,8.66870632038331,-2.78801843317972,-298.631855220191
738540.48425845359452068806,8.69640186773278,-2.76032288583026,-298.622623371075
738540.48425854393281042576,8.68717001861629,-2.76955473494675,-298.650318918424
738540.48425863438751548529,8.71486556596576,-2.75109103671377,-298.613391521958
738540.48425872484222054482,8.71486556596576,-2.76032288583026,-298.613391521958
738540.48425881529692560434,8.70563371684927,-2.75109103671377,-298.604159672842
738540.48425890575163066387,8.69640186773278,-2.75109103671377,-298.613391521958
738540.48425899608992040157,8.71486556596576,-2.74185918759728,-298.613391521958
738540.48425908654462546110,8.68717001861629,-2.76032288583026,-298.641087069308
738540.48425917699933052063,8.74256111331523,-2.7233954893643,-298.650318918424
738540.48425926745403558016,8.82564775536363,-2.64954069643239,-298.641087069308
738540.48425935790874063969,8.75179296243171,-2.69569994201483,-298.678014465773
738540.48425944836344569921,8.96412549211096,-2.47413556321909,-298.668782616657
738540.48425953870173543692,8.65947447126682,-2.79725028229621,-298.668782616657
738540.48425962915644049644,8.55792413098544,-2.91726432081057,-298.678014465773
738540.48425971961114555597,8.65024262215033,-2.83417767876217,-298.650318918424
738540.48425981006585061550,8.68717001861629,-2.81571398052919,-298.68724631489
738540.48425990052055567503,8.7610248115482,-2.74185918759728,-298.631855220191
738540.48425999097526073456,8.94566179387799,-2.53875850703452,-298.622623371075
738540.48426008131355047226,8.7610248115482,-2.76955473494675,-298.68724631489
738540.48426017176825553179,8.91796624652852,-2.58491775261696,-298.585695974609
738540.48426026222296059132,8.87180700094607,-2.63107699819941,-298.604159672842
738540.48426035267766565084,8.5948515274514,-2.92649616992706,-298.631855220191
738540.48426044313237071037,8.65024262215033,-2.83417767876217,-298.650318918424
738540.48426053347066044807,8.68717001861629,-2.78801843317972,-298.659550767541
738540.48426062392536550760,8.74256111331523,-2.73262733848079,-298.678014465773
738540.48426071438007056713,8.68717001861629,-2.76955473494675,-298.659550767541
738540.48426080483477562666,8.71486556596576,-2.76955473494675,-298.613391521958
738540.48426089528948068619,8.69640186773278,-2.76955473494675,-298.668782616657
738540.48426098574418574572,8.70563371684927,-2.74185918759728,-298.68724631489
738540.48426107608247548342,8.69640186773278,-2.76032288583026,-298.594927823725
738540.48426116653718054295,8.70563371684927,-2.76032288583026,-298.668782616657
738540.48426125699188560247,8.66870632038331,-2.76955473494675,-298.678014465773
738540.48426134744659066200,8.66870632038331,-2.76955473494675,-298.604159672842
738540.48426143790129572153,8.77025666066469,-2.74185918759728,-298.678014465773
738540.48426152823958545923,8.89027069917905,-2.55722220526749,-298.437986388745
738540.48426161869429051876,9.05644398327586,-2.51106295968505,-298.465681936094
738540.48426170914899557829,9.37955870235298,-2.40028077028718,-298.493377483444
738540.48426179960370063782,9.4441816461684,-2.27103488265633,-298.558000427259
738540.48426189005840569735,8.97335734122745,-2.71416364024781,-298.68724631489
738540.48426198051311075687,8.511764885403,-2.99111911374248,-298.641087069308
738540.48426207085140049458,8.63177892391736,-2.56645405438398,-298.668782616657
738540.48426216130610555410,8.20711386455885,-2.90803247169408,-298.678014465773
738540.48426225176081061363,8.1701864680929,-2.95419171727653,-298.641087069308
738540.48426234221551567316,8.43791009247108,-2.81571398052919,-298.641087069308
738540.48426243267022073269,8.53946043275246,-2.78801843317972,-298.678014465773
738540.48426252300851047039,8.74256111331523,-2.63107699819941,-298.68724631489
738540.48426261346321552992,9.07490768150883,-2.31719412823878,-298.613391521958
738540.48426270391792058945,8.73332926419874,-2.69569994201483,-298.678014465773
738540.48426279437262564898,8.41021454512162,-3.04651020844142,-298.696478164006
738540.48426288482733070850,8.50253303628651,-2.96342356639302,-298.613391521958
738540.48426297528203576803,8.64101077303384,-2.85264137699515,-298.678014465773
738540.48426306562032550573,8.70563371684927,-2.8064821314127,-298.696478164006
738540.48426315607503056526,8.69640186773278,-2.79725028229621,-298.604159672842
738540.48426324652973562479,8.7610248115482,-2.73262733848079,-298.659550767541
738540.48426333698444068432,8.77025666066469,-2.74185918759728,-298.659550767541
738540.48426342743914574385,8.79795220801416,-2.73262733848079,-298.650318918424
738540.48426351789385080338,8.79795220801416,-2.73262733848079,-298.576464125492
738540.48426360823214054108,8.78872035889767,-2.71416364024781,-298.650318918424
738540.48426369868684560061,8.82564775536363,-2.68646809289834,-298.594927823725
738540.48426378914155066013,8.82564775536363,-2.70493179113132,-298.567232276376
738540.48426387959625571966,8.86257515182958,-2.67723624378185,-298.521073030793
738540.48426397005096077919,8.87180700094607,-2.65877254554888,-298.548768578143
738540.48426406038925051689,8.87180700094607,-2.65877254554888,-298.558000427259
738540.48426415084395557642,8.89027069917905,-2.63107699819941,-298.548768578143
738540.48426424129866063595,8.92719809564501,-2.62184514908292,-298.521073030793
738540.48426433175336569548,8.95489364299448,-2.56645405438398,-298.539536729026
738540.48426442220807075500,9.31493575853755,-2.18794824060793,-298.521073030793
738540.48426451266277581453,9.13029877620777,-2.40951261940367,-298.567232276376
738540.48426460300106555223,8.90873439741203,-2.62184514908292,-298.567232276376
738540.48426469345577061176,8.84411145359661,-2.71416364024781,-298.604159672842
738540.48426478391047567129,8.94566179387799,-2.62184514908292,-298.613391521958
738540.48426487436518073082,9.00105288857692,-2.54799035615101,-298.576464125492
738540.48426496481988579035,9.00105288857692,-2.55722220526749,-298.558000427259
738540.48426505515817552805,8.97335734122745,-2.56645405438398,-298.437986388745
738540.48426514561288058758,8.97335734122745,-2.56645405438398,-298.456450086978
738540.48426523606758564711,8.96412549211096,-2.58491775261696,-298.604159672842
738540.48426532652229070663,8.94566179387799,-2.58491775261696,-298.622623371075
738540.48426541697699576616,8.9364299447615,-2.58491775261696,-298.659550767541
738540.48426550743170082569,8.89027069917905,-2.62184514908292,-298.585695974609
738540.48426559776999056339,8.88103885006256,-2.63107699819941,-298.659550767541
738540.48426568822469562292,8.84411145359661,-2.65877254554888,-298.650318918424
738540.48426577867940068245,8.83487960448012,-2.67723624378185,-298.613391521958
738540.48426586913410574198,8.88103885006256,-2.60338145084994,-298.622623371075
738540.48426595958881080151,9.03798028504288,-2.40951261940367,-298.650318918424
738540.48426604992710053921,9.02874843592639,-2.42797631763665,-298.558000427259
738540.48426614038180559874,8.68717001861629,-2.8064821314127,-298.650318918424
738540.48426623083651065826,8.54869228186895,-2.981887264626,-298.696478164006
738540.48426632129121571779,8.65947447126682,-2.84340952787866,-298.659550767541
738540.48426641174592077732,8.70563371684927,-2.78801843317972,-298.631855220191
738540.48426650220062583685,8.7610248115482,-2.76032288583026,-298.678014465773
738540.48426659253891557455,8.77025666066469,-2.73262733848079,-298.678014465773
738540.48426668299362063408,8.78872035889767,-2.73262733848079,-298.622623371075
738540.48426677344832569361,8.84411145359661,-2.68646809289834,-298.68724631489
738540.48426686390303075314,8.80718405713065,-2.70493179113132,-298.68724631489
738540.48426695435773581266,8.81641590624714,-2.70493179113132,-298.613391521958
738540.48426704481244087219,8.79795220801416,-2.73262733848079,-298.650318918424
738540.48426713515073060989,8.91796624652852,-2.59414960173345,-298.650318918424
738540.48426722560543566942,9.13029877620777,-2.36335337382122,-298.604159672842
738540.48426731606014072895,8.94566179387799,-2.56645405438398,-298.567232276376
738540.48426740651484578848,8.56715598010193,-2.95419171727653,-298.548768578143
738540.48426749696955084801,8.71486556596576,-2.79725028229621,-298.511841181677
738540.48426758730784058571,8.87180700094607,-2.63107699819941,-298.53030487991
738540.48426767776254564524,8.70563371684927,-2.79725028229621,-298.567232276376
738540.48426776821725070477,8.65947447126682,-2.83417767876217,-298.594927823725
738540.48426785867195576429,8.7610248115482,-2.75109103671377,-298.567232276376
738540.48426794912666082382,8.77025666066469,-2.73262733848079,-298.585695974609
738540.48426803958136588335,8.79795220801416,-2.7233954893643,-298.585695974609
738540.48426812991965562105,8.79795220801416,-2.70493179113132,-298.567232276376
738540.48426822037436068058,8.7610248115482,-2.73262733848079,-298.567232276376
738540.48426831082906574011,8.78872035889767,-2.71416364024781,-298.594927823725
738540.48426840128377079964,8.77948850978118,-2.7233954893643,-298.613391521958
738540.48426849173847585917,8.79795220801416,-2.71416364024781,-298.622623371075
738540.48426858207676559687,8.78872035889767,-2.71416364024781,-298.484145634327
738540.48426867253147065639,8.78872035889767,-2.71416364024781,-298.558000427259
738540.48426876298617571592,8.7610248115482,-2.73262733848079,-298.650318918424
738540.48426885344088077545,8.81641590624714,-2.70493179113132,-298.641087069308
738540.48426894389558583498,8.77948850978118,-2.7233954893643,-298.650318918424
738540.48426903435029089451,8.77948850978118,-2.71416364024781,-298.594927823725
738540.48426912468858063221,8.82564775536363,-2.69569994201483,-298.585695974609
738540.48426921514328569174,8.78872035889767,-2.7233954893643,-298.594927823725
738540.48426930559799075127,8.77948850978118,-2.71416364024781,-298.576464125492
738540.48426939605269581079,8.77948850978118,-2.7233954893643,-298.604159672842
738540.48426948650740087032,8.83487960448012,-2.69569994201483,-298.604159672842
738540.48426957696210592985,8.78872035889767,-2.7233954893643,-298.678014465773
738540.48426966730039566755,8.99182103946043,-2.52029480880154,-298.668782616657
738540.48426975775510072708,8.84411145359661,-2.64954069643239,-298.585695974609
738540.48426984820980578661,8.6779381694998,-2.83417767876217,-298.631855220191
738540.48426993866451084614,8.99182103946043,-2.53875850703452,-298.650318918424
738540.48427002911921590567,8.78872035889767,-2.74185918759728,-298.641087069308
738540.48427011945750564337,8.66870632038331,-2.84340952787866,-298.631855220191
738540.48427020991221070290,8.77948850978118,-2.74185918759728,-298.659550767541
738540.48427030036691576242,8.79795220801416,-2.70493179113132,-298.641087069308
738540.48427039082162082195,8.68717001861629,-2.82494582964568,-298.585695974609
738540.48427048127632588148,8.72409741508225,-2.79725028229621,-298.631855220191
738540.48427057173103094101,8.79795220801416,-2.73262733848079,-298.668782616657
738540.48427066206932067871,8.89950254829554,-2.62184514908292,-298.585695974609
738540.48427075252402573824,8.98258919034394,-2.52952665791803,-298.631855220191
738540.48427084297873079777,8.97335734122745,-2.54799035615101,-298.622623371075
738540.48427093343343585730,8.92719809564501,-2.64954069643239,-298.622623371075
738540.48427102388814091682,8.7610248115482,-2.82494582964568,-298.558000427259
738540.48427111422643065453,8.77948850978118,-2.8064821314127,-298.613391521958
738540.48427120468113571405,8.89027069917905,-2.67723624378185,-298.641087069308
738540.48427129513584077358,8.83487960448012,-2.71416364024781,-298.585695974609
738540.48427138559054583311,8.81641590624714,-2.73262733848079,-298.594927823725
738540.48427147604525089264,8.82564775536363,-2.71416364024781,-298.53030487991
738540.48427156649995595217,8.82564775536363,-2.69569994201483,-298.53030487991
738540.48427165683824568987,8.82564775536363,-2.69569994201483,-298.50260933256
738540.48427174729295074940,8.84411145359661,-2.67723624378185,-298.511841181677
738540.48427183774765580893,8.99182103946043,-2.51106295968505,-298.53030487991
738540.48427192820236086845,8.89027069917905,-2.62184514908292,-298.521073030793
738540.48427201865706592798,8.7610248115482,-2.76032288583026,-298.548768578143
738540.48427210899535566568,8.89027069917905,-2.63107699819941,-298.437986388745
738540.48427219945006072521,8.78872035889767,-2.71416364024781,-298.493377483444
738540.48427228990476578474,8.58561967833491,-2.95419171727653,-298.622623371075
738540.48427238035947084427,8.65024262215033,-2.84340952787866,-298.613391521958
738540.48427247081417590380,8.80718405713065,-2.74185918759728,-298.576464125492
738540.48427256126888096333,8.95489364299448,-2.57568590350047,-298.594927823725
738540.48427265160717070103,9.35186315500351,-2.40028077028718,-298.539536729026
738540.48427274206187576056,9.67497787408063,-2.19718008972442,-298.484145634327
738540.48427283251658082008,9.38879055146947,-2.42797631763665,-298.474913785211
738540.48427292297128587961,9.07490768150883,-2.71416364024781,-298.53030487991
738540.48427301342599093914,8.55792413098544,-3.00035096285897,-298.576464125492
738540.48427310388069599867,8.511764885403,-2.75109103671377,-298.594927823725
738540.48427319421898573637,8.49330118717002,-2.64954069643239,-298.539536729026
738540.48427328467369079590,8.3363597521897,-2.8895687734611,-298.585695974609
738540.48427337512839585543,8.55792413098544,-2.77878658406323,-298.585695974609
738540.48427346558310091496,8.83487960448012,-2.56645405438398,-298.594927823725
738540.48427355603780597448,8.71486556596576,-2.74185918759728,-298.594927823725
738540.48427364637609571218,8.61331522568438,-2.8895687734611,-298.585695974609
738540.48427373683080077171,8.74256111331523,-2.77878658406323,-298.576464125492
738540.48427382728550583124,8.78872035889767,-2.71416364024781,-298.604159672842
738540.48427391774021089077,8.77948850978118,-2.7233954893643,-298.613391521958
738540.48427400819491595030,8.81641590624714,-2.70493179113132,-298.558000427259
738540.48427409864962100983,8.80718405713065,-2.71416364024781,-298.604159672842
738540.48427418898791074753,8.80718405713065,-2.71416364024781,-298.594927823725
738540.48427427944261580706,8.88103885006256,-2.67723624378185,-298.585695974609
738540.48427436989732086658,8.91796624652852,-2.63107699819941,-298.613391521958
738540.48427446035202592611,9.03798028504288,-2.48336741233558,-298.594927823725
738540.48427455080673098564,9.15799432355724,-2.3818170720542,-298.576464125492
738540.48427464114502072334,8.90873439741203,-2.6403088473159,-298.631855220191
738540.48427473159972578287,8.70563371684927,-2.86187322611164,-298.631855220191
738540.48427482205443084240,8.78872035889767,-2.78801843317972,-298.613391521958
738540.48427491250913590193,9.01028473769341,-2.55722220526749,-298.576464125492
738540.48427500296384096146,8.81641590624714,-2.74185918759728,-298.604159672842
738540.48427509341854602098,8.86257515182958,-2.70493179113132,-298.631855220191
738540.48427518375683575869,9.02874843592639,-2.52952665791803,-298.548768578143
738540.48427527421154081821,8.91796624652852,-2.68646809289834,-298.585695974609
738540.48427536466624587774,8.9364299447615,-2.64954069643239,-298.604159672842
738540.48427545512095093727,9.04721213415937,-2.53875850703452,-298.604159672842
738540.48427554557565599680,9.05644398327586,-2.52952665791803,-298.548768578143
738540.48427563603036105633,9.11183507797479,-2.48336741233558,-298.474913785211
738540.48427572636865079403,9.20415356913968,-2.39104892117069,-298.336436048463
738540.48427581682335585356,9.2780083620716,-2.30796227912229,-298.493377483444
738540.48427590727806091309,9.16722617267373,-2.42797631763665,-298.484145634327
738540.48427599773276597261,9.25954466383862,-2.33565782647175,-298.539536729026
738540.48427608818747103214,9.1026032288583,-2.51106295968505,-298.548768578143
738540.48427617852576076984,9.12106692709128,-2.45567186498611,-298.493377483444
738540.48427626898046582937,8.91796624652852,-2.65877254554888,-298.493377483444
738540.48427635943517088890,8.94566179387799,-2.64954069643239,-298.456450086978
738540.48427644988987594843,8.96412549211096,-2.59414960173345,-298.484145634327
738540.48427654034458100796,8.95489364299448,-2.60338145084994,-298.511841181677
738540.48427663079928606749,8.94566179387799,-2.61261329996643,-298.484145634327
738540.48427672113757580519,8.89027069917905,-2.65877254554888,-298.521073030793
738540.48427681159228086472,9.04721213415937,-2.49259926145207,-298.539536729026
738540.48427690204698592424,9.05644398327586,-2.48336741233558,-298.53030487991
738540.48427699250169098377,8.74256111331523,-2.8064821314127,-298.594927823725
738540.48427708295639604330,8.89027069917905,-2.66800439466536,-298.585695974609
738540.48427717329468578100,8.98258919034394,-2.57568590350047,-298.594927823725
738540.48427726374939084053,8.74256111331523,-2.82494582964568,-298.567232276376
738540.48427735420409590006,8.85334330271309,-2.71416364024781,-298.576464125492
738540.48427744465880095959,8.84411145359661,-2.7233954893643,-298.539536729026
738540.48427753511350601912,8.87180700094607,-2.71416364024781,-298.521073030793
738540.48427762556821107864,8.99182103946043,-2.58491775261696,-298.53030487991
738540.48427771590650081635,9.07490768150883,-2.47413556321909,-298.558000427259
738540.48427780636120587587,8.90873439741203,-2.67723624378185,-298.558000427259
738540.48427789681591093540,9.1856898709067,-2.40028077028718,-298.548768578143
738540.48427798727061599493,8.64101077303384,-2.94495986816004,-298.622623371075
738540.48427807772532105446,8.68717001861629,-2.89880062257759,-298.622623371075
738540.48427816806361079216,8.96412549211096,-2.60338145084994,-298.576464125492
738540.48427825851831585169,8.85334330271309,-2.70493179113132,-298.585695974609
738540.48427834897302091122,8.75179296243171,-2.83417767876217,-298.641087069308
738540.48427843942772597075,8.85334330271309,-2.73262733848079,-298.613391521958
738540.48427852988243103027,8.88103885006256,-2.69569994201483,-298.594927823725
738540.48427862033713608980,8.87180700094607,-2.69569994201483,-298.576464125492
738540.48427871067542582750,8.90873439741203,-2.68646809289834,-298.594927823725
738540.48427880113013088703,8.94566179387799,-2.64954069643239,-298.613391521958
738540.48427889158483594656,8.95489364299448,-2.60338145084994,-298.558000427259
738540.48427898203954100609,8.85334330271309,-2.7233954893643,-298.585695974609
738540.48427907249424606562,8.96412549211096,-2.61261329996643,-298.613391521958
738540.48427916294895112514,9.11183507797479,-2.45567186498611,-298.50260933256
738540.48427925328724086285,8.99182103946043,-2.56645405438398,-298.465681936094
738540.48427934374194592237,8.89950254829554,-2.66800439466536,-298.594927823725
738540.48427943419665098190,8.75179296243171,-2.82494582964568,-298.622623371075
738540.48427952465135604143,8.80718405713065,-2.76955473494675,-298.558000427259
738540.48427961510606110096,8.73332926419874,-2.83417767876217,-298.539536729026
738540.48427970544435083866,8.77948850978118,-2.8064821314127,-298.484145634327
738540.48427979589905589819,8.85334330271309,-2.7233954893643,-298.493377483444
738540.48427988635376095772,8.87180700094607,-2.71416364024781,-298.493377483444
738540.48427997680846601725,8.84411145359661,-2.70493179113132,-298.493377483444
738540.48428006726317107677,8.88103885006256,-2.68646809289834,-298.53030487991
738540.48428015771787613630,8.86257515182958,-2.69569994201483,-298.548768578143
738540.48428024805616587400,8.89027069917905,-2.67723624378185,-298.53030487991
738540.48428033851087093353,8.87180700094607,-2.67723624378185,-298.558000427259
738540.48428042896557599306,8.86257515182958,-2.70493179113132,-298.539536729026
738540.48428051942028105259,8.87180700094607,-2.69569994201483,-298.521073030793
738540.48428060987498611212,8.89027069917905,-2.67723624378185,-298.53030487991
738540.48428070021327584982,9.01028473769341,-2.54799035615101,-298.576464125492
738540.48428079066798090935,9.05644398327586,-2.49259926145207,-298.493377483444
738540.48428088112268596888,9.05644398327586,-2.52029480880154,-298.53030487991
738540.48428097157739102840,8.75179296243171,-2.84340952787866,-298.585695974609
738540.48428106203209608793,8.73332926419874,-2.83417767876217,-298.558000427259
738540.48428115248680114746,8.77025666066469,-2.79725028229621,-298.585695974609
738540.48428124282509088516,8.85334330271309,-2.7233954893643,-298.585695974609
738540.48428133327979594469,8.84411145359661,-2.70493179113132,-298.539536729026
738540.48428142373450100422,8.85334330271309,-2.70493179113132,-298.521073030793
738540.48428151418920606375,8.87180700094607,-2.67723624378185,-298.548768578143
738540.48428160464391112328,8.92719809564501,-2.64954069643239,-298.539536729026
738540.48428169498220086098,8.91796624652852,-2.63107699819941,-298.604159672842
738540.48428178543690592051,8.86257515182958,-2.70493179113132,-298.511841181677
738540.48428187589161098003,8.88103885006256,-2.68646809289834,-298.567232276376
738540.48428196634631603956,8.88103885006256,-2.69569994201483,-298.594927823725
738540.48428205680102109909,8.89950254829554,-2.68646809289834,-298.576464125492
738540.48428214725572615862,9.05644398327586,-2.56645405438398,-298.447218237861
738540.48428223759401589632,9.22261726737266,-2.36335337382122,-298.548768578143
738540.48428232804872095585,9.11183507797479,-2.51106295968505,-298.594927823725
738540.48428241850342601538,9.08413953062532,-2.52029480880154,-298.576464125492
738540.48428250895813107491,8.84411145359661,-2.75109103671377,-298.511841181677
738540.48428259941283613443,8.83487960448012,-2.76955473494675,-298.594927823725
738540.48428268986754119396,8.81641590624714,-2.74185918759728,-298.53030487991
738540.48428278020583093166,8.87180700094607,-2.69569994201483,-298.447218237861
738540.48428287066053599119,8.88103885006256,-2.67723624378185,-298.558000427259
738540.48428296111524105072,8.89027069917905,-2.64954069643239,-298.613391521958
738540.48428305156994611025,8.86257515182958,-2.68646809289834,-298.548768578143
738540.48428314202465116978,8.87180700094607,-2.67723624378185,-298.558000427259
738540.48428323236294090748,8.85334330271309,-2.67723624378185,-298.594927823725
738540.48428332281764596701,8.84411145359661,-2.67723624378185,-298.613391521958
738540.48428341327235102654,8.85334330271309,-2.68646809289834,-298.511841181677
738540.48428350372705608606,8.82564775536363,-2.70493179113132,-298.576464125492
738540.48428359418176114559,8.86257515182958,-2.64954069643239,-298.576464125492
738540.48428368463646620512,9.00105288857692,-2.58491775261696,-298.558000427259
738540.48428377497475594282,9.33339945677053,-2.16948454237495,-298.50260933256
738540.48428386542946100235,9.38879055146947,-2.27103488265633,-298.50260933256
738540.48428395588416606188,9.40725424970244,-2.40028077028718,-298.484145634327
738540.48428404633887112141,9.34263130588702,-2.40951261940367,-298.465681936094
738540.48428413679357618093,8.9364299447615,-2.8895687734611,-298.613391521958
738540.48428422713186591864,8.72409741508225,-3.04651020844142,-298.631855220191
738540.48428431758657097816,8.44714194158757,-2.99111911374248,-298.622623371075
738540.48428440804127603769,8.37328714865566,-2.90803247169408,-298.604159672842
738540.48428449849598109722,8.45637379070406,-2.79725028229621,-298.539536729026
738540.48428458895068615675,8.60408337656789,-2.74185918759728,-298.484145634327
738540.48428467940539121628,8.72409741508225,-2.69569994201483,-298.493377483444
738540.48428476974368095398,8.79795220801416,-2.66800439466536,-298.493377483444
738540.48428486019838601351,8.84411145359661,-2.63107699819941,-298.493377483444
738540.48428495065309107304,8.82564775536363,-2.67723624378185,-298.50260933256
738540.48428504110779613256,8.89950254829554,-2.61261329996643,-298.511841181677
738540.48428513156250119209,8.92719809564501,-2.60338145084994,-298.521073030793
738540.48428522201720625162,8.95489364299448,-2.58491775261696,-298.53030487991
738540.48428531235549598932,8.9364299447615,-2.59414960173345,-298.558000427259
738540.48428540281020104885,8.79795220801416,-2.74185918759728,-298.511841181677
738540.48428549326490610838,8.80718405713065,-2.73262733848079,-298.558000427259
738540.48428558371961116791,8.81641590624714,-2.71416364024781,-298.576464125492
738540.48428567417431622744,8.89950254829554,-2.67723624378185,-298.594927823725
738540.48428576451260596514,8.89950254829554,-2.66800439466536,-298.521073030793
738540.48428585496731102467,8.91796624652852,-2.63107699819941,-298.613391521958
738540.48428594542201608419,8.92719809564501,-2.62184514908292,-298.585695974609
738540.48428603587672114372,8.95489364299448,-2.63107699819941,-298.484145634327
738540.48428612633142620325,9.00105288857692,-2.56645405438398,-298.539536729026
738540.48428621678613126278,9.17645802179022,-2.36335337382122,-298.456450086978
738540.48428630712442100048,8.91796624652852,-2.6403088473159,-298.401058992279
738540.48428639757912606001,8.88103885006256,-2.68646809289834,-298.493377483444
738540.48428648803383111954,8.95489364299448,-2.61261329996643,-298.493377483444
738540.48428657848853617907,9.0195165868099,-2.54799035615101,-298.548768578143
738540.48428666894324123859,9.16722617267373,-2.40028077028718,-298.548768578143
738540.48428675928153097630,9.37955870235298,-2.19718008972442,-298.50260933256
738540.48428684973623603582,9.01028473769341,-2.56645405438398,-298.539536729026
738540.48428694019094109535,8.99182103946043,-2.56645405438398,-298.576464125492
738540.48428703064564615488,9.07490768150883,-2.50183111056856,-298.576464125492
738540.48428712110035121441,9.1026032288583,-2.4649037141026,-298.493377483444
738540.48428721155505627394,9.17645802179022,-2.40028077028718,-298.539536729026
738540.48428730189334601164,9.25031281472213,-2.2987304300058,-298.521073030793
738540.48428739234805107117,9.21338541825617,-2.32642597735527,-298.474913785211
738540.48428748280275613070,8.98258919034394,-2.57568590350047,-298.567232276376
738540.48428757325746119022,8.99182103946043,-2.57568590350047,-298.585695974609
738540.48428766371216624975,9.0195165868099,-2.52029480880154,-298.50260933256
738540.48428775405045598745,8.97335734122745,-2.55722220526749,-298.558000427259
738540.48428784450516104698,8.9364299447615,-2.56645405438398,-298.567232276376
738540.48428793495986610651,8.99182103946043,-2.52952665791803,-298.567232276376
738540.48428802541457116604,9.0195165868099,-2.50183111056856,-298.484145634327
738540.48428811586927622557,8.98258919034394,-2.52029480880154,-298.558000427259
738540.48428820632398128510,8.85334330271309,-2.66800439466536,-298.604159672842
738540.48428829666227102280,8.83487960448012,-2.67723624378185,-298.53030487991
738540.48428838711697608232,8.84411145359661,-2.68646809289834,-298.558000427259
738540.48428847757168114185,8.88103885006256,-2.65877254554888,-298.539536729026
738540.48428856802638620138,8.94566179387799,-2.61261329996643,-298.50260933256
738540.48428865848109126091,8.95489364299448,-2.57568590350047,-298.521073030793
738540.48428874893579632044,9.04721213415937,-2.48336741233558,-298.539536729026
738540.48428883927408605814,8.80718405713065,-2.74185918759728,-298.521073030793
738540.48428892972879111767,8.82564775536363,-2.71416364024781,-298.521073030793
738540.48428902018349617720,8.85334330271309,-2.68646809289834,-298.567232276376
738540.48428911063820123672,8.91796624652852,-2.64954069643239,-298.511841181677
738540.48428920109290629625,8.88103885006256,-2.65877254554888,-298.567232276376
738540.48428929143119603395,9.03798028504288,-2.51106295968505,-298.521073030793
738540.48428938188590109348,8.89027069917905,-2.64954069643239,-298.53030487991
738540.48428947234060615301,8.86257515182958,-2.68646809289834,-298.539536729026
738540.48428956279531121254,8.87180700094607,-2.67723624378185,-298.613391521958
738540.48428965325001627207,9.01028473769341,-2.54799035615101,-298.53030487991
738540.48428974370472133160,9.01028473769341,-2.52952665791803,-298.521073030793
738540.48428983404301106930,8.77025666066469,-2.75109103671377,-298.539536729026
738540.48428992449771612883,8.79795220801416,-2.74185918759728,-298.594927823725
738540.48429001495242118835,8.83487960448012,-2.71416364024781,-298.576464125492
738540.48429010540712624788,8.89950254829554,-2.63107699819941,-298.558000427259
738540.48429019586183130741,8.95489364299448,-2.54799035615101,-298.567232276376
738540.48429028620012104511,8.80718405713065,-2.71416364024781,-298.558000427259
738540.48429037665482610464,8.83487960448012,-2.68646809289834,-298.567232276376
738540.48429046710953116417,8.83487960448012,-2.70493179113132,-298.567232276376
738540.48429055756423622370,9.01028473769341,-2.49259926145207,-298.53030487991
738540.48429064801894128323,9.03798028504288,-2.47413556321909,-298.53030487991
738540.48429073847364634275,8.80718405713065,-2.71416364024781,-298.521073030793
738540.48429082881193608046,8.81641590624714,-2.71416364024781,-298.622623371075
738540.48429091926664113998,8.78872035889767,-2.7233954893643,-298.585695974609
738540.48429100972134619951,8.7610248115482,-2.74185918759728,-298.567232276376
738540.48429110017605125904,8.87180700094607,-2.64954069643239,-298.548768578143
738540.48429119063075631857,8.96412549211096,-2.54799035615101,-298.576464125492
738540.48429128108546137810,8.88103885006256,-2.64954069643239,-298.594927823725
738540.48429137142375111580,8.78872035889767,-2.75109103671377,-298.558000427259
738540.48429146187845617533,8.84411145359661,-2.69569994201483,-298.585695974609
738540.48429155233316123486,8.83487960448012,-2.69569994201483,-298.585695974609
738540.48429164278786629438,8.80718405713065,-2.71416364024781,-298.594927823725
738540.48429173324257135391,8.81641590624714,-2.69569994201483,-298.567232276376
738540.48429182358086109161,8.84411145359661,-2.66800439466536,-298.622623371075
738540.48429191403556615114,8.86257515182958,-2.65877254554888,-298.622623371075
738540.48429200449027121067,8.88103885006256,-2.62184514908292,-298.558000427259
738540.48429209494497627020,9.01028473769341,-2.49259926145207,-298.585695974609
738540.48429218539968132973,8.98258919034394,-2.52952665791803,-298.548768578143
738540.48429227585438638926,8.85334330271309,-2.64954069643239,-298.50260933256
738540.48429236619267612696,8.7610248115482,-2.73262733848079,-298.53030487991
738540.48429245664738118649,8.80718405713065,-2.69569994201483,-298.521073030793
738540.48429254710208624601,8.73332926419874,-2.76955473494675,-298.50260933256
738540.48429263755679130554,8.81641590624714,-2.68646809289834,-298.53030487991
738540.48429272801149636507,8.83487960448012,-2.66800439466536,-298.585695974609
738540.48429281834978610277,8.84411145359661,-2.68646809289834,-298.604159672842
738540.48429290880449116230,8.94566179387799,-2.59414960173345,-298.548768578143
738540.48429299925919622183,9.01028473769341,-2.52952665791803,-298.594927823725
738540.48429308971390128136,8.82564775536363,-2.75109103671377,-298.613391521958
738540.48429318016860634089,8.86257515182958,-2.71416364024781,-298.548768578143
738540.48429327062331140041,8.89950254829554,-2.66800439466536,-298.419522690512
738540.48429336096160113811,8.9364299447615,-2.62184514908292,-298.410290841395
738540.48429345141630619764,8.9364299447615,-2.62184514908292,-298.558000427259
738540.48429354187101125717,8.9364299447615,-2.60338145084994,-298.428754539628
738540.48429363232571631670,8.89950254829554,-2.61261329996643,-298.484145634327
738540.48429372278042137623,8.89950254829554,-2.61261329996643,-298.50260933256
738540.48429381311871111393,8.89950254829554,-2.60338145084994,-298.511841181677
738540.48429390357341617346,8.89027069917905,-2.60338145084994,-298.511841181677
738540.48429399402812123299,8.98258919034394,-2.51106295968505,-298.484145634327
738540.48429408448282629251,9.04721213415937,-2.43720816675314,-298.50260933256
738540.48429417493753135204,8.97335734122745,-2.50183111056856,-298.539536729026
738540.48429426539223641157,8.68717001861629,-2.8064821314127,-298.539536729026
738540.48429435573052614927,8.62254707480087,-2.88033692434461,-298.604159672842
738540.48429444618523120880,8.68717001861629,-2.79725028229621,-298.558000427259
738540.48429453663993626833,8.74256111331523,-2.71416364024781,-298.539536729026
738540.48429462709464132786,8.84411145359661,-2.67723624378185,-298.539536729026
738540.48429471754934638739,8.96412549211096,-2.51106295968505,-298.474913785211
738540.48429480800405144691,9.25954466383862,-2.39104892117069,-298.50260933256
738540.48429489834234118462,9.55496383556627,-2.22487563707389,-298.419522690512
738540.48429498879704624414,9.42571794793542,-2.28949858088931,-298.474913785211
738540.48429507925175130367,8.96412549211096,-2.77878658406323,-298.576464125492
738540.48429516970645636320,8.53022858363597,-2.91726432081057,-298.631855220191
738540.48429526016116142273,8.45637379070406,-2.78801843317972,-298.585695974609
738540.48429535049945116043,8.48406933805353,-2.69569994201483,-298.613391521958
738540.48429544095415621996,8.53946043275246,-2.64954069643239,-298.594927823725
738540.48429553140886127949,8.60408337656789,-2.6403088473159,-298.511841181677
738540.48429562186356633902,8.79795220801416,-2.54799035615101,-298.539536729026
738540.48429571231827139854,8.84411145359661,-2.57568590350047,-298.585695974609
738540.48429580277297645807,8.74256111331523,-2.73262733848079,-298.567232276376
738540.48429589311126619577,8.74256111331523,-2.75109103671377,-298.539536729026
738540.48429598356597125530,8.78872035889767,-2.71416364024781,-298.576464125492
738540.48429607402067631483,8.80718405713065,-2.68646809289834,-298.576464125492
738540.48429616447538137436,8.84411145359661,-2.65877254554888,-298.53030487991
738540.48429625493008643389,8.87180700094607,-2.63107699819941,-298.548768578143
738540.48429634526837617159,8.87180700094607,-2.64954069643239,-298.567232276376
738540.48429643572308123112,8.89950254829554,-2.63107699819941,-298.539536729026
738540.48429652617778629065,8.89027069917905,-2.6403088473159,-298.53030487991
738540.48429661663249135017,8.90873439741203,-2.62184514908292,-298.594927823725
738540.48429670708719640970,8.92719809564501,-2.60338145084994,-298.576464125492
738540.48429679754190146923,8.95489364299448,-2.58491775261696,-298.382595294046
738540.48429688788019120693,8.95489364299448,-2.60338145084994,-298.484145634327
738540.48429697833489626646,9.1026032288583,-2.43720816675314,-298.585695974609
738540.48429706878960132599,9.14876247444075,-2.39104892117069,-298.53030487991
738540.48429715924430638552,8.88103885006256,-2.66800439466536,-298.567232276376
738540.48429724969901144505,9.02874843592639,-2.52952665791803,-298.437986388745
738540.48429734015371650457,8.90873439741203,-2.64954069643239,-298.493377483444
738540.48429743049200624228,8.91796624652852,-2.6403088473159,-298.474913785211
738540.48429752094671130180,9.0195165868099,-2.56645405438398,-298.484145634327
738540.48429761140141636133,9.06567583239235,-2.51106295968505,-298.428754539628
738540.48429770185612142086,9.07490768150883,-2.48336741233558,-298.437986388745
738540.48429779231082648039,9.13029877620777,-2.45567186498611,-298.465681936094
738540.48429788264911621809,9.14876247444075,-2.43720816675314,-298.474913785211
738540.48429797310382127762,9.16722617267373,-2.41874446852016,-298.447218237861
738540.48429806355852633715,9.15799432355724,-2.42797631763665,-298.437986388745
738540.48429815401323139668,9.14876247444075,-2.41874446852016,-298.437986388745
738540.48429824446793645620,9.16722617267373,-2.41874446852016,-298.456450086978
738540.48429833492264151573,9.14876247444075,-2.43720816675314,-298.484145634327
738540.48429842526093125343,9.11183507797479,-2.45567186498611,-298.511841181677
738540.48429851571563631296,9.04721213415937,-2.51106295968505,-298.53030487991
738540.48429860617034137249,9.12106692709128,-2.43720816675314,-298.511841181677
738540.48429869662504643202,9.16722617267373,-2.34488967558824,-298.53030487991
738540.48429878707975149155,9.08413953062532,-2.43720816675314,-298.53030487991
738540.48429887741804122925,9.13029877620777,-2.40951261940367,-298.465681936094
738540.48429896787274628878,8.78872035889767,-2.74185918759728,-298.50260933256
738540.48429905832745134830,8.74256111331523,-2.77878658406323,-298.493377483444
738540.48429914878215640783,8.85334330271309,-2.68646809289834,-298.493377483444
738540.48429923923686146736,8.89950254829554,-2.65877254554888,-298.50260933256
738540.48429932969156652689,8.89027069917905,-2.64954069643239,-298.585695974609
738540.48429942002985626459,8.89027069917905,-2.6403088473159,-298.576464125492
738540.48429951048456132412,8.88103885006256,-2.6403088473159,-298.576464125492
738540.48429960093926638365,8.91796624652852,-2.61261329996643,-298.53030487991
738540.48429969139397144318,8.92719809564501,-2.62184514908292,-298.539536729026
738540.48429978184867650270,8.9364299447615,-2.62184514908292,-298.576464125492
738540.48429987218696624041,8.92719809564501,-2.6403088473159,-298.53030487991
738540.48429996264167129993,8.9364299447615,-2.61261329996643,-298.558000427259
738540.48430005309637635946,8.9364299447615,-2.61261329996643,-298.539536729026
738540.48430014355108141899,8.96412549211096,-2.59414960173345,-298.474913785211
738540.48430023400578647852,9.0195165868099,-2.52952665791803,-298.548768578143
738540.48430032446049153805,9.2780083620716,-2.22487563707389,-298.382595294046
738540.48430041479878127575,8.78872035889767,-2.74185918759728,-298.401058992279
738540.48430050525348633528,8.89950254829554,-2.64954069643239,-298.548768578143
738540.48430059570819139481,8.9364299447615,-2.59414960173345,-298.558000427259
738540.48430068616289645433,8.77948850978118,-2.76032288583026,-298.548768578143
738540.48430077661760151386,8.81641590624714,-2.7233954893643,-298.53030487991
738540.48430086707230657339,8.89027069917905,-2.66800439466536,-298.548768578143
738540.48430095741059631109,8.90873439741203,-2.64954069643239,-298.548768578143
738540.48430104786530137062,8.90873439741203,-2.6403088473159,-298.53030487991
738540.48430113832000643015,8.89027069917905,-2.64954069643239,-298.576464125492
738540.48430122877471148968,8.89950254829554,-2.64954069643239,-298.53030487991
738540.48430131922941654921,8.92719809564501,-2.63107699819941,-298.456450086978
738540.48430140956770628691,8.89027069917905,-2.6403088473159,-298.456450086978
738540.48430150002241134644,8.92719809564501,-2.62184514908292,-298.437986388745
738540.48430159047711640596,8.91796624652852,-2.63107699819941,-298.465681936094
738540.48430168093182146549,8.91796624652852,-2.6403088473159,-298.465681936094
738540.48430177138652652502,8.90873439741203,-2.63107699819941,-298.437986388745
738540.48430186184123158455,8.91796624652852,-2.63107699819941,-298.465681936094
738540.48430195217952132225,8.92719809564501,-2.62184514908292,-298.521073030793
738540.48430204263422638178,9.06567583239235,-2.45567186498611,-298.511841181677
738540.48430213308893144131,8.89950254829554,-2.63107699819941,-298.53030487991
738540.48430222354363650084,8.79795220801416,-2.74185918759728,-298.484145634327
738540.48430231399834156036,8.87180700094607,-2.66800439466536,-298.484145634327
738540.48430240433663129807,8.88103885006256,-2.65877254554888,-298.511841181677
738540.48430249479133635759,8.85334330271309,-2.67723624378185,-298.53030487991
738540.48430258524604141712,8.89950254829554,-2.6403088473159,-298.474913785211
738540.48430267570074647665,8.97335734122745,-2.58491775261696,-298.50260933256
738540.48430276615545153618,8.98258919034394,-2.55722220526749,-298.511841181677
738540.48430285661015659571,8.96412549211096,-2.55722220526749,-298.511841181677
738540.48430294694844633341,8.7610248115482,-2.76955473494675,-298.539536729026
738540.48430303740315139294,8.86257515182958,-2.69569994201483,-298.558000427259
738540.48430312785785645247,8.86257515182958,-2.69569994201483,-298.53030487991
738540.48430321831256151199,8.89027069917905,-2.65877254554888,-298.521073030793
738540.48430330876726657152,8.88103885006256,-2.65877254554888,-298.465681936094
738540.48430339910555630922,8.95489364299448,-2.59414960173345,-298.50260933256
738540.48430348956026136875,9.22261726737266,-2.31719412823878,-298.465681936094
738540.48430358001496642828,8.89027069917905,-2.64954069643239,-298.548768578143
738540.48430367046967148781,8.72409741508225,-2.84340952787866,-298.558000427259
738540.48430376092437654734,8.82564775536363,-2.75109103671377,-298.53030487991
738540.48430385137908160686,8.91796624652852,-2.67723624378185,-298.456450086978
738540.48430394171737134457,8.91796624652852,-2.65877254554888,-298.456450086978
738540.48430403217207640409,8.96412549211096,-2.62184514908292,-298.558000427259
738540.48430412262678146362,9.00105288857692,-2.60338145084994,-298.521073030793
738540.48430421308148652315,9.02874843592639,-2.57568590350047,-298.539536729026
738540.48430430353619158268,8.98258919034394,-2.61261329996643,-298.539536729026
738540.48430439399089664221,9.01028473769341,-2.57568590350047,-298.548768578143
738540.48430448432918637991,9.21338541825617,-2.31719412823878,-298.53030487991
738540.48430457478389143944,8.9364299447615,-2.59414960173345,-298.521073030793
738540.48430466523859649897,8.80718405713065,-2.74185918759728,-298.521073030793
738540.48430475569330155849,8.84411145359661,-2.69569994201483,-298.521073030793
738540.48430484614800661802,8.98258919034394,-2.54799035615101,-298.548768578143
738540.48430493648629635572,8.90873439741203,-2.62184514908292,-298.493377483444
738540.48430502694100141525,8.88103885006256,-2.65877254554888,-298.548768578143
738540.48430511739570647478,8.84411145359661,-2.68646809289834,-298.576464125492
738540.48430520785041153431,8.89027069917905,-2.6403088473159,-298.548768578143
738540.48430529830511659384,8.82564775536363,-2.73262733848079,-298.511841181677
738540.48430538875982165337,8.77025666066469,-2.76032288583026,-298.456450086978
738540.48430547909811139107,8.84411145359661,-2.69569994201483,-298.447218237861
738540.48430556955281645060,8.98258919034394,-2.59414960173345,-298.465681936094
738540.48430566000752151012,9.13029877620777,-2.48336741233558,-298.484145634327
738540.48430575046222656965,9.50880458998382,-2.32642597735527,-298.447218237861
738540.48430584091693162918,9.65651417584765,-2.18794824060793,-298.391827143162
738540.48430593125522136688,9.26877651295511,-2.53875850703452,-298.419522690512
738540.48430602170992642641,8.75179296243171,-2.90803247169408,-298.594927823725
738540.48430611216463148594,8.54869228186895,-2.77878658406323,-298.50260933256
738540.48430620261933654547,8.53946043275246,-2.68646809289834,-298.465681936094
738540.48430629307404160500,8.43791009247108,-2.76032288583026,-298.437986388745
738540.48430638352874666452,8.54869228186895,-2.74185918759728,-298.410290841395
738540.48430647386703640223,8.70563371684927,-2.69569994201483,-298.437986388745
738540.48430656432174146175,8.79795220801416,-2.66800439466536,-298.474913785211
738540.48430665477644652128,8.87180700094607,-2.6403088473159,-298.484145634327
