time_dn,ecg_projection_ll_ra_mV,ecg_projection_la_ra_mV,ecg_projection_vx_rl_mV
738454.39888970297761261463,0.960112308114872,12.6476332895901,-298.00408948027
738454.39888979331590235233,1.01550340281381,12.6937925351726,-297.967162083804
738454.39888988377060741186,1.06166264839625,12.758415478988,-298.022553178503
738454.39888997422531247139,1.03396710104678,12.721488082522,-298.022553178503
738454.39889006468001753092,1.1909085360271,12.8876613666189,-297.97639393292
738454.39889015513472259045,0.997039704580828,12.6753288369396,-298.059480574969
738454.39889024558942764997,0.950880458998382,12.6291695913572,-298.041016876736
738454.39889033592771738768,1.03396710104678,12.7122562334056,-298.00408948027
738454.39889042638242244720,1.04319895016327,12.7307199316385,-298.013321329386
738454.39889051683712750673,1.08935819574572,12.776879177221,-298.022553178503
738454.39889060729183256626,1.05243079927976,12.7491836298715,-298.00408948027
738454.39889069774653762579,1.20937223426008,12.8968932157353,-297.994857631153
738454.39889078820124268532,1.04319895016327,12.7307199316385,-298.050248725852
738454.39889087865594774485,1.07089449751274,12.758415478988,-298.013321329386
738454.39889096899423748255,0.932416760765404,12.6199377422407,-298.00408948027
738454.39889105944894254208,1.07089449751274,12.7676473281045,-298.031785027619
738454.39889114990364760160,1.0247352519303,12.7122562334056,-298.050248725852
738454.39889124035835266113,1.12628559221168,12.776879177221,-298.022553178503
738454.39889133081305772066,1.1909085360271,12.8415021210364,-298.041016876736
738454.39889142126776278019,1.25553147984252,12.9338206122013,-298.041016876736
738454.39889151160605251789,1.11705374309519,12.7676473281045,-297.957930234687
738454.39889160206075757742,1.09859004486221,12.758415478988,-297.994857631153
738454.39889169251546263695,1.17244483779412,12.8415021210364,-297.994857631153
738454.39889178297016769648,1.06166264839625,12.7491836298715,-297.985625782037
738454.39889187342487275600,1.09859004486221,12.7861110263375,-297.994857631153
738454.39889196387957781553,1.07089449751274,12.7491836298715,-298.00408948027
738454.39889205433428287506,0.997039704580828,12.6845606860561,-297.921002838221
738454.39889214467257261276,1.05243079927976,12.7491836298715,-297.884075441755
738454.39889223512727767229,1.00627155369732,12.6845606860561,-297.957930234687
738454.39889232558198273182,1.04319895016327,12.739951780755,-297.994857631153
738454.39889241603668779135,1.08012634662923,12.7676473281045,-297.994857631153
738454.39889250649139285088,1.06166264839625,12.7491836298715,-297.957930234687
738454.39889259694609791040,0.97857600634785,12.6845606860561,-297.902539139988
738454.39889268728438764811,0.932416760765404,12.739951780755,-297.967162083804
738454.39889277773909270763,1.05243079927976,12.8691976683859,-297.985625782037
738454.39889286819379776716,1.17244483779412,12.9522843104343,-297.921002838221
738454.39889295864850282669,1.96638386181219,13.5431226538896,-297.773293252358
738454.39889304910320788622,2.95419171727653,13.7554551835688,-297.66251106296
738454.39889313955791294575,3.05574205755791,13.5338908047731,-297.717902157659
738454.39889323001261800528,2.2156437879574,12.8876613666189,-297.948698385571
738454.39889332035090774298,1.62480544450209,12.379909665212,-298.059480574969
738454.39889341080561280251,0.784707174901578,12.1398815881832,-298.077944273202
738454.39889350126031786203,0.941648609881893,12.5091555528428,-298.096407971435
738454.39889359171502292156,1.08012634662923,12.6845606860561,-298.013321329386
738454.39889368216972798109,1.23706778160955,12.8691976683859,-297.893307290872
738454.39889377262443304062,1.08935819574572,12.7676473281045,-297.948698385571
738454.39889386296272277832,1.08935819574572,12.7676473281045,-297.957930234687
738454.39889395341742783785,1.14474929044465,12.8507339701529,-297.994857631153
738454.39889404387213289738,1.08935819574572,12.7861110263375,-298.031785027619
738454.39889413432683795691,1.11705374309519,12.8230384228034,-297.97639393292
738454.39889422478154301643,1.16321298867763,12.8691976683859,-297.994857631153
738454.39889431523624807596,1.18167668691061,12.8968932157353,-298.022553178503
738454.39889440569095313549,1.15398113956114,12.8691976683859,-297.985625782037
738454.39889449602924287319,1.15398113956114,12.8784295175024,-297.985625782037
738454.39889458648394793272,1.13551744132817,12.8507339701529,-298.022553178503
738454.39889467693865299225,1.13551744132817,12.8599658192694,-298.00408948027
738454.39889476739335805178,1.16321298867763,12.8876613666189,-297.921002838221
738454.39889485784806311131,1.14474929044465,12.8784295175024,-297.967162083804
738454.39889494830276817083,1.25553147984252,12.9799798577837,-297.97639393292
738454.39889503864105790854,1.20014038514359,12.9430524613178,-297.967162083804
738454.39889512909576296806,1.16321298867763,12.9061250648518,-297.911770989105
738454.39889521955046802759,1.23706778160955,12.9984435560167,-297.957930234687
738454.39889531000517308712,1.2739951780755,13.0261391033662,-297.957930234687
738454.39889540045987814665,1.18167668691061,12.9615161595508,-297.884075441755
738454.39889549091458320618,1.28322702719199,13.0722983489486,-297.847148045289
738454.39889558136928826571,1.28322702719199,13.0907620471816,-297.810220648823
738454.39889567170757800341,1.25553147984252,13.0722983489486,-297.754829554125
738454.39889576216228306293,1.42170476393933,13.2384716330454,-297.828684347056
738454.39889585261698812246,1.37554551835688,13.2015442365795,-297.884075441755
738454.39889594307169318199,1.39400921658986,13.2384716330454,-297.893307290872
738454.39889603352639824152,1.43093661305582,13.2753990295114,-297.865611743522
738454.39889612398110330105,1.41247291482284,13.2384716330454,-297.893307290872
738454.39889621443580836058,1.38477736747337,13.210776085696,-297.884075441755
738454.39889630477409809828,1.44016846217231,13.2384716330454,-297.828684347056
738454.39889639522880315781,1.42170476393933,13.2015442365795,-297.874843592639
738454.39889648568350821733,1.36631366924039,13.1276894436476,-297.828684347056
738454.39889657613821327686,1.36631366924039,13.0907620471816,-297.902539139988
738454.39889666659291833639,1.30169072542497,13.0169072542497,-297.884075441755
738454.39889675704762339592,1.32015442365795,13.0169072542497,-297.893307290872
738454.39889684738591313362,1.2739951780755,12.9615161595508,-297.911770989105
738454.39889693784061819315,1.14474929044465,12.8322702719199,-297.930234687338
738454.39889702829532325268,1.13551744132817,12.8138065736869,-297.967162083804
738454.39889711875002831221,1.16321298867763,12.8322702719199,-297.939466536454
738454.39889720920473337173,1.18167668691061,12.8599658192694,-297.985625782037
738454.39889729965943843126,1.12628559221168,12.7861110263375,-297.930234687338
738454.39889739011414349079,1.13551744132817,12.8138065736869,-297.921002838221
738454.39889748045243322849,1.28322702719199,12.9615161595508,-297.930234687338
738454.39889757090713828802,1.13551744132817,12.8138065736869,-298.00408948027
738454.39889766136184334755,1.11705374309519,12.7861110263375,-297.985625782037
738454.39889775181654840708,1.09859004486221,12.7861110263375,-298.013321329386
738454.39889784227125346661,1.17244483779412,12.8507339701529,-297.97639393292
738454.39889793272595852613,1.14474929044465,12.8138065736869,-297.930234687338
738454.39889802306424826384,1.13551744132817,12.8138065736869,-297.921002838221
738454.39889811351895332336,1.13551744132817,12.8045747245705,-297.911770989105
738454.39889820397365838289,1.1909085360271,12.8691976683859,-297.994857631153
738454.39889829442836344242,1.24629963072604,12.9245887630848,-297.985625782037
738454.39889838488306850195,1.11705374309519,12.795342875454,-298.013321329386
738454.39889847533777356148,1.07089449751274,12.739951780755,-297.957930234687
738454.39889856579247862101,1.13551744132817,12.8138065736869,-298.022553178503
738454.39889865613076835871,1.18167668691061,12.8691976683859,-298.013321329386
738454.39889874658547341824,1.1078218939787,12.8045747245705,-297.939466536454
738454.39889883704017847776,1.13551744132817,12.8138065736869,-297.994857631153
738454.39889892749488353729,1.11705374309519,12.795342875454,-297.994857631153
738454.39889901794958859682,1.13551744132817,12.8230384228034,-298.013321329386
738454.39889910840429365635,1.16321298867763,12.8507339701529,-297.911770989105
738454.39889919874258339405,1.17244483779412,12.8415021210364,-297.856379894406
738454.39889928919728845358,1.08012634662923,12.758415478988,-297.939466536454
738454.39889937965199351311,1.08935819574572,12.7676473281045,-297.911770989105
738454.39889947010669857264,1.13551744132817,12.8138065736869,-297.921002838221
738454.39889956056140363216,1.09859004486221,12.7861110263375,-297.921002838221
738454.39889965101610869169,1.08935819574572,12.7676473281045,-297.921002838221
738454.39889974147081375122,1.12628559221168,12.8045747245705,-297.893307290872
738454.39889983180910348892,1.15398113956114,12.8322702719199,-298.00408948027
738454.39889992226380854845,1.15398113956114,12.8415021210364,-298.00408948027
738454.39890001271851360798,1.05243079927976,12.721488082522,-297.948698385571
738454.39890010317321866751,1.08935819574572,12.7676473281045,-297.97639393292
738454.39890019362792372704,1.17244483779412,12.8507339701529,-298.031785027619
738454.39890028408262878656,1.05243079927976,12.7307199316385,-297.994857631153
738454.39890037442091852427,1.08012634662923,12.7491836298715,-297.957930234687
738454.39890046487562358379,1.1078218939787,12.8045747245705,-297.902539139988
738454.39890055533032864332,1.1078218939787,12.7861110263375,-297.985625782037
738454.39890064578503370285,1.20937223426008,12.8968932157353,-298.022553178503
738454.39890073623973876238,1.06166264839625,12.7491836298715,-298.00408948027
738454.39890082669444382191,1.11705374309519,12.795342875454,-297.957930234687
738454.39890091714914888144,1.17244483779412,12.8507339701529,-297.97639393292
738454.39890100748743861914,1.06166264839625,12.739951780755,-298.031785027619
738454.39890109794214367867,1.05243079927976,12.721488082522,-297.967162083804
738454.39890118839684873819,1.08935819574572,12.7676473281045,-297.985625782037
738454.39890127885155379772,1.1078218939787,12.7861110263375,-298.00408948027
738454.39890136930625885725,1.18167668691061,12.8599658192694,-297.884075441755
738454.39890145976096391678,1.09859004486221,12.7676473281045,-297.930234687338
738454.39890155009925365448,1.07089449751274,12.739951780755,-297.902539139988
738454.39890164055395871401,1.13551744132817,12.8138065736869,-297.902539139988
738454.39890173100866377354,1.21860408337657,12.8876613666189,-297.957930234687
738454.39890182146336883307,1.16321298867763,12.8415021210364,-297.948698385571
738454.39890191191807389259,1.05243079927976,12.739951780755,-297.994857631153
738454.39890200237277895212,1.06166264839625,12.7491836298715,-297.957930234687
738454.39890209282748401165,1.13551744132817,12.8045747245705,-297.957930234687
738454.39890218316577374935,1.07089449751274,12.758415478988,-297.911770989105
738454.39890227362047880888,1.07089449751274,12.739951780755,-297.948698385571
738454.39890236407518386841,1.11705374309519,12.795342875454,-297.957930234687
738454.39890245452988892794,1.18167668691061,12.8599658192694,-297.97639393292
738454.39890254498459398746,1.07089449751274,12.758415478988,-297.994857631153
738454.39890263543929904699,1.11705374309519,12.8045747245705,-297.764061403241
738454.39890272577758878469,1.2739951780755,12.9522843104343,-297.902539139988
738454.39890281623229384422,1.12628559221168,12.795342875454,-297.97639393292
738454.39890290668699890375,1.00627155369732,12.6845606860561,-297.994857631153
738454.39890299714170396328,1.17244483779412,12.8599658192694,-297.911770989105
738454.39890308759640902281,1.07089449751274,12.7491836298715,-297.994857631153
738454.39890317805111408234,1.18167668691061,12.8230384228034,-297.994857631153
738454.39890326850581914186,1.21860408337657,12.8507339701529,-297.994857631153
738454.39890335884410887957,1.20937223426008,12.8691976683859,-297.939466536454
738454.39890344929881393909,1.22783593249306,12.8599658192694,-297.967162083804
738454.39890353975351899862,1.30169072542497,12.9338206122013,-298.013321329386
738454.39890363020822405815,1.22783593249306,12.8691976683859,-297.948698385571
738454.39890372066292911768,1.08012634662923,12.7307199316385,-298.00408948027
738454.39890381111763417721,1.07089449751274,12.7307199316385,-298.031785027619
738454.39890390145592391491,1.08012634662923,12.739951780755,-297.967162083804
738454.39890399191062897444,1.1078218939787,12.7676473281045,-297.902539139988
738454.39890408236533403397,1.09859004486221,12.7676473281045,-297.911770989105
738454.39890417282003909349,1.14474929044465,12.8230384228034,-297.902539139988
738454.39890426327474415302,1.15398113956114,12.8230384228034,-297.884075441755
738454.39890435372944921255,1.0247352519303,12.6937925351726,-297.911770989105
738454.39890444418415427208,1.23706778160955,12.9061250648518,-297.828684347056
738454.39890453452244400978,1.06166264839625,12.7861110263375,-297.921002838221
738454.39890462497714906931,0.969344157231361,12.776879177221,-297.911770989105
738454.39890471543185412884,1.0247352519303,12.8138065736869,-297.902539139988
738454.39890480588655918837,1.14474929044465,12.9061250648518,-297.893307290872
738454.39890489634126424789,1.91099276711325,13.4692678609577,-297.764061403241
738454.39890498679596930742,2.89880062257759,13.7923825800348,-297.680974761193
738454.39890507725067436695,3.26807458723716,13.5985137485885,-297.717902157659
738454.39890516758896410465,2.39104892117069,12.9799798577837,-297.865611743522
738454.39890525804366916418,1.44016846217231,12.342982268746,-298.096407971435
738454.39890534849837422371,0.812402722251045,12.324518570513,-298.114871669668
738454.39890543895307928324,1.05243079927976,12.6291695913572,-297.939466536454
738454.39890552940778434277,1.15398113956114,12.739951780755,-297.930234687338
738454.39890561986248940229,1.1909085360271,12.8230384228034,-297.902539139988
738454.39890571020077914000,1.14474929044465,12.8138065736869,-297.902539139988
738454.39890580065548419952,1.15398113956114,12.8230384228034,-297.884075441755
738454.39890589111018925905,1.21860408337657,12.8968932157353,-297.939466536454
738454.39890598156489431858,1.17244483779412,12.8507339701529,-297.967162083804
738454.39890607201959937811,1.16321298867763,12.8507339701529,-297.957930234687
738454.39890616247430443764,1.20014038514359,12.8876613666189,-297.810220648823
738454.39890625292900949717,1.16321298867763,12.8599658192694,-297.902539139988
738454.39890634326729923487,1.1909085360271,12.8876613666189,-297.921002838221
738454.39890643372200429440,1.31092257454146,13.0076754051332,-297.985625782037
738454.39890652417670935392,1.1909085360271,12.8968932157353,-297.911770989105
738454.39890661463141441345,1.1909085360271,12.8968932157353,-297.902539139988
738454.39890670508611947298,1.20014038514359,12.8968932157353,-297.921002838221
738454.39890679554082453251,1.24629963072604,12.9430524613178,-297.985625782037
738454.39890688587911427021,1.33861812189093,13.0538346507157,-297.967162083804
738454.39890697633381932974,1.26476332895901,12.9892117069002,-297.948698385571
738454.39890706678852438927,1.21860408337657,12.9338206122013,-297.97639393292
738454.39890715724322944880,1.23706778160955,12.9615161595508,-297.97639393292
738454.39890724769793450832,1.28322702719199,13.0169072542497,-297.930234687338
738454.39890733815263956785,1.31092257454146,13.0630664998321,-297.957930234687
738454.39890742860734462738,1.34784997100742,13.1092257454146,-297.930234687338
738454.39890751894563436508,1.42170476393933,13.2015442365795,-297.957930234687
738454.39890760940033942461,1.39400921658986,13.1830805383465,-297.837916196173
738454.39890769985504448414,1.49555955687124,13.3123264259774,-297.930234687338
738454.39890779030974954367,1.56941434980316,13.3954130680258,-297.902539139988
738454.39890788076445460320,1.49555955687124,13.3215582750938,-297.902539139988
738454.39890797121915966272,1.47709585863826,13.3123264259774,-297.884075441755
738454.39890806155744940042,1.40324106570635,13.210776085696,-297.948698385571
738454.39890815201215445995,1.4494003112888,13.2477034821619,-297.939466536454
738454.39890824246685951948,1.48632770775475,13.2661671803949,-297.874843592639
738454.39890833292156457901,1.4494003112888,13.2015442365795,-297.939466536454
738454.39890842337626963854,1.40324106570635,13.1369212927641,-297.939466536454
738454.39890851383097469807,1.40324106570635,13.1092257454146,-297.948698385571
738454.39890860428567975760,1.44016846217231,13.1369212927641,-297.911770989105
738454.39890869462396949530,1.37554551835688,13.0538346507157,-297.985625782037
738454.39890878507867455482,1.33861812189093,13.0076754051332,-298.013321329386
738454.39890887553337961435,1.23706778160955,12.9061250648518,-297.911770989105
738454.39890896598808467388,1.15398113956114,12.8230384228034,-297.985625782037
738454.39890905644278973341,1.18167668691061,12.8230384228034,-297.985625782037
738454.39890914689749479294,1.16321298867763,12.8138065736869,-297.939466536454
738454.39890923723578453064,1.18167668691061,12.8230384228034,-298.013321329386
738454.39890932769048959017,1.18167668691061,12.8322702719199,-298.031785027619
738454.39890941814519464970,1.1909085360271,12.8415021210364,-297.911770989105
738454.39890950859989970922,1.20014038514359,12.8507339701529,-297.948698385571
738454.39890959905460476875,1.21860408337657,12.8691976683859,-297.939466536454
738454.39890968950930982828,1.18167668691061,12.8415021210364,-297.791756950591
738454.39890977996401488781,1.17244483779412,12.8230384228034,-297.847148045289
738454.39890987030230462551,1.31092257454146,12.9615161595508,-297.911770989105
738454.39890996075700968504,1.32015442365795,12.9707480086673,-297.911770989105
738454.39891005121171474457,1.09859004486221,12.7491836298715,-297.911770989105
738454.39891014166641980410,1.29245887630848,12.9615161595508,-297.948698385571
738454.39891023212112486362,1.15398113956114,12.8045747245705,-297.985625782037
738454.39891032257582992315,1.14474929044465,12.795342875454,-297.874843592639
738454.39891041291411966085,1.1909085360271,12.8507339701529,-297.893307290872
738454.39891050336882472038,1.14474929044465,12.8138065736869,-297.994857631153
738454.39891059382352977991,1.13551744132817,12.795342875454,-298.031785027619
738454.39891068427823483944,1.29245887630848,12.9522843104343,-297.921002838221
738454.39891077473293989897,1.20014038514359,12.8691976683859,-297.97639393292
738454.39891086518764495850,1.08012634662923,12.739951780755,-298.031785027619
738454.39891095564235001802,1.13551744132817,12.795342875454,-297.967162083804
738454.39891104598063975573,1.17244483779412,12.8415021210364,-297.948698385571
738454.39891113643534481525,1.16321298867763,12.8230384228034,-297.97639393292
738454.39891122689004987478,1.16321298867763,12.8322702719199,-297.967162083804
738454.39891131734475493431,1.32938627277444,13.0169072542497,-297.902539139988
738454.39891140779945999384,1.30169072542497,12.9799798577837,-297.97639393292
738454.39891149825416505337,1.01550340281381,12.6845606860561,-297.985625782037
738454.39891158859245479107,1.04319895016327,12.7030243842891,-297.939466536454
738454.39891167904715985060,1.08012634662923,12.7491836298715,-297.994857631153
738454.39891176950186491013,1.13551744132817,12.8045747245705,-297.97639393292
738454.39891185995656996965,1.12628559221168,12.795342875454,-297.957930234687
738454.39891195041127502918,1.13551744132817,12.8045747245705,-297.97639393292
738454.39891204086598008871,1.14474929044465,12.8138065736869,-297.97639393292
738454.39891213132068514824,1.15398113956114,12.8322702719199,-297.985625782037
738454.39891222165897488594,1.21860408337657,12.8876613666189,-297.930234687338
738454.39891231211367994547,1.30169072542497,12.9799798577837,-297.97639393292
738454.39891240256838500500,1.29245887630848,12.9707480086673,-297.97639393292
738454.39891249302309006453,1.13551744132817,12.8138065736869,-297.97639393292
738454.39891258347779512405,1.08012634662923,12.7491836298715,-297.985625782037
738454.39891267393250018358,1.03396710104678,12.7030243842891,-297.994857631153
738454.39891276427078992128,1.14474929044465,12.8138065736869,-297.985625782037
738454.39891285472549498081,1.17244483779412,12.8507339701529,-297.957930234687
738454.39891294518020004034,1.29245887630848,12.9892117069002,-297.97639393292
738454.39891303563490509987,1.0247352519303,12.6937925351726,-297.985625782037
738454.39891312608961015940,1.07089449751274,12.7307199316385,-297.957930234687
738454.39891321654431521893,1.23706778160955,12.9061250648518,-297.884075441755
738454.39891330699902027845,1.08935819574572,12.7676473281045,-297.893307290872
738454.39891339733731001616,1.09859004486221,12.7676473281045,-297.930234687338
738454.39891348779201507568,1.16321298867763,12.8322702719199,-297.967162083804
738454.39891357824672013521,1.1909085360271,12.8599658192694,-297.957930234687
738454.39891366870142519474,1.17244483779412,12.8415021210364,-297.967162083804
738454.39891375915613025427,1.21860408337657,12.8876613666189,-297.957930234687
738454.39891384961083531380,1.17244483779412,12.8415021210364,-297.967162083804
738454.39891393994912505150,1.11705374309519,12.7861110263375,-297.967162083804
738454.39891403040383011103,1.20014038514359,12.8784295175024,-297.921002838221
738454.39891412085853517056,1.0247352519303,12.6937925351726,-297.957930234687
738454.39891421131324023008,1.08012634662923,12.7491836298715,-297.930234687338
738454.39891430176794528961,1.12628559221168,12.7861110263375,-297.911770989105
738454.39891439222265034914,1.16321298867763,12.8230384228034,-297.902539139988
738454.39891448267735540867,1.14474929044465,12.8138065736869,-297.921002838221
738454.39891457301564514637,1.15398113956114,12.8138065736869,-297.911770989105
738454.39891466347035020590,1.18167668691061,12.8415021210364,-297.893307290872
738454.39891475392505526543,1.24629963072604,12.9153569139683,-297.921002838221
738454.39891484437976032495,1.32015442365795,13.0076754051332,-297.939466536454
738454.39891493483446538448,1.12628559221168,12.795342875454,-297.948698385571
738454.39891502528917044401,1.20014038514359,12.8415021210364,-297.930234687338
738454.39891511574387550354,1.18167668691061,12.8045747245705,-297.884075441755
738454.39891520608216524124,1.15398113956114,12.795342875454,-297.948698385571
738454.39891529653687030077,1.21860408337657,12.8507339701529,-297.97639393292
738454.39891538699157536030,1.21860408337657,12.8599658192694,-298.00408948027
738454.39891547744628041983,1.22783593249306,12.8691976683859,-297.939466536454
738454.39891556790098547935,1.20014038514359,12.8599658192694,-297.985625782037
738454.39891565835569053888,1.25553147984252,12.9153569139683,-298.00408948027
738454.39891574869398027658,1.25553147984252,12.9338206122013,-297.957930234687
738454.39891583914868533611,1.08012634662923,12.7491836298715,-297.994857631153
738454.39891592960339039564,1.24629963072604,12.9153569139683,-298.00408948027
738454.39891602005809545517,0.987807855464339,12.6568651387066,-297.948698385571
738454.39891611051280051470,1.03396710104678,12.7030243842891,-297.97639393292
738454.39891620096750557423,1.06166264839625,12.7307199316385,-297.97639393292
738454.39891629142221063375,1.11705374309519,12.7861110263375,-297.97639393292
738454.39891638176050037146,1.20937223426008,12.9061250648518,-297.939466536454
738454.39891647221520543098,1.13551744132817,12.9430524613178,-297.967162083804
738454.39891656266991049051,1.00627155369732,12.776879177221,-297.967162083804
738454.39891665312461555004,1.32015442365795,13.1092257454146,-297.865611743522
738454.39891674357932060957,2.16025269325846,13.6908322397534,-297.644047364727
738454.39891683403402566910,3.1480605487228,13.8754692220832,-297.551728873562
738454.39891692437231540680,2.97265541550951,13.5154271065401,-297.745597705008
738454.39891701482702046633,2.08639790032655,12.739951780755,-297.948698385571
738454.39891710528172552586,1.12628559221168,12.2598956266976,-298.096407971435
738454.39891719573643058538,1.01550340281381,12.5276192510758,-298.041016876736
738454.39891728619113564491,1.06166264839625,12.6291695913572,-297.939466536454
738454.39891737664584070444,1.20014038514359,12.795342875454,-297.939466536454
738454.39891746710054576397,1.30169072542497,12.9615161595508,-297.856379894406
738454.39891755743883550167,1.18167668691061,12.8599658192694,-297.939466536454
738454.39891764789354056120,1.17244483779412,12.8507339701529,-297.939466536454
738454.39891773834824562073,1.28322702719199,12.9707480086673,-297.930234687338
738454.39891782880295068026,1.17244483779412,12.8691976683859,-297.921002838221
738454.39891791925765573978,1.20014038514359,12.8968932157353,-297.939466536454
738454.39891800971236079931,1.16321298867763,12.8599658192694,-297.939466536454
738454.39891810005065053701,1.16321298867763,12.8599658192694,-297.902539139988
738454.39891819050535559654,1.1909085360271,12.8968932157353,-297.930234687338
738454.39891828096006065607,1.22783593249306,12.9338206122013,-297.930234687338
738454.39891837141476571560,1.3570818201239,13.0722983489486,-297.911770989105
738454.39891846186947077513,1.31092257454146,13.0353709524827,-297.884075441755
738454.39891855232417583466,1.22783593249306,12.9522843104343,-297.893307290872
738454.39891864277888089418,1.25553147984252,12.9707480086673,-297.921002838221
738454.39891873311717063189,1.24629963072604,12.9707480086673,-297.884075441755
738454.39891882357187569141,1.18167668691061,12.9245887630848,-297.911770989105
738454.39891891402658075094,1.30169072542497,13.0353709524827,-297.856379894406
738454.39891900448128581047,1.3570818201239,13.1092257454146,-297.893307290872
738454.39891909493599087000,1.2739951780755,13.0446028015992,-297.865611743522
738454.39891918539069592953,1.40324106570635,13.1830805383465,-297.902539139988
738454.39891927572898566723,1.45863216040529,13.2569353312784,-297.902539139988
738454.39891936618369072676,1.33861812189093,13.155384990997,-297.81945249794
738454.39891945663839578629,1.47709585863826,13.3123264259774,-297.884075441755
738454.39891954709310084581,1.42170476393933,13.2753990295114,-297.902539139988
738454.39891963754780590534,1.51402325510422,13.3677175206763,-297.911770989105
738454.39891972800251096487,1.56941434980316,13.4415723136082,-297.874843592639
738454.39891981845721602440,1.47709585863826,13.3400219733268,-297.810220648823
738454.39891990879550576210,1.58787804803613,13.4415723136082,-297.810220648823
738454.39891999925021082163,1.47709585863826,13.3123264259774,-297.81945249794
738454.39892008970491588116,1.44016846217231,13.2384716330454,-297.828684347056
738454.39892018015962094069,1.47709585863826,13.2661671803949,-297.81945249794
738454.39892027061432600021,1.48632770775475,13.2384716330454,-297.837916196173
738454.39892036106903105974,1.40324106570635,13.1276894436476,-297.810220648823
738454.39892045140732079744,1.3570818201239,13.0538346507157,-297.874843592639
738454.39892054186202585697,1.3570818201239,13.0538346507157,-297.921002838221
738454.39892063231673091650,1.34784997100742,13.0353709524827,-297.921002838221
738454.39892072277143597603,1.40324106570635,13.0907620471816,-297.911770989105
738454.39892081322614103556,1.34784997100742,13.0353709524827,-297.921002838221
738454.39892090368084609509,1.05243079927976,12.7122562334056,-297.967162083804
738454.39892099413555115461,1.20014038514359,12.8691976683859,-297.957930234687
738454.39892108447384089231,1.1909085360271,12.8691976683859,-297.911770989105
738454.39892117492854595184,1.20014038514359,12.8691976683859,-297.939466536454
738454.39892126538325101137,1.20937223426008,12.8784295175024,-297.948698385571
738454.39892135583795607090,1.21860408337657,12.8784295175024,-297.939466536454
738454.39892144629266113043,1.22783593249306,12.8876613666189,-297.930234687338
738454.39892153674736618996,1.25553147984252,12.9061250648518,-297.939466536454
738454.39892162708565592766,1.23706778160955,12.8876613666189,-297.939466536454
738454.39892171754036098719,1.22783593249306,12.8968932157353,-297.902539139988
738454.39892180799506604671,1.2739951780755,12.9338206122013,-297.921002838221
738454.39892189844977110624,1.34784997100742,13.0076754051332,-297.930234687338
738454.39892198890447616577,1.32015442365795,12.9799798577837,-297.911770989105
738454.39892207935918122530,1.30169072542497,12.9799798577837,-297.865611743522
738454.39892216981388628483,1.12628559221168,12.795342875454,-297.948698385571
738454.39892226015217602253,1.14474929044465,12.8230384228034,-297.939466536454
738454.39892235060688108206,1.17244483779412,12.8415021210364,-297.884075441755
738454.39892244106158614159,1.1909085360271,12.8507339701529,-297.939466536454
738454.39892253151629120111,1.21860408337657,12.8876613666189,-297.884075441755
738454.39892262197099626064,1.21860408337657,12.8876613666189,-297.948698385571
738454.39892271242570132017,1.20014038514359,12.8599658192694,-297.902539139988
738454.39892280276399105787,1.2739951780755,12.9430524613178,-297.874843592639
738454.39892289321869611740,1.31092257454146,12.9892117069002,-297.884075441755
738454.39892298367340117693,1.08012634662923,12.739951780755,-297.939466536454
738454.39892307412810623646,1.23706778160955,12.8876613666189,-297.911770989105
738454.39892316458281129599,1.31092257454146,12.9892117069002,-297.967162083804
738454.39892325503751635551,1.08935819574572,12.7676473281045,-297.967162083804
738454.39892334549222141504,1.11705374309519,12.795342875454,-297.957930234687
738454.39892343583051115274,1.16321298867763,12.8415021210364,-297.884075441755
738454.39892352628521621227,1.15398113956114,12.8322702719199,-297.893307290872
738454.39892361673992127180,1.18167668691061,12.8507339701529,-297.893307290872
738454.39892370719462633133,1.18167668691061,12.8599658192694,-297.939466536454
738454.39892379764933139086,1.1909085360271,12.8876613666189,-297.967162083804
738454.39892388810403645039,1.17244483779412,12.8784295175024,-297.837916196173
738454.39892397855874150991,1.20937223426008,12.8507339701529,-297.948698385571
738454.39892406889703124762,1.24629963072604,12.8230384228034,-297.957930234687
738454.39892415935173630714,1.24629963072604,12.9245887630848,-298.00408948027
738454.39892424980644136667,1.14474929044465,12.8415021210364,-297.957930234687
738454.39892434026114642620,1.16321298867763,12.8322702719199,-297.97639393292
738454.39892443071585148573,1.16321298867763,12.8691976683859,-297.97639393292
738454.39892452117055654526,1.15398113956114,12.8415021210364,-297.967162083804
738454.39892461150884628296,1.18167668691061,12.8507339701529,-297.967162083804
738454.39892470196355134249,1.17244483779412,12.8507339701529,-297.985625782037
738454.39892479241825640202,1.18167668691061,12.8599658192694,-297.985625782037
738454.39892488287296146154,1.25553147984252,12.9430524613178,-297.930234687338
738454.39892497332766652107,1.20014038514359,12.8784295175024,-297.97639393292
738454.39892506378237158060,1.2739951780755,12.9615161595508,-297.957930234687
738454.39892515423707664013,1.12628559221168,12.7861110263375,-297.930234687338
738454.39892524457536637783,1.17244483779412,12.8230384228034,-297.967162083804
738454.39892533503007143736,1.17244483779412,12.7861110263375,-297.957930234687
738454.39892542548477649689,1.12628559221168,12.7676473281045,-297.948698385571
738454.39892551593948155642,1.18167668691061,12.8230384228034,-297.957930234687
738454.39892560639418661594,1.22783593249306,12.8599658192694,-297.967162083804
738454.39892569684889167547,1.22783593249306,12.8691976683859,-297.967162083804
738454.39892578718718141317,1.1909085360271,12.8322702719199,-297.911770989105
738454.39892587764188647270,1.24629963072604,12.8784295175024,-297.957930234687
738454.39892596809659153223,1.25553147984252,12.8968932157353,-297.921002838221
738454.39892605855129659176,1.1909085360271,12.8322702719199,-297.939466536454
738454.39892614900600165129,1.1909085360271,12.8415021210364,-297.930234687338
738454.39892623946070671082,1.20014038514359,12.8507339701529,-297.893307290872
738454.39892632991541177034,1.17244483779412,12.795342875454,-297.930234687338
738454.39892642025370150805,1.15398113956114,12.7861110263375,-297.930234687338
738454.39892651070840656757,1.23706778160955,12.8691976683859,-297.921002838221
738454.39892660116311162710,1.20014038514359,12.8507339701529,-297.957930234687
738454.39892669161781668663,1.23706778160955,12.8784295175024,-298.00408948027
738454.39892678207252174616,1.2739951780755,12.8784295175024,-298.013321329386
738454.39892687252722680569,1.2739951780755,12.8968932157353,-297.911770989105
738454.39892696286551654339,1.30169072542497,12.9061250648518,-297.97639393292
738454.39892705332022160292,1.28322702719199,12.8876613666189,-298.013321329386
738454.39892714377492666245,1.21860408337657,12.8322702719199,-297.921002838221
738454.39892723422963172197,1.28322702719199,12.9245887630848,-297.948698385571
738454.39892732468433678150,1.26476332895901,12.8876613666189,-297.782525101474
738454.39892741513904184103,1.17244483779412,12.8045747245705,-297.865611743522
738454.39892750559374690056,1.16321298867763,12.8045747245705,-297.948698385571
738454.39892759593203663826,1.15398113956114,12.795342875454,-297.97639393292
738454.39892768638674169779,1.16321298867763,12.8230384228034,-297.97639393292
738454.39892777684144675732,1.26476332895901,12.9061250648518,-297.902539139988
738454.39892786729615181684,1.23706778160955,12.8968932157353,-297.948698385571
738454.39892795775085687637,1.09859004486221,12.739951780755,-297.967162083804
738454.39892804820556193590,1.16321298867763,12.8138065736869,-297.911770989105
738454.39892813854385167360,1.11705374309519,12.8230384228034,-297.97639393292
738454.39892822899855673313,1.0247352519303,12.8138065736869,-297.967162083804
738454.39892831945326179266,1.16321298867763,12.9153569139683,-297.948698385571
738454.39892840990796685219,1.51402325510422,13.2200079348125,-297.837916196173
738454.39892850036267191172,2.43720816675314,13.8293099765007,-297.708670308542
738454.39892859081737697124,3.29577013458663,13.8662373729667,-297.616351817377
738454.39892868127208203077,2.81571398052919,13.4784997100742,-297.690206610309
738454.39892877161037176847,2.11409344767602,12.795342875454,-297.930234687338
738454.39892886206507682800,0.97857600634785,12.2229682302316,-298.050248725852
738454.39892895251978188753,0.895489364299448,12.4260689107944,-298.00408948027
738454.39892904297448694706,1.16321298867763,12.7307199316385,-297.967162083804
738454.39892913342919200659,1.24629963072604,12.8230384228034,-297.967162083804
738454.39892922388389706612,1.26476332895901,12.8876613666189,-297.957930234687
738454.39892931422218680382,1.28322702719199,12.9522843104343,-297.837916196173
738454.39892940467689186335,1.21860408337657,12.9061250648518,-297.902539139988
738454.39892949513159692287,1.25553147984252,12.9338206122013,-297.957930234687
738454.39892958558630198240,1.25553147984252,12.9245887630848,-297.948698385571
738454.39892967604100704193,1.25553147984252,12.9430524613178,-297.921002838221
738454.39892976649571210146,1.25553147984252,12.9522843104343,-297.957930234687
738454.39892985695041716099,1.18167668691061,12.8784295175024,-297.948698385571
738454.39892994728870689869,1.20014038514359,12.9061250648518,-297.957930234687
738454.39893003774341195822,1.2739951780755,12.9707480086673,-297.948698385571
738454.39893012819811701775,1.29245887630848,12.9892117069002,-297.939466536454
738454.39893021865282207727,1.34784997100742,13.0538346507157,-297.948698385571
738454.39893030910752713680,1.2739951780755,12.9799798577837,-297.939466536454
738454.39893039956223219633,1.26476332895901,12.9707480086673,-297.939466536454
738454.39893048990052193403,1.2739951780755,12.9799798577837,-297.921002838221
738454.39893058035522699356,1.42170476393933,13.1461531418805,-297.893307290872
738454.39893067080993205309,1.30169072542497,13.0353709524827,-297.930234687338
738454.39893076126463711262,1.32938627277444,13.0815301980651,-297.930234687338
738454.39893085171934217215,1.34784997100742,13.0907620471816,-297.708670308542
738454.39893094217404723167,1.47709585863826,13.2661671803949,-297.828684347056
738454.39893103262875229120,1.34784997100742,13.1092257454146,-297.902539139988
738454.39893112296704202890,1.32015442365795,13.1276894436476,-297.847148045289
738454.39893121342174708843,1.43093661305582,13.2477034821619,-297.865611743522
738454.39893130387645214796,1.47709585863826,13.3123264259774,-297.810220648823
738454.39893139433115720749,1.52325510422071,13.3584856715598,-297.884075441755
738454.39893148478586226702,1.57864619891964,13.4231086153752,-297.865611743522
738454.39893157524056732655,1.51402325510422,13.3215582750938,-297.856379894406
738454.39893166557885706425,1.57864619891964,13.4138767662587,-297.874843592639
738454.39893175603356212378,1.5324869533372,13.3492538224433,-297.874843592639
738454.39893184648826718330,1.56941434980316,13.3769493697928,-297.874843592639
738454.39893193694297224283,1.48632770775475,13.2384716330454,-297.874843592639
738454.39893202739767730236,1.42170476393933,13.1369212927641,-297.893307290872
738454.39893211785238236189,1.42170476393933,13.1276894436476,-297.902539139988
738454.39893220830708742142,1.42170476393933,13.1092257454146,-297.911770989105
738454.39893229864537715912,1.3570818201239,13.0353709524827,-297.939466536454
738454.39893238910008221865,1.31092257454146,12.9707480086673,-297.948698385571
738454.39893247955478727818,1.26476332895901,12.9245887630848,-297.893307290872
738454.39893257000949233770,1.24629963072604,12.9061250648518,-297.948698385571
738454.39893266046419739723,1.33861812189093,12.9061250648518,-297.957930234687
738454.39893275091890245676,1.28322702719199,12.9061250648518,-297.884075441755
738454.39893284137360751629,1.22783593249306,12.9245887630848,-297.967162083804
738454.39893293171189725399,1.26476332895901,12.9522843104343,-297.957930234687
738454.39893302216660231352,1.28322702719199,12.9522843104343,-297.911770989105
738454.39893311262130737305,1.23706778160955,12.9061250648518,-297.957930234687
738454.39893320307601243258,1.28322702719199,12.9430524613178,-297.948698385571
738454.39893329353071749210,1.28322702719199,12.9245887630848,-297.967162083804
738454.39893338398542255163,1.22783593249306,12.8876613666189,-297.884075441755
738454.39893347432371228933,1.29245887630848,12.9522843104343,-297.911770989105
738454.39893356477841734886,1.28322702719199,12.9430524613178,-297.911770989105
738454.39893365523312240839,1.2739951780755,12.9153569139683,-297.893307290872
738454.39893374568782746792,1.23706778160955,12.8691976683859,-297.911770989105
738454.39893383614253252745,1.29245887630848,12.9338206122013,-297.948698385571
738454.39893392659723758698,1.33861812189093,12.9707480086673,-297.939466536454
738454.39893401705194264650,1.24629963072604,12.8876613666189,-297.957930234687
738454.39893410739023238420,1.21860408337657,12.8691976683859,-297.967162083804
738454.39893419784493744373,1.20937223426008,12.8415021210364,-297.967162083804
738454.39893428829964250326,1.20937223426008,12.8691976683859,-297.967162083804
738454.39893437875434756279,1.32938627277444,12.9984435560167,-297.967162083804
738454.39893446920905262232,1.24629963072604,12.8968932157353,-297.902539139988
738454.39893455966375768185,1.22783593249306,12.8876613666189,-297.967162083804
738454.39893465000204741955,1.26476332895901,12.9153569139683,-297.97639393292
738454.39893474045675247908,1.2739951780755,12.9245887630848,-297.957930234687
738454.39893483091145753860,1.15398113956114,12.8138065736869,-297.97639393292
738454.39893492136616259813,1.16321298867763,12.8230384228034,-297.97639393292
738454.39893501182086765766,1.20937223426008,12.8784295175024,-297.967162083804
738454.39893510227557271719,1.22783593249306,12.8968932157353,-297.902539139988
738454.39893519273027777672,1.22783593249306,12.8968932157353,-297.97639393292
738454.39893528306856751442,1.24629963072604,12.8968932157353,-297.967162083804
738454.39893537352327257395,1.22783593249306,12.8876613666189,-297.948698385571
738454.39893546397797763348,1.22783593249306,12.8968932157353,-297.957930234687
738454.39893555443268269300,1.1909085360271,12.8507339701529,-297.967162083804
738454.39893564488738775253,1.18167668691061,12.8415021210364,-297.967162083804
738454.39893573534209281206,1.20014038514359,12.8599658192694,-297.939466536454
738454.39893582568038254976,1.25553147984252,12.9061250648518,-297.957930234687
738454.39893591613508760929,1.28322702719199,12.9522843104343,-297.967162083804
738454.39893600658979266882,1.1909085360271,12.8599658192694,-297.902539139988
738454.39893609704449772835,1.21860408337657,12.8691976683859,-297.967162083804
738454.39893618749920278788,1.23706778160955,12.8784295175024,-297.948698385571
738454.39893627795390784740,1.22783593249306,12.8876613666189,-297.893307290872
738454.39893636840861290693,1.20014038514359,12.8599658192694,-297.921002838221
738454.39893645874690264463,1.23706778160955,12.8876613666189,-297.930234687338
738454.39893654920160770416,1.24629963072604,12.9061250648518,-297.957930234687
738454.39893663965631276369,1.20014038514359,12.8599658192694,-297.967162083804
738454.39893673011101782322,1.18167668691061,12.8322702719199,-297.930234687338
738454.39893682056572288275,1.24629963072604,12.9153569139683,-297.967162083804
738454.39893691102042794228,1.2739951780755,12.9338206122013,-297.967162083804
738454.39893700135871767998,1.17244483779412,12.8415021210364,-297.967162083804
738454.39893709181342273951,1.20014038514359,12.8507339701529,-297.930234687338
738454.39893718226812779903,1.20014038514359,12.8599658192694,-297.967162083804
738454.39893727272283285856,1.25553147984252,12.9153569139683,-297.967162083804
738454.39893736317753791809,1.22783593249306,12.8968932157353,-297.939466536454
738454.39893745363224297762,1.2739951780755,12.9430524613178,-297.957930234687
738454.39893754408694803715,1.28322702719199,12.9153569139683,-297.967162083804
738454.39893763442523777485,1.24629963072604,12.8691976683859,-297.930234687338
738454.39893772487994283438,1.32938627277444,12.9615161595508,-297.948698385571
738454.39893781533464789391,1.31092257454146,12.9338206122013,-297.948698385571
738454.39893790578935295343,1.33861812189093,12.9799798577837,-297.837916196173
738454.39893799624405801296,1.32015442365795,12.9707480086673,-297.800988799707
738454.39893808669876307249,1.26476332895901,12.9338206122013,-297.948698385571
738454.39893817703705281019,1.16321298867763,12.8230384228034,-297.967162083804
738454.39893826749175786972,1.18167668691061,12.8507339701529,-297.948698385571
738454.39893835794646292925,1.23706778160955,12.9061250648518,-297.957930234687
738454.39893844840116798878,1.20937223426008,12.8876613666189,-297.967162083804
738454.39893853885587304831,1.15398113956114,12.8507339701529,-297.97639393292
738454.39893862931057810783,1.13551744132817,12.8138065736869,-297.948698385571
738454.39893871976528316736,1.26476332895901,12.9430524613178,-297.957930234687
738454.39893881010357290506,1.21860408337657,12.8876613666189,-297.884075441755
738454.39893890055827796459,1.09859004486221,12.8507339701529,-297.884075441755
738454.39893899101298302412,1.1078218939787,12.9245887630848,-297.902539139988
738454.39893908146768808365,1.14474929044465,12.9615161595508,-297.911770989105
738454.39893917192239314318,1.34784997100742,13.0722983489486,-297.828684347056
738454.39893926237709820271,2.20641193884091,13.7185277871029,-297.644047364727
738454.39893935271538794041,3.16652424695578,13.9123966185491,-297.588656270028
738454.39893944317009299994,3.17575609607227,13.644672994171,-297.699438459426
738454.39893953362479805946,2.45567186498611,13.0722983489486,-297.865611743522
738454.39893962407950311899,1.2739951780755,12.2783593249306,-298.096407971435
738454.39893971453420817852,0.821634571367534,12.3522141178625,-298.077944273202
738454.39893980498891323805,1.17244483779412,12.7676473281045,-297.948698385571
738454.39893989544361829758,1.30169072542497,12.8968932157353,-297.967162083804
738454.39893998578190803528,1.20937223426008,12.8507339701529,-297.957930234687
738454.39894007623661309481,1.22783593249306,12.8968932157353,-297.930234687338
738454.39894016669131815434,1.25553147984252,12.9430524613178,-297.930234687338
738454.39894025714602321386,1.34784997100742,13.0446028015992,-297.874843592639
738454.39894034760072827339,1.33861812189093,13.0261391033662,-297.902539139988
738454.39894043805543333292,1.22783593249306,12.9153569139683,-297.957930234687
738454.39894052839372307062,1.32015442365795,13.0261391033662,-297.948698385571
738454.39894061884842813015,1.31092257454146,13.0076754051332,-297.911770989105
738454.39894070930313318968,1.25553147984252,12.9615161595508,-297.939466536454
738454.39894079975783824921,1.24629963072604,12.9615161595508,-297.957930234687
738454.39894089021254330873,1.28322702719199,12.9892117069002,-297.957930234687
738454.39894098066724836826,1.30169072542497,13.0261391033662,-297.911770989105
738454.39894107112195342779,1.3570818201239,13.0722983489486,-297.939466536454
738454.39894116146024316549,1.38477736747337,13.1184575945311,-297.930234687338
738454.39894125191494822502,1.32938627277444,13.0446028015992,-297.911770989105
738454.39894134236965328455,1.33861812189093,13.0630664998321,-297.921002838221
738454.39894143282435834408,1.44016846217231,13.1830805383465,-297.837916196173
738454.39894152327906340361,1.32938627277444,13.0815301980651,-297.81945249794
738454.39894161373376846313,1.3570818201239,13.1276894436476,-297.847148045289
738454.39894170418847352266,1.43093661305582,13.2015442365795,-297.893307290872
738454.39894179452676326036,1.43093661305582,13.229239783929,-297.911770989105
738454.39894188498146831989,1.46786400952177,13.3030945768609,-297.893307290872
738454.39894197543617337942,1.59710989715262,13.4415723136082,-297.837916196173
738454.39894206589087843895,1.48632770775475,13.3123264259774,-297.874843592639
738454.39894215634558349848,1.56018250068667,13.4138767662587,-297.874843592639
738454.39894224680028855801,1.51402325510422,13.3769493697928,-297.884075441755
738454.39894233713857829571,1.65250099185156,13.5154271065401,-297.865611743522
738454.39894242759328335524,1.65250099185156,13.4969634083071,-297.865611743522
738454.39894251804798841476,1.5324869533372,13.3677175206763,-297.884075441755
738454.39894260850269347429,1.55095065157018,13.3584856715598,-297.902539139988
738454.39894269895739853382,1.47709585863826,13.2477034821619,-297.847148045289
738454.39894278941210359335,1.44016846217231,13.192312387463,-297.911770989105
738454.39894287986680865288,1.54171880245369,13.2569353312784,-297.921002838221
738454.39894297020509839058,1.4494003112888,13.155384990997,-297.911770989105
738454.39894306065980345011,1.39400921658986,13.0815301980651,-297.921002838221
738454.39894315111450850964,1.33861812189093,13.0076754051332,-297.884075441755
738454.39894324156921356916,1.41247291482284,13.0722983489486,-297.893307290872
738454.39894333202391862869,1.32938627277444,12.9892117069002,-297.884075441755
738454.39894342247862368822,1.22783593249306,12.8876613666189,-297.967162083804
738454.39894351281691342592,1.2739951780755,12.9338206122013,-297.957930234687
738454.39894360327161848545,1.32015442365795,12.9707480086673,-297.939466536454
738454.39894369372632354498,1.26476332895901,12.9245887630848,-297.893307290872
738454.39894378418102860451,1.30169072542497,12.9522843104343,-297.921002838221
738454.39894387463573366404,1.31092257454146,12.9707480086673,-297.911770989105
738454.39894396509043872356,1.29245887630848,12.9522843104343,-297.902539139988
738454.39894405554514378309,1.30169072542497,12.9615161595508,-297.902539139988
738454.39894414588343352079,1.44016846217231,13.1092257454146,-297.884075441755
738454.39894423633813858032,1.45863216040529,13.1184575945311,-297.911770989105
738454.39894432679284363985,1.36631366924039,13.0353709524827,-297.939466536454
738454.39894441724754869938,1.07089449751274,12.7307199316385,-297.847148045289
738454.39894450770225375891,1.22783593249306,12.8968932157353,-297.911770989105
738454.39894459815695881844,1.2739951780755,12.9338206122013,-297.921002838221
738454.39894468849524855614,1.28322702719199,12.9522843104343,-297.921002838221
738454.39894477894995361567,1.32938627277444,12.9984435560167,-297.930234687338
738454.39894486940465867519,1.33861812189093,13.0169072542497,-297.902539139988
738454.39894495985936373472,1.39400921658986,13.0630664998321,-297.828684347056
738454.39894505031406879425,1.31092257454146,12.9892117069002,-297.856379894406
738454.39894514076877385378,1.1909085360271,12.8507339701529,-298.013321329386
738454.39894523122347891331,1.23706778160955,12.9061250648518,-297.994857631153
738454.39894532156176865101,1.21860408337657,12.8876613666189,-297.985625782037
738454.39894541201647371054,1.25553147984252,12.9245887630848,-297.967162083804
738454.39894550247117877007,1.25553147984252,12.9338206122013,-297.957930234687
738454.39894559292588382959,1.26476332895901,12.9338206122013,-297.957930234687
738454.39894568338058888912,1.26476332895901,12.9338206122013,-297.967162083804
738454.39894577383529394865,1.32938627277444,12.9615161595508,-297.97639393292
738454.39894586417358368635,1.34784997100742,13.0353709524827,-297.939466536454
738454.39894595462828874588,1.21860408337657,12.8691976683859,-297.97639393292
738454.39894604508299380541,1.20937223426008,12.8322702719199,-297.967162083804
738454.39894613553769886494,1.33861812189093,13.0261391033662,-297.939466536454
738454.39894622599240392447,1.28322702719199,12.9984435560167,-297.957930234687
738454.39894631644710898399,1.18167668691061,12.8691976683859,-297.97639393292
738454.39894640690181404352,1.20937223426008,12.8968932157353,-297.957930234687
738454.39894649724010378122,1.24629963072604,12.9338206122013,-297.930234687338
738454.39894658769480884075,1.25553147984252,12.9430524613178,-297.957930234687
738454.39894667814951390028,1.2739951780755,12.9522843104343,-297.967162083804
738454.39894676860421895981,1.32015442365795,13.0076754051332,-297.939466536454
738454.39894685905892401934,1.25553147984252,12.9061250648518,-297.856379894406
738454.39894694951362907887,1.24629963072604,12.8599658192694,-297.97639393292
738454.39894703985191881657,1.28322702719199,12.9245887630848,-297.911770989105
738454.39894713030662387609,1.23706778160955,12.8599658192694,-297.948698385571
738454.39894722076132893562,1.26476332895901,12.776879177221,-297.921002838221
738454.39894731121603399515,1.33861812189093,12.9984435560167,-297.911770989105
738454.39894740167073905468,1.22783593249306,12.9799798577837,-297.902539139988
738454.39894749212544411421,1.23706778160955,12.9799798577837,-297.921002838221
738454.39894758258014917374,1.31092257454146,13.0169072542497,-297.921002838221
738454.39894767291843891144,1.28322702719199,12.9799798577837,-297.939466536454
738454.39894776337314397097,1.22783593249306,12.9153569139683,-297.994857631153
738454.39894785382784903049,1.38477736747337,13.0722983489486,-297.930234687338
738454.39894794428255409002,1.30169072542497,12.9615161595508,-298.00408948027
738454.39894803473725914955,1.30169072542497,12.9245887630848,-297.939466536454
738454.39894812519196420908,1.33861812189093,12.9707480086673,-297.930234687338
738454.39894821553025394678,1.34784997100742,12.8784295175024,-297.939466536454
738454.39894830598495900631,1.37554551835688,12.9245887630848,-297.994857631153
738454.39894839643966406584,1.37554551835688,13.0722983489486,-297.948698385571
738454.39894848689436912537,1.31092257454146,13.0353709524827,-297.911770989105
738454.39894857734907418489,1.32015442365795,12.9892117069002,-297.837916196173
738454.39894866780377924442,1.47709585863826,13.192312387463,-297.939466536454
738454.39894875825848430395,1.34784997100742,13.0538346507157,-297.994857631153
738454.39894884859677404165,1.07089449751274,12.7676473281045,-297.939466536454
738454.39894893905147910118,1.16321298867763,12.8322702719199,-297.921002838221
738454.39894902950618416071,1.21860408337657,12.8968932157353,-297.930234687338
738454.39894911996088922024,1.22783593249306,12.9338206122013,-297.921002838221
738454.39894921041559427977,1.25553147984252,12.9153569139683,-297.902539139988
738454.39894930087029933929,1.21860408337657,12.795342875454,-297.939466536454
738454.39894939120858907700,1.22783593249306,12.9338206122013,-297.893307290872
738454.39894948166329413652,1.1078218939787,12.9892117069002,-297.921002838221
738454.39894957211799919605,1.13551744132817,12.9061250648518,-297.957930234687
738454.39894966257270425558,1.58787804803613,13.3492538224433,-297.800988799707
738454.39894975302740931511,2.52952665791803,13.9770195623646,-297.717902157659
738454.39894984348211437464,3.46194341868343,14.0139469588305,-297.717902157659
738454.39894993393681943417,2.97265541550951,13.5615863521226,-297.764061403241
738454.39895002427510917187,1.98484756004517,12.6660969878231,-297.994857631153
738454.39895011472981423140,1.04319895016327,12.30605487228,-298.114871669668
738454.39895020518451929092,0.997039704580828,12.5645466475417,-298.087176122318
738454.39895029563922435045,1.2739951780755,12.8876613666189,-297.957930234687
738454.39895038609392940998,1.36631366924039,12.9799798577837,-298.00408948027
738454.39895047654863446951,1.32938627277444,12.9892117069002,-298.022553178503
738454.39895056688692420721,1.2739951780755,12.9522843104343,-297.985625782037
738454.39895065734162926674,1.28322702719199,12.9707480086673,-297.957930234687
738454.39895074779633432627,1.40324106570635,13.1092257454146,-297.985625782037
738454.39895083825103938580,1.29245887630848,12.9984435560167,-297.97639393292
738454.39895092870574444532,1.31092257454146,13.0261391033662,-297.957930234687
738454.39895101916044950485,1.2739951780755,12.9892117069002,-298.00408948027
738454.39895110961515456438,1.2739951780755,12.9984435560167,-298.022553178503
738454.39895119995344430208,1.33861812189093,13.0538346507157,-297.939466536454
738454.39895129040814936161,1.40324106570635,13.1184575945311,-297.957930234687
738454.39895138086285442114,1.38477736747337,13.1092257454146,-297.97639393292
738454.39895147131755948067,1.32938627277444,13.0538346507157,-297.911770989105
738454.39895156177226454020,1.33861812189093,13.0722983489486,-297.939466536454
738454.39895165222696959972,1.43093661305582,13.17384868923,-297.930234687338
738454.39895174268167465925,1.38477736747337,13.1461531418805,-297.893307290872
738454.39895183301996439695,1.36631366924039,13.1276894436476,-297.921002838221
738454.39895192347466945648,1.44016846217231,13.2015442365795,-297.911770989105
738454.39895201392937451601,1.39400921658986,13.1646168401135,-297.690206610309
738454.39895210438407957554,1.51402325510422,13.3123264259774,-297.837916196173
738454.39895219483878463507,1.45863216040529,13.2846308786279,-297.884075441755
738454.39895228529348969460,1.39400921658986,13.2200079348125,-297.884075441755
738454.39895237563177943230,1.4494003112888,13.2846308786279,-297.828684347056
738454.39895246608648449183,1.54171880245369,13.3954130680258,-297.856379894406
738454.39895255654118955135,1.56941434980316,13.4600360118412,-297.837916196173
738454.39895264699589461088,1.56018250068667,13.4508041627247,-297.810220648823
738454.39895273745059967041,1.6155735953856,13.5154271065401,-297.81945249794
738454.39895282790530472994,1.68942838831751,13.589281899472,-297.81945249794
738454.39895291836000978947,1.58787804803613,13.4692678609577,-297.837916196173
738454.39895300869829952717,1.6155735953856,13.4784997100742,-297.837916196173
738454.39895309915300458670,1.60634174626911,13.4508041627247,-297.893307290872
738454.39895318960770964622,1.58787804803613,13.4046449171422,-297.847148045289
738454.39895328006241470575,1.56941434980316,13.3492538224433,-297.856379894406
738454.39895337051711976528,1.49555955687124,13.2569353312784,-297.874843592639
738454.39895346097182482481,1.43093661305582,13.1646168401135,-297.884075441755
738454.39895355131011456251,1.39400921658986,13.1184575945311,-297.957930234687
738454.39895364176481962204,1.29245887630848,12.9984435560167,-298.013321329386
738454.39895373221952468157,1.36631366924039,13.0630664998321,-297.930234687338
738454.39895382267422974110,1.45863216040529,13.155384990997,-297.967162083804
738454.39895391312893480062,1.30169072542497,12.9799798577837,-297.994857631153
738454.39895400358363986015,1.32938627277444,13.0169072542497,-297.985625782037
738454.39895409403834491968,1.36631366924039,13.0630664998321,-297.930234687338
738454.39895418437663465738,1.32015442365795,13.0076754051332,-297.967162083804
738454.39895427483133971691,1.31092257454146,12.9984435560167,-298.00408948027
738454.39895436528604477644,1.36631366924039,13.0630664998321,-297.930234687338
738454.39895445574074983597,1.36631366924039,13.0538346507157,-297.939466536454
738454.39895454619545489550,1.39400921658986,13.0815301980651,-297.884075441755
738454.39895463665015995502,1.26476332895901,12.9522843104343,-297.902539139988
738454.39895472698844969273,1.2739951780755,12.9522843104343,-297.884075441755
738454.39895481744315475225,1.39400921658986,13.0815301980651,-297.893307290872
738454.39895490789785981178,1.3570818201239,13.0446028015992,-297.921002838221
738454.39895499835256487131,1.41247291482284,13.0907620471816,-297.930234687338
738454.39895508880726993084,1.33861812189093,13.0169072542497,-297.939466536454
738454.39895517926197499037,1.25553147984252,12.9338206122013,-297.874843592639
738454.39895526971668004990,1.33861812189093,13.0076754051332,-297.884075441755
738454.39895536005496978760,1.28322702719199,12.9615161595508,-297.911770989105
738454.39895545050967484713,1.34784997100742,13.0261391033662,-297.930234687338
738454.39895554096437990665,1.42170476393933,13.1092257454146,-297.745597705008
738454.39895563141908496618,1.29245887630848,12.9984435560167,-297.856379894406
738454.39895572187379002571,1.36631366924039,13.0630664998321,-297.921002838221
738454.39895581232849508524,1.2739951780755,12.9707480086673,-297.902539139988
738454.39895590266678482294,1.26476332895901,12.9430524613178,-297.902539139988
738454.39895599312148988247,1.29245887630848,12.9799798577837,-297.911770989105
738454.39895608357619494200,1.30169072542497,12.9892117069002,-297.893307290872
738454.39895617403090000153,1.32938627277444,13.0076754051332,-297.884075441755
738454.39895626448560506105,1.32015442365795,13.0076754051332,-297.948698385571
738454.39895635494031012058,1.30169072542497,12.9799798577837,-297.893307290872
738454.39895644539501518011,1.29245887630848,12.9707480086673,-297.985625782037
738454.39895653573330491781,1.29245887630848,12.9799798577837,-297.911770989105
738454.39895662618800997734,1.31092257454146,12.9984435560167,-297.939466536454
738454.39895671664271503687,1.32015442365795,13.0169072542497,-297.939466536454
738454.39895680709742009640,1.34784997100742,13.0446028015992,-297.874843592639
738454.39895689755212515593,1.25553147984252,12.9338206122013,-297.967162083804
738454.39895698800683021545,1.25553147984252,12.9430524613178,-297.985625782037
738454.39895707834511995316,1.32015442365795,13.0169072542497,-297.97639393292
738454.39895716879982501268,1.30169072542497,12.9892117069002,-297.985625782037
738454.39895725925453007221,1.24629963072604,12.9245887630848,-297.921002838221
738454.39895734970923513174,1.32015442365795,13.0076754051332,-297.884075441755
738454.39895744016394019127,1.42170476393933,13.1092257454146,-297.921002838221
738454.39895753061864525080,1.22783593249306,12.9153569139683,-297.939466536454
738454.39895762107335031033,1.2739951780755,12.9615161595508,-297.902539139988
738454.39895771141164004803,1.30169072542497,12.9892117069002,-297.939466536454
738454.39895780186634510756,1.37554551835688,13.0630664998321,-297.97639393292
738454.39895789232105016708,1.36631366924039,13.0538346507157,-297.967162083804
738454.39895798277575522661,1.31092257454146,12.9984435560167,-297.994857631153
738454.39895807323046028614,1.25553147984252,12.9430524613178,-297.967162083804
738454.39895816368516534567,1.29245887630848,12.9799798577837,-297.957930234687
738454.39895825402345508337,1.21860408337657,12.9061250648518,-297.994857631153
738454.39895834447816014290,1.31092257454146,12.9984435560167,-297.994857631153
738454.39895843493286520243,1.32015442365795,12.9984435560167,-297.921002838221
738454.39895852538757026196,1.2739951780755,12.9338206122013,-297.97639393292
738454.39895861584227532148,1.46786400952177,13.1646168401135,-297.967162083804
738454.39895870629698038101,1.31092257454146,13.0169072542497,-297.939466536454
738454.39895879675168544054,1.21860408337657,12.8784295175024,-297.994857631153
738454.39895888708997517824,1.32938627277444,12.9707480086673,-298.00408948027
738454.39895897754468023777,1.3570818201239,13.0169072542497,-297.930234687338
738454.39895906799938529730,1.36631366924039,13.0169072542497,-297.810220648823
738454.39895915845409035683,1.40324106570635,13.0353709524827,-297.856379894406
738454.39895924890879541636,1.4494003112888,13.1092257454146,-297.930234687338
738454.39895933936350047588,1.42170476393933,13.0907620471816,-297.985625782037
738454.39895942970179021358,1.37554551835688,13.0538346507157,-297.994857631153
738454.39895952015649527311,1.26476332895901,12.9522843104343,-297.874843592639
738454.39895961061120033264,1.36631366924039,13.0538346507157,-297.893307290872
738454.39895970106590539217,1.20937223426008,12.8876613666189,-297.893307290872
738454.39895979152061045170,1.29245887630848,12.9799798577837,-297.865611743522
738454.39895988197531551123,1.32015442365795,13.0261391033662,-297.874843592639
738454.39895997243002057076,1.20014038514359,12.8876613666189,-297.921002838221
738454.39896006276831030846,1.32938627277444,13.0076754051332,-297.884075441755
738454.39896015322301536798,1.33861812189093,13.0446028015992,-297.884075441755
738454.39896024367772042751,1.11705374309519,12.8507339701529,-297.902539139988
738454.39896033413242548704,1.11705374309519,12.9430524613178,-297.930234687338
738454.39896042458713054657,1.21860408337657,13.0446028015992,-297.847148045289
738454.39896051504183560610,1.65250099185156,13.4231086153752,-297.782525101474
738454.39896060549654066563,2.54799035615101,13.9585558641316,-297.690206610309
738454.39896069583483040333,3.5727256080813,14.1708883938108,-297.533265175329
738454.39896078628953546286,2.89880062257759,13.607745597705,-297.727134006775
738454.39896087674424052238,1.98484756004517,12.7122562334056,-297.939466536454
738454.39896096719894558191,1.11705374309519,12.4353007599109,-298.059480574969
738454.39896105765365064144,1.01550340281381,12.5830103457747,-298.059480574969
738454.39896114810835570097,1.23706778160955,12.8507339701529,-297.985625782037
738454.39896123844664543867,1.38477736747337,13.0169072542497,-297.957930234687
738454.39896132890135049820,1.36631366924039,13.0630664998321,-297.930234687338
738454.39896141935605555773,1.28322702719199,12.9799798577837,-297.921002838221
738454.39896150981076061726,1.30169072542497,13.0076754051332,-297.930234687338
738454.39896160026546567678,1.33861812189093,13.0630664998321,-297.902539139988
738454.39896169072017073631,1.37554551835688,13.1092257454146,-297.884075441755
738454.39896178117487579584,1.37554551835688,13.1092257454146,-297.874843592639
738454.39896187151316553354,1.40324106570635,13.1369212927641,-297.911770989105
738454.39896196196787059307,1.34784997100742,13.0722983489486,-297.921002838221
738454.39896205242257565260,1.30169072542497,13.0446028015992,-297.97639393292
738454.39896214287728071213,1.37554551835688,13.1092257454146,-297.930234687338
738454.39896223333198577166,1.31092257454146,13.0446028015992,-297.874843592639
738454.39896232378669083118,1.39400921658986,13.1369212927641,-297.939466536454
738454.39896241412498056889,1.38477736747337,13.1276894436476,-297.939466536454
738454.39896250457968562841,1.32938627277444,13.0630664998321,-297.948698385571
738454.39896259503439068794,1.47709585863826,13.2200079348125,-297.800988799707
738454.39896268548909574747,1.41247291482284,13.1830805383465,-297.856379894406
738454.39896277594380080700,1.42170476393933,13.192312387463,-297.921002838221
738454.39896286639850586653,1.46786400952177,13.2569353312784,-297.884075441755
738454.39896295685321092606,1.42170476393933,13.2200079348125,-297.921002838221
738454.39896304719150066376,1.44016846217231,13.229239783929,-297.948698385571
738454.39896313764620572329,1.54171880245369,13.3677175206763,-297.81945249794
738454.39896322810091078281,1.50479140598773,13.3584856715598,-297.81945249794
738454.39896331855561584234,1.54171880245369,13.4046449171422,-297.810220648823
738454.39896340901032090187,1.62480544450209,13.4969634083071,-297.782525101474
738454.39896349946502596140,1.698660237434,13.5615863521226,-297.791756950591
738454.39896358980331569910,1.59710989715262,13.4600360118412,-297.856379894406
738454.39896368025802075863,1.56018250068667,13.4231086153752,-297.874843592639
738454.39896377071272581816,1.60634174626911,13.4600360118412,-297.856379894406
738454.39896386116743087769,1.56941434980316,13.4046449171422,-297.911770989105
738454.39896395162213593721,1.6155735953856,13.4231086153752,-297.902539139988
738454.39896404207684099674,1.59710989715262,13.3769493697928,-297.847148045289
738454.39896413253154605627,1.6155735953856,13.3861812189093,-297.921002838221
738454.39896422286983579397,1.57864619891964,13.3123264259774,-297.800988799707
738454.39896431332454085350,1.51402325510422,13.229239783929,-297.902539139988
738454.39896440377924591303,1.43093661305582,13.1461531418805,-297.939466536454
738454.39896449423395097256,1.29245887630848,12.9984435560167,-297.967162083804
738454.39896458468865603209,1.34784997100742,13.0261391033662,-297.97639393292
738454.39896467514336109161,1.36631366924039,13.0538346507157,-297.911770989105
738454.39896476548165082932,1.34784997100742,13.0538346507157,-297.865611743522
738454.39896485593635588884,1.38477736747337,13.0722983489486,-297.874843592639
738454.39896494639106094837,1.38477736747337,13.0815301980651,-297.902539139988
738454.39896503684576600790,1.38477736747337,13.0815301980651,-297.893307290872
738454.39896512730047106743,1.33861812189093,13.0446028015992,-297.884075441755
738454.39896521775517612696,1.29245887630848,12.9892117069002,-297.893307290872
738454.39896530820988118649,1.39400921658986,13.0907620471816,-297.930234687338
738454.39896539854817092419,1.32015442365795,13.0076754051332,-297.921002838221
738454.39896548900287598372,1.30169072542497,12.9892117069002,-297.902539139988
738454.39896557945758104324,1.31092257454146,12.9984435560167,-297.939466536454
738454.39896566991228610277,1.43093661305582,13.1276894436476,-297.902539139988
738454.39896576036699116230,1.39400921658986,13.0907620471816,-297.856379894406
738454.39896585082169622183,1.34784997100742,13.0446028015992,-297.921002838221
738454.39896594115998595953,1.33861812189093,13.0353709524827,-297.957930234687
738454.39896603161469101906,1.28322702719199,12.9799798577837,-297.939466536454
738454.39896612206939607859,1.34784997100742,13.0446028015992,-297.81945249794
738454.39896621252410113811,1.29245887630848,12.9984435560167,-297.847148045289
738454.39896630297880619764,1.30169072542497,12.9984435560167,-297.948698385571
738454.39896639343351125717,1.34784997100742,13.0446028015992,-297.967162083804
738454.39896648388821631670,1.39400921658986,13.0999938962981,-297.957930234687
738454.39896657422650605440,1.40324106570635,13.1092257454146,-297.911770989105
738454.39896666468121111393,1.24629963072604,12.9522843104343,-297.957930234687
738454.39896675513591617346,1.31092257454146,13.0076754051332,-297.97639393292
738454.39896684559062123299,1.25553147984252,12.9522843104343,-297.874843592639
738454.39896693604532629251,1.31092257454146,13.0076754051332,-297.948698385571
738454.39896702650003135204,1.33861812189093,13.0446028015992,-297.957930234687
738454.39896711683832108974,1.2739951780755,12.9799798577837,-297.911770989105
738454.39896720729302614927,1.32015442365795,13.0169072542497,-297.957930234687
738454.39896729774773120880,1.33861812189093,13.0353709524827,-297.97639393292
738454.39896738820243626833,1.25553147984252,12.9522843104343,-297.967162083804
738454.39896747865714132786,1.23706778160955,12.9338206122013,-297.930234687338
738454.39896756911184638739,1.25553147984252,12.9615161595508,-297.97639393292
738454.39896765956655144691,1.32938627277444,13.0446028015992,-297.967162083804
738454.39896774990484118462,1.32015442365795,13.0353709524827,-297.930234687338
738454.39896784035954624414,1.30169072542497,13.0169072542497,-297.97639393292
738454.39896793081425130367,1.32938627277444,13.0353709524827,-297.985625782037
738454.39896802126895636320,1.22783593249306,12.9338206122013,-297.902539139988
738454.39896811172366142273,1.25553147984252,12.9522843104343,-297.930234687338
738454.39896820217836648226,1.32015442365795,13.0169072542497,-297.874843592639
738454.39896829251665621996,1.2739951780755,12.9707480086673,-297.893307290872
738454.39896838297136127949,1.24629963072604,12.9615161595508,-297.874843592639
738454.39896847342606633902,1.38477736747337,13.0907620471816,-297.874843592639
738454.39896856388077139854,1.25553147984252,12.9615161595508,-297.884075441755
738454.39896865433547645807,1.29245887630848,13.0076754051332,-297.921002838221
738454.39896874479018151760,1.32938627277444,13.0446028015992,-297.874843592639
738454.39896883524488657713,1.25553147984252,12.9430524613178,-297.884075441755
738454.39896892558317631483,1.32015442365795,13.0169072542497,-297.874843592639
738454.39896901603788137436,1.22783593249306,12.9430524613178,-297.874843592639
738454.39896910649258643389,1.2739951780755,12.9522843104343,-297.884075441755
738454.39896919694729149342,1.33861812189093,12.9892117069002,-297.874843592639
738454.39896928740199655294,1.4494003112888,13.1184575945311,-297.893307290872
738454.39896937785670161247,1.46786400952177,13.1369212927641,-297.865611743522
738454.39896946831140667200,1.3570818201239,13.0076754051332,-297.874843592639
738454.39896955864969640970,1.4494003112888,13.0999938962981,-297.884075441755
738454.39896964910440146923,1.29245887630848,12.9522843104343,-297.828684347056
738454.39896973955910652876,1.32015442365795,12.9892117069002,-297.81945249794
738454.39896983001381158829,1.34784997100742,13.0538346507157,-297.930234687338
738454.39896992046851664782,1.34784997100742,13.0722983489486,-297.902539139988
738454.39897001092322170734,1.14474929044465,12.8507339701529,-297.921002838221
738454.39897010126151144505,1.23706778160955,12.9522843104343,-297.911770989105
738454.39897019171621650457,1.29245887630848,13.0169072542497,-297.874843592639
738454.39897028217092156410,1.20937223426008,12.9245887630848,-297.893307290872
738454.39897037262562662363,1.21860408337657,12.9338206122013,-297.893307290872
738454.39897046308033168316,1.23706778160955,12.9522843104343,-297.939466536454
738454.39897055353503674269,1.20937223426008,12.9615161595508,-297.948698385571
738454.39897064398974180222,1.13551744132817,13.0076754051332,-297.948698385571
738454.39897073432803153992,1.17244483779412,13.0261391033662,-297.930234687338
738454.39897082478273659945,1.55095065157018,13.3030945768609,-297.856379894406
738454.39897091523744165897,2.47413556321909,13.9308603167821,-297.736365855892
738454.39897100569214671850,3.53579821161534,14.1247291482284,-297.653279213843
738454.39897109614685177803,3.09266945402387,13.6631366924039,-297.717902157659
738454.39897118660155683756,2.16948454237495,12.8322702719199,-297.939466536454
738454.39897127693984657526,1.68019653920103,12.5276192510758,-298.059480574969
738454.39897136739455163479,0.877025666066469,12.361445966979,-298.068712424085
738454.39897145784925669432,1.03396710104678,12.6476332895901,-298.031785027619
738454.39897154830396175385,1.32015442365795,12.9522843104343,-297.994857631153
738454.39897163875866681337,1.32015442365795,12.9892117069002,-297.994857631153
738454.39897172921337187290,1.47709585863826,13.192312387463,-297.930234687338
738454.39897181966807693243,1.23706778160955,12.9615161595508,-297.97639393292
738454.39897191000636667013,1.22783593249306,12.9615161595508,-297.97639393292
738454.39897200046107172966,1.45863216040529,13.192312387463,-297.939466536454
738454.39897209091577678919,1.32015442365795,13.0538346507157,-297.967162083804
738454.39897218137048184872,1.24629963072604,12.9799798577837,-298.013321329386
738454.39897227182518690825,1.2739951780755,13.0169072542497,-297.985625782037
738454.39897236227989196777,1.31092257454146,13.0538346507157,-297.884075441755
738454.39897245261818170547,1.32015442365795,13.0722983489486,-297.921002838221
738454.39897254307288676500,1.32015442365795,13.0630664998321,-297.939466536454
738454.39897263352759182453,1.32938627277444,13.0999938962981,-297.97639393292
738454.39897272398229688406,1.38477736747337,13.1461531418805,-297.884075441755
738454.39897281443700194359,1.38477736747337,13.1461531418805,-297.957930234687
738454.39897290489170700312,1.38477736747337,13.1646168401135,-297.939466536454
738454.39897299534641206264,1.70789208655049,13.4969634083071,-297.865611743522
738454.39897308568470180035,1.44016846217231,13.229239783929,-297.874843592639
738454.39897317613940685987,1.20014038514359,12.9799798577837,-297.893307290872
738454.39897326659411191940,1.38477736747337,13.1830805383465,-297.764061403241
738454.39897335704881697893,1.32938627277444,13.1369212927641,-297.856379894406
738454.39897344750352203846,1.38477736747337,13.2200079348125,-297.893307290872
738454.39897353795822709799,1.4494003112888,13.2938627277444,-297.874843592639
738454.39897362829651683569,1.48632770775475,13.3492538224433,-297.791756950591
738454.39897371875122189522,1.52325510422071,13.3954130680258,-297.800988799707
738454.39897380920592695475,1.56941434980316,13.4415723136082,-297.800988799707
738454.39897389966063201427,1.56941434980316,13.4508041627247,-297.791756950591
738454.39897399011533707380,1.59710989715262,13.4784997100742,-297.791756950591
738454.39897408057004213333,1.84636982329783,13.7277596362194,-297.791756950591
738454.39897417102474719286,1.68019653920103,13.5523545030061,-297.791756950591
738454.39897426136303693056,1.56941434980316,13.4046449171422,-297.810220648823
738454.39897435181774199009,1.48632770775475,13.2938627277444,-297.865611743522
738454.39897444227244704962,1.39400921658986,13.1646168401135,-297.893307290872
738454.39897453272715210915,1.39400921658986,13.1461531418805,-297.884075441755
738454.39897462318185716867,1.38477736747337,13.1184575945311,-297.893307290872
738454.39897471363656222820,1.38477736747337,13.0999938962981,-297.874843592639
738454.39897480397485196590,1.36631366924039,13.0722983489486,-297.948698385571
738454.39897489442955702543,1.33861812189093,13.0261391033662,-297.957930234687
738454.39897498488426208496,1.33861812189093,12.9984435560167,-297.967162083804
738454.39897507533896714449,1.32938627277444,12.9984435560167,-297.939466536454
738454.39897516579367220402,1.32938627277444,13.0446028015992,-297.948698385571
738454.39897525624837726355,1.33861812189093,13.0538346507157,-297.97639393292
738454.39897534670308232307,1.32938627277444,13.0353709524827,-297.994857631153
738454.39897543704137206078,1.31092257454146,13.0076754051332,-297.930234687338
738454.39897552749607712030,1.32938627277444,13.0353709524827,-297.948698385571
738454.39897561795078217983,1.32938627277444,13.0261391033662,-297.985625782037
738454.39897570840548723936,1.38477736747337,13.0815301980651,-297.948698385571
738454.39897579886019229889,1.3570818201239,13.0446028015992,-297.97639393292
738454.39897588931489735842,1.32938627277444,13.0169072542497,-298.00408948027
738454.39897597965318709612,1.22783593249306,12.9338206122013,-297.948698385571
738454.39897607010789215565,1.41247291482284,13.1184575945311,-297.967162083804
738454.39897616056259721518,1.39400921658986,13.0907620471816,-297.985625782037
738454.39897625101730227470,1.28322702719199,12.9984435560167,-298.022553178503
738454.39897634147200733423,1.39400921658986,13.0999938962981,-297.957930234687
738454.39897643192671239376,1.29245887630848,12.9892117069002,-298.00408948027
738454.39897652238141745329,1.20937223426008,12.9153569139683,-297.994857631153
738454.39897661271970719099,1.17244483779412,12.8784295175024,-297.921002838221
738454.39897670317441225052,1.26476332895901,12.9707480086673,-297.791756950591
738454.39897679362911731005,1.26476332895901,12.9799798577837,-297.856379894406
738454.39897688408382236958,1.26476332895901,12.9799798577837,-297.911770989105
738454.39897697453852742910,1.28322702719199,12.9984435560167,-297.948698385571
738454.39897706499323248863,1.48632770775475,13.2200079348125,-297.930234687338
738454.39897715533152222633,1.12628559221168,12.8415021210364,-297.957930234687
738454.39897724578622728586,1.20937223426008,12.9245887630848,-297.921002838221
738454.39897733624093234539,1.24629963072604,12.9615161595508,-297.921002838221
738454.39897742669563740492,1.26476332895901,12.9892117069002,-297.930234687338
738454.39897751715034246445,1.2739951780755,12.9892117069002,-297.930234687338
738454.39897760760504752398,1.2739951780755,12.9892117069002,-297.893307290872
738454.39897769805975258350,1.52325510422071,13.2569353312784,-297.893307290872
738454.39897778839804232121,1.3570818201239,13.0815301980651,-297.884075441755
738454.39897787885274738073,1.40324106570635,13.1276894436476,-297.874843592639
738454.39897796930745244026,1.15398113956114,12.8691976683859,-297.921002838221
738454.39897805976215749979,1.11705374309519,12.8322702719199,-297.874843592639
738454.39897815021686255932,1.18167668691061,12.8968932157353,-297.884075441755
738454.39897824067156761885,1.1909085360271,12.9338206122013,-297.893307290872
738454.39897833100985735655,1.24629963072604,12.9707480086673,-297.939466536454
738454.39897842146456241608,1.22783593249306,12.9522843104343,-297.893307290872
738454.39897851191926747561,1.26476332895901,12.9892117069002,-297.948698385571
738454.39897860237397253513,1.25553147984252,12.9707480086673,-297.967162083804
738454.39897869282867759466,1.26476332895901,12.9707480086673,-297.948698385571
738454.39897878328338265419,1.24629963072604,12.9799798577837,-297.874843592639
738454.39897887373808771372,1.24629963072604,12.9799798577837,-297.939466536454
738454.39897896407637745142,1.36631366924039,13.0907620471816,-297.97639393292
738454.39897905453108251095,1.6155735953856,13.3492538224433,-297.985625782037
738454.39897914498578757048,1.13551744132817,12.8599658192694,-297.921002838221
738454.39897923544049263000,1.20937223426008,12.9338206122013,-297.967162083804
738454.39897932589519768953,1.24629963072604,12.9615161595508,-297.985625782037
738454.39897941634990274906,1.11705374309519,12.8322702719199,-297.939466536454
738454.39897950680460780859,1.22783593249306,12.9615161595508,-297.97639393292
738454.39897959714289754629,1.30169072542497,12.9984435560167,-298.013321329386
738454.39897968759760260582,1.32015442365795,12.9984435560167,-297.97639393292
738454.39897977805230766535,1.32938627277444,13.0261391033662,-297.957930234687
738454.39897986850701272488,1.3570818201239,13.0353709524827,-297.957930234687
738454.39897995896171778440,1.38477736747337,13.0538346507157,-297.97639393292
738454.39898004941642284393,1.33861812189093,13.0353709524827,-297.939466536454
738454.39898013975471258163,1.32938627277444,13.0446028015992,-297.985625782037
738454.39898023020941764116,1.31092257454146,13.0261391033662,-297.810220648823
738454.39898032066412270069,1.39400921658986,13.1184575945311,-297.837916196173
738454.39898041111882776022,1.48632770775475,13.210776085696,-297.948698385571
738454.39898050157353281975,1.15398113956114,12.8876613666189,-297.985625782037
738454.39898059202823787928,1.17244483779412,12.8968932157353,-297.930234687338
738454.39898068248294293880,1.09859004486221,12.8230384228034,-297.985625782037
738454.39898077282123267651,1.11705374309519,12.8507339701529,-297.994857631153
738454.39898086327593773603,1.18167668691061,12.9153569139683,-298.013321329386
738454.39898095373064279556,1.20937223426008,12.9522843104343,-297.97639393292
738454.39898104418534785509,1.14474929044465,12.9707480086673,-297.948698385571
738454.39898113464005291462,1.11705374309519,12.9799798577837,-297.985625782037
738454.39898122509475797415,1.26476332895901,13.1092257454146,-297.939466536454
738454.39898131543304771185,1.92022461622974,13.6539048432875,-297.727134006775
738454.39898140588775277138,2.87110507522813,14.0324106570635,-297.680974761193
738454.39898149634245783091,3.41578417310099,13.8847010711997,-297.690206610309
738454.39898158679716289043,2.6403088473159,13.3123264259774,-297.800988799707
738454.39898167725186794996,1.74481948301645,12.6384014404736,-298.031785027619
738454.39898176770657300949,1.1078218939787,12.6199377422407,-298.105639820551
738454.39898185816127806902,1.03396710104678,12.6568651387066,-298.013321329386
738454.39898194849956780672,1.23706778160955,12.8784295175024,-297.957930234687
738454.39898203895427286625,1.25553147984252,12.9338206122013,-297.994857631153
738454.39898212940897792578,1.24629963072604,12.9707480086673,-297.985625782037
738454.39898221986368298531,1.29245887630848,13.0261391033662,-297.902539139988
738454.39898231031838804483,1.26476332895901,13.0169072542497,-297.939466536454
738454.39898240077309310436,1.31092257454146,13.0446028015992,-297.957930234687
738454.39898249111138284206,1.30169072542497,13.0446028015992,-297.884075441755
738454.39898258156608790159,1.32015442365795,13.0815301980651,-297.930234687338
738454.39898267202079296112,1.32015442365795,13.0815301980651,-297.939466536454
738454.39898276247549802065,1.32938627277444,13.0815301980651,-297.967162083804
738454.39898285293020308018,1.37554551835688,13.1461531418805,-297.856379894406
738454.39898294338490813971,1.43093661305582,13.210776085696,-297.856379894406
738454.39898303383961319923,1.3570818201239,13.1184575945311,-297.921002838221
738454.39898312417790293694,1.24629963072604,13.0076754051332,-297.856379894406
738454.39898321463260799646,1.30169072542497,13.0815301980651,-297.828684347056
738454.39898330508731305599,1.34784997100742,13.1276894436476,-297.837916196173
738454.39898339554201811552,1.37554551835688,13.1646168401135,-297.847148045289
738454.39898348599672317505,1.37554551835688,13.17384868923,-297.847148045289
738454.39898357645142823458,1.41247291482284,13.2200079348125,-297.800988799707
738454.39898366678971797228,1.44016846217231,13.2569353312784,-297.902539139988
738454.39898375724442303181,1.40324106570635,13.2384716330454,-297.773293252358
738454.39898384769912809134,1.4494003112888,13.2938627277444,-297.791756950591
738454.39898393815383315086,1.50479140598773,13.3677175206763,-297.865611743522
738454.39898402860853821039,1.47709585863826,13.3584856715598,-297.884075441755
738454.39898411906324326992,1.5324869533372,13.4046449171422,-297.902539139988
738454.39898420951794832945,1.55095065157018,13.4508041627247,-297.81945249794
738454.39898429985623806715,1.56941434980316,13.5154271065401,-297.884075441755
738454.39898439031094312668,1.65250099185156,13.5708182012391,-297.856379894406
738454.39898448076564818621,1.63403729361858,13.5431226538896,-297.800988799707
738454.39898457122035324574,1.7909787285989,13.7000640888699,-297.847148045289
738454.39898466167505830526,1.84636982329783,13.7369914853359,-297.837916196173
738454.39898475212976336479,1.3570818201239,13.2015442365795,-297.884075441755
738454.39898484246805310249,1.44016846217231,13.2661671803949,-297.874843592639
738454.39898493292275816202,1.39400921658986,13.192312387463,-297.902539139988
738454.39898502337746322155,1.41247291482284,13.1830805383465,-297.911770989105
738454.39898511383216828108,1.40324106570635,13.1646168401135,-297.893307290872
738454.39898520428687334061,1.37554551835688,13.1276894436476,-297.939466536454
738454.39898529474157840014,1.32938627277444,13.0722983489486,-297.939466536454
738454.39898538519628345966,1.33861812189093,13.0630664998321,-297.911770989105
738454.39898547553457319736,1.31092257454146,13.0446028015992,-297.948698385571
738454.39898556598927825689,1.32015442365795,13.0446028015992,-297.893307290872
738454.39898565644398331642,1.30169072542497,13.0353709524827,-297.902539139988
738454.39898574689868837595,1.32938627277444,13.0353709524827,-297.911770989105
738454.39898583735339343548,1.51402325510422,13.2384716330454,-297.902539139988
738454.39898592780809849501,1.52325510422071,13.2569353312784,-297.902539139988
738454.39898601814638823271,1.2739951780755,13.0076754051332,-297.911770989105
738454.39898610860109329224,1.26476332895901,12.9984435560167,-297.902539139988
738454.39898619905579835176,1.18167668691061,12.8968932157353,-297.884075441755
738454.39898628951050341129,1.43093661305582,13.17384868923,-297.893307290872
738454.39898637996520847082,1.25553147984252,12.9799798577837,-297.893307290872
738454.39898647041991353035,1.21860408337657,12.9430524613178,-297.902539139988
738454.39898656087461858988,1.24629963072604,12.9615161595508,-297.902539139988
738454.39898665121290832758,1.24629963072604,12.9799798577837,-297.893307290872
738454.39898674166761338711,1.2739951780755,12.9984435560167,-297.856379894406
738454.39898683212231844664,1.28322702719199,13.0076754051332,-297.948698385571
738454.39898692257702350616,1.28322702719199,13.0169072542497,-297.985625782037
738454.39898701303172856569,1.29245887630848,13.0261391033662,-297.902539139988
738454.39898710348643362522,1.30169072542497,13.0446028015992,-297.893307290872
738454.39898719382472336292,1.45863216040529,13.2015442365795,-297.948698385571
738454.39898728427942842245,1.49555955687124,13.229239783929,-297.81945249794
738454.39898737473413348198,1.1909085360271,12.9153569139683,-297.884075441755
738454.39898746518883854151,1.18167668691061,12.9153569139683,-297.939466536454
738454.39898755564354360104,1.15398113956114,12.8784295175024,-297.985625782037
738454.39898764609824866056,1.18167668691061,12.9245887630848,-297.985625782037
738454.39898773655295372009,1.24629963072604,12.9799798577837,-297.967162083804
738454.39898782689124345779,1.25553147984252,12.9799798577837,-297.985625782037
738454.39898791734594851732,1.25553147984252,12.9707480086673,-298.022553178503
738454.39898800780065357685,1.2739951780755,13.0076754051332,-297.957930234687
738454.39898809825535863638,1.26476332895901,13.0076754051332,-297.948698385571
738454.39898818871006369591,1.2739951780755,13.0076754051332,-297.967162083804
738454.39898827916476875544,1.2739951780755,13.0076754051332,-297.957930234687
738454.39898836961947381496,1.2739951780755,12.9984435560167,-297.921002838221
738454.39898845995776355267,1.31092257454146,13.0446028015992,-297.948698385571
738454.39898855041246861219,1.32015442365795,13.0446028015992,-297.948698385571
738454.39898864086717367172,1.25553147984252,12.9799798577837,-297.948698385571
738454.39898873132187873125,1.37554551835688,13.1092257454146,-297.930234687338
738454.39898882177658379078,1.25553147984252,12.9892117069002,-297.948698385571
738454.39898891223128885031,1.1078218939787,12.8322702719199,-297.957930234687
738454.39898900256957858801,1.20937223426008,12.9430524613178,-297.948698385571
738454.39898909302428364754,1.23706778160955,12.9707480086673,-297.957930234687
738454.39898918347898870707,1.2739951780755,12.9984435560167,-297.939466536454
738454.39898927393369376659,1.25553147984252,12.9799798577837,-297.902539139988
738454.39898936438839882612,1.25553147984252,12.9799798577837,-297.874843592639
738454.39898945484310388565,1.26476332895901,12.9892117069002,-297.884075441755
738454.39898954529780894518,1.25553147984252,12.9984435560167,-297.921002838221
738454.39898963563609868288,1.24629963072604,12.9799798577837,-297.902539139988
738454.39898972609080374241,1.3570818201239,13.0907620471816,-297.893307290872
738454.39898981654550880194,1.29245887630848,13.0261391033662,-297.957930234687
738454.39898990700021386147,1.33861812189093,13.0815301980651,-297.939466536454
738454.39898999745491892099,1.2739951780755,13.0076754051332,-297.921002838221
738454.39899008790962398052,1.16321298867763,12.8876613666189,-297.930234687338
738454.39899017824791371822,1.1909085360271,12.9245887630848,-297.930234687338
738454.39899026870261877775,1.20937223426008,12.9338206122013,-297.921002838221
738454.39899035915732383728,1.22783593249306,12.9522843104343,-297.97639393292
738454.39899044961202889681,1.28322702719199,12.9892117069002,-297.930234687338
738454.39899054006673395634,1.31092257454146,13.0261391033662,-297.939466536454
738454.39899063052143901587,1.31092257454146,13.0169072542497,-297.930234687338
738454.39899072097614407539,1.33861812189093,13.0722983489486,-297.930234687338
738454.39899081131443381310,1.36631366924039,13.0907620471816,-297.874843592639
738454.39899090176913887262,1.34784997100742,13.0630664998321,-297.81945249794
738454.39899099222384393215,1.32015442365795,13.0538346507157,-297.902539139988
738454.39899108267854899168,1.28322702719199,13.0169072542497,-297.939466536454
738454.39899117313325405121,1.33861812189093,13.0907620471816,-297.930234687338
738454.39899126358795911074,1.31092257454146,13.0538346507157,-297.957930234687
738454.39899135392624884844,1.1078218939787,12.8599658192694,-297.97639393292
738454.39899144438095390797,1.21860408337657,12.9615161595508,-297.967162083804
738454.39899153483565896749,1.21860408337657,12.9615161595508,-297.930234687338
738454.39899162529036402702,1.1909085360271,12.9430524613178,-297.967162083804
738454.39899171574506908655,1.22783593249306,12.9707480086673,-297.97639393292
738454.39899180619977414608,1.22783593249306,12.9615161595508,-297.994857631153
738454.39899189665447920561,1.14474929044465,12.9799798577837,-297.985625782037
738454.39899198699276894331,1.16321298867763,13.0169072542497,-297.939466536454
738454.39899207744747400284,1.20014038514359,13.0722983489486,-297.994857631153
738454.39899216790217906237,1.36631366924039,13.2477034821619,-297.939466536454
738454.39899225835688412189,2.2156437879574,13.8939329203162,-297.782525101474
738454.39899234881158918142,3.19421979430525,14.0970336008789,-297.607119968261
738454.39899243926629424095,3.05574205755791,13.7646870326853,-297.773293252358
738454.39899252960458397865,2.53875850703452,13.3123264259774,-297.930234687338
738454.39899262005928903818,1.21860408337657,12.379909665212,-298.068712424085
738454.39899271051399409771,0.812402722251045,12.4076052125614,-298.114871669668
738454.39899280096869915724,1.13551744132817,12.795342875454,-298.00408948027
738454.39899289142340421677,1.29245887630848,12.9799798577837,-297.967162083804
738454.39899298187810927629,1.25553147984252,12.9984435560167,-297.967162083804
738454.39899307233281433582,1.28322702719199,13.0261391033662,-298.00408948027
738454.39899316267110407352,1.2739951780755,13.0446028015992,-297.994857631153
738454.39899325312580913305,1.2739951780755,13.0446028015992,-297.957930234687
738454.39899334358051419258,1.30169072542497,13.0722983489486,-297.985625782037
738454.39899343403521925211,1.31092257454146,13.0907620471816,-297.957930234687
738454.39899352448992431164,1.72635578478347,13.5246589556566,-297.902539139988
738454.39899361494462937117,1.16321298867763,12.9430524613178,-297.985625782037
738454.39899370528291910887,1.12628559221168,12.9153569139683,-297.97639393292
738454.39899379573762416840,1.23706778160955,13.0261391033662,-297.948698385571
738454.39899388619232922792,1.25553147984252,13.0630664998321,-297.967162083804
738454.39899397664703428745,1.31092257454146,13.1092257454146,-297.957930234687
738454.39899406710173934698,1.32938627277444,13.1369212927641,-297.967162083804
738454.39899415755644440651,1.32938627277444,13.1461531418805,-297.967162083804
738454.39899424801114946604,1.33861812189093,13.1646168401135,-297.948698385571
738454.39899433834943920374,1.36631366924039,13.17384868923,-297.865611743522
738454.39899442880414426327,1.38477736747337,13.2015442365795,-297.764061403241
738454.39899451925884932280,1.39400921658986,13.2384716330454,-297.865611743522
738454.39899460971355438232,1.56941434980316,13.4323404644917,-297.81945249794
738454.39899470016825944185,1.34784997100742,13.210776085696,-297.828684347056
738454.39899479062296450138,1.32938627277444,13.210776085696,-297.810220648823
738454.39899488096125423908,1.4494003112888,13.3307901242103,-297.810220648823
738454.39899497141595929861,1.47709585863826,13.3769493697928,-297.828684347056
738454.39899506187066435814,1.51402325510422,13.4231086153752,-297.837916196173
738454.39899515232536941767,1.55095065157018,13.4600360118412,-297.828684347056
738454.39899524278007447720,1.56941434980316,13.4877315591906,-297.856379894406
738454.39899533323477953672,1.58787804803613,13.5061952574236,-297.856379894406
738454.39899542368948459625,1.80944242683187,13.7185277871029,-297.837916196173
738454.39899551402777433395,1.57864619891964,13.4508041627247,-297.865611743522
738454.39899560448247939348,1.45863216040529,13.3123264259774,-297.847148045289
738454.39899569493718445301,1.46786400952177,13.3030945768609,-297.81945249794
738454.39899578539188951254,1.47709585863826,13.2846308786279,-297.911770989105
738454.39899587584659457207,1.4494003112888,13.229239783929,-297.930234687338
738454.39899596630129963160,1.43093661305582,13.2015442365795,-297.957930234687
738454.39899605663958936930,1.41247291482284,13.1830805383465,-297.874843592639
738454.39899614709429442883,1.38477736747337,13.1461531418805,-297.97639393292
738454.39899623754899948835,1.49555955687124,13.2477034821619,-297.967162083804
738454.39899632800370454788,1.72635578478347,13.4877315591906,-297.902539139988
738454.39899641845840960741,1.0247352519303,12.7491836298715,-297.994857631153
738454.39899650891311466694,1.28322702719199,13.0169072542497,-298.013321329386
738454.39899659936781972647,1.24629963072604,12.9984435560167,-297.957930234687
738454.39899668970610946417,1.22783593249306,12.9892117069002,-297.97639393292
738454.39899678016081452370,1.25553147984252,13.0076754051332,-298.022553178503
738454.39899687061551958323,1.28322702719199,13.0261391033662,-297.985625782037
738454.39899696107022464275,1.26476332895901,13.0169072542497,-297.985625782037
738454.39899705152492970228,1.30169072542497,13.0446028015992,-297.985625782037
738454.39899714197963476181,1.29245887630848,13.0538346507157,-297.985625782037
738454.39899723243433982134,1.29245887630848,13.0538346507157,-297.939466536454
738454.39899732277262955904,1.32015442365795,13.0630664998321,-297.985625782037
738454.39899741322733461857,1.28322702719199,13.0446028015992,-298.022553178503
738454.39899750368203967810,1.30169072542497,13.0630664998321,-297.97639393292
738454.39899759413674473763,1.30169072542497,13.0538346507157,-297.97639393292
738454.39899768459144979715,1.29245887630848,13.0538346507157,-298.00408948027
738454.39899777504615485668,1.28322702719199,13.0446028015992,-297.994857631153
738454.39899786538444459438,1.29245887630848,13.0538346507157,-297.893307290872
738454.39899795583914965391,1.2739951780755,13.0353709524827,-297.874843592639
738454.39899804629385471344,1.29245887630848,13.0538346507157,-298.022553178503
738454.39899813674855977297,1.29245887630848,13.0446028015992,-297.948698385571
738454.39899822720326483250,1.31092257454146,13.0722983489486,-297.97639393292
738454.39899831765796989202,1.57864619891964,13.3400219733268,-297.985625782037
738454.39899840811267495155,1.1078218939787,12.8599658192694,-298.00408948027
738454.39899849845096468925,1.11705374309519,12.8784295175024,-297.97639393292
738454.39899858890566974878,1.22783593249306,12.9892117069002,-298.041016876736
738454.39899867936037480831,1.23706778160955,12.9984435560167,-298.013321329386
738454.39899876981507986784,1.22783593249306,12.9984435560167,-297.939466536454
738454.39899886026978492737,1.25553147984252,13.0169072542497,-297.97639393292
738454.39899895072448998690,1.25553147984252,13.0169072542497,-298.013321329386
738454.39899904106277972460,1.23706778160955,13.0076754051332,-297.930234687338
738454.39899913151748478413,1.22783593249306,12.9984435560167,-298.013321329386
738454.39899922197218984365,1.26476332895901,13.0261391033662,-298.013321329386
738454.39899931242689490318,1.23706778160955,13.0076754051332,-297.930234687338
738454.39899940288159996271,1.52325510422071,13.3123264259774,-297.911770989105
738454.39899949333630502224,1.23706778160955,12.9892117069002,-297.930234687338
738454.39899958379101008177,1.08012634662923,12.8507339701529,-297.930234687338
738454.39899967412929981947,1.18167668691061,12.9430524613178,-297.921002838221
738454.39899976458400487900,1.22783593249306,12.9984435560167,-297.911770989105
738454.39899985503870993853,1.21860408337657,13.0076754051332,-297.930234687338
738454.39899994549341499805,1.20937223426008,12.9984435560167,-297.884075441755
738454.39900003594812005758,1.23706778160955,13.0076754051332,-297.911770989105
738454.39900012640282511711,1.23706778160955,12.9984435560167,-297.939466536454
738454.39900021674111485481,1.23706778160955,13.0076754051332,-297.967162083804
738454.39900030719581991434,1.25553147984252,13.0261391033662,-297.967162083804
738454.39900039765052497387,1.33861812189093,13.1092257454146,-298.00408948027
738454.39900048810523003340,1.23706778160955,13.0169072542497,-297.967162083804
738454.39900057855993509293,1.49555955687124,13.2846308786279,-297.994857631153
738454.39900066901464015245,1.03396710104678,12.8138065736869,-298.059480574969
738454.39900075946934521198,1.1909085360271,12.9615161595508,-297.948698385571
738454.39900084980763494968,1.23706778160955,12.9707480086673,-297.967162083804
738454.39900094026234000921,1.26476332895901,12.9984435560167,-297.97639393292
738454.39900103071704506874,1.38477736747337,13.1276894436476,-297.939466536454
738454.39900112117175012827,1.34784997100742,13.0815301980651,-297.967162083804
738454.39900121162645518780,1.26476332895901,13.0169072542497,-297.967162083804
738454.39900130208116024733,1.43093661305582,13.2015442365795,-297.939466536454
738454.39900139241944998503,1.23706778160955,13.0076754051332,-297.810220648823
738454.39900148287415504456,1.14474929044465,12.9153569139683,-297.921002838221
738454.39900157332886010408,1.18167668691061,12.9615161595508,-297.994857631153
738454.39900166378356516361,1.18167668691061,12.9799798577837,-297.994857631153
738454.39900175423827022314,1.18167668691061,12.9799798577837,-297.957930234687
738454.39900184469297528267,1.20937223426008,12.9892117069002,-297.97639393292
738454.39900193514768034220,1.20014038514359,12.9984435560167,-297.985625782037
738454.39900202548597007990,1.20014038514359,12.9984435560167,-297.967162083804
738454.39900211594067513943,1.18167668691061,12.9892117069002,-297.985625782037
738454.39900220639538019896,1.17244483779412,12.9892117069002,-298.00408948027
738454.39900229685008525848,1.06166264839625,13.0076754051332,-297.985625782037
738454.39900238730479031801,1.08935819574572,13.0353709524827,-297.994857631153
738454.39900247775949537754,1.34784997100742,13.229239783929,-297.921002838221
738454.39900256809778511524,2.17871639149144,13.8385418256172,-297.764061403241
738454.39900265855249017477,3.30500198370312,14.2078157902768,-297.66251106296
738454.39900274900719523430,3.51733451338237,14.1154972991119,-297.699438459426
738454.39900283946190029383,2.2156437879574,12.9892117069002,-297.911770989105
738454.39900292991660535336,1.21860408337657,12.324518570513,-298.087176122318
738454.39900302037131041288,0.775475325785089,12.4260689107944,-298.105639820551
738454.39900311082601547241,0.987807855464339,12.6937925351726,-298.050248725852
738454.39900320116430521011,1.24629963072604,12.9707480086673,-297.967162083804
738454.39900329161901026964,1.26476332895901,13.0446028015992,-297.957930234687
738454.39900338207371532917,1.3570818201239,13.155384990997,-297.874843592639
738454.39900347252842038870,1.32938627277444,13.1369212927641,-297.856379894406
738454.39900356298312544823,1.24629963072604,13.0630664998321,-297.921002838221
738454.39900365343783050776,1.30169072542497,13.1184575945311,-297.930234687338
738454.39900374377612024546,1.37554551835688,13.2200079348125,-297.957930234687
738454.39900383423082530499,1.12628559221168,12.9522843104343,-297.967162083804
738454.39900392468553036451,1.23706778160955,13.0538346507157,-297.967162083804
738454.39900401514023542404,1.18167668691061,13.0076754051332,-297.957930234687
738454.39900410559494048357,1.34784997100742,13.192312387463,-297.930234687338
738454.39900419604964554310,1.33861812189093,13.1830805383465,-297.930234687338
738454.39900428650435060263,1.17244483779412,13.0169072542497,-297.948698385571
738454.39900437684264034033,1.22783593249306,13.0722983489486,-297.930234687338
738454.39900446729734539986,1.30169072542497,13.155384990997,-297.930234687338
738454.39900455775205045938,1.34784997100742,13.210776085696,-297.967162083804
738454.39900464820675551891,1.65250099185156,13.5523545030061,-297.97639393292
738454.39900473866146057844,1.37554551835688,13.2661671803949,-297.967162083804
738454.39900482911616563797,1.26476332895901,13.1369212927641,-297.939466536454
738454.39900491945445537567,1.32938627277444,13.2200079348125,-297.764061403241
738454.39900500990916043520,1.25553147984252,13.1461531418805,-297.810220648823
738454.39900510036386549473,1.38477736747337,13.2938627277444,-297.856379894406
738454.39900519081857055426,1.43093661305582,13.3677175206763,-297.865611743522
738454.39900528127327561378,1.44016846217231,13.3861812189093,-297.847148045289
738454.39900537172798067331,1.47709585863826,13.4508041627247,-297.902539139988
738454.39900546218268573284,1.49555955687124,13.4600360118412,-297.893307290872
738454.39900555252097547054,1.56018250068667,13.5246589556566,-297.921002838221
738454.39900564297568053007,1.64326914273507,13.6169774468215,-297.911770989105
738454.39900573343038558960,1.44016846217231,13.4046449171422,-297.884075441755
738454.39900582388509064913,1.51402325510422,13.4692678609577,-297.939466536454
738454.39900591433979570866,1.65250099185156,13.5800500503555,-297.967162083804
738454.39900600479450076818,1.52325510422071,13.4138767662587,-297.939466536454
738454.39900609524920582771,1.43093661305582,13.3030945768609,-297.939466536454
738454.39900618558749556541,1.37554551835688,13.2200079348125,-297.957930234687
738454.39900627604220062494,1.3570818201239,13.1830805383465,-297.967162083804
738454.39900636649690568447,1.36631366924039,13.192312387463,-297.939466536454
738454.39900645695161074400,1.46786400952177,13.2846308786279,-297.957930234687
738454.39900654740631580353,1.47709585863826,13.2753990295114,-297.939466536454
738454.39900663786102086306,1.28322702719199,13.0538346507157,-297.921002838221
738454.39900672819931060076,1.31092257454146,13.0999938962981,-297.930234687338
738454.39900681865401566029,1.23706778160955,13.0538346507157,-297.837916196173
738454.39900690910872071981,1.12628559221168,12.9245887630848,-297.921002838221
738454.39900699956342577934,1.23706778160955,13.0261391033662,-297.921002838221
738454.39900709001813083887,1.26476332895901,13.0815301980651,-297.939466536454
738454.39900718047283589840,1.28322702719199,13.0907620471816,-297.921002838221
738454.39900727092754095793,1.29245887630848,13.0999938962981,-297.930234687338
738454.39900736126583069563,1.4494003112888,13.2477034821619,-297.957930234687
738454.39900745172053575516,1.49555955687124,13.2938627277444,-297.893307290872
738454.39900754217524081469,1.31092257454146,13.1184575945311,-297.985625782037
738454.39900763262994587421,1.34784997100742,13.17384868923,-297.967162083804
738454.39900772308465093374,1.39400921658986,13.2015442365795,-297.921002838221
738454.39900781353935599327,1.34784997100742,13.17384868923,-297.939466536454
738454.39900790387764573097,1.06166264839625,12.8691976683859,-297.930234687338
738454.39900799433235079050,1.14474929044465,12.9522843104343,-297.967162083804
738454.39900808478705585003,1.1909085360271,13.0076754051332,-297.957930234687
738454.39900817524176090956,1.25553147984252,13.0722983489486,-297.948698385571
738454.39900826569646596909,1.28322702719199,13.1092257454146,-297.930234687338
738454.39900835615117102861,1.47709585863826,13.3030945768609,-297.985625782037
738454.39900844660587608814,1.13551744132817,12.9430524613178,-297.800988799707
738454.39900853694416582584,1.15398113956114,12.9707480086673,-297.884075441755
738454.39900862739887088537,1.45863216040529,13.2753990295114,-297.957930234687
738454.39900871785357594490,1.13551744132817,12.9522843104343,-298.00408948027
738454.39900880830828100443,1.14474929044465,12.9522843104343,-297.985625782037
738454.39900889876298606396,1.23706778160955,13.0630664998321,-297.967162083804
738454.39900898921769112349,1.3570818201239,13.1830805383465,-298.013321329386
738454.39900907955598086119,1.26476332895901,13.0907620471816,-298.022553178503
738454.39900917001068592072,1.33861812189093,13.1646168401135,-297.967162083804
738454.39900926046539098024,1.1909085360271,13.0076754051332,-297.921002838221
738454.39900935092009603977,1.1078218939787,12.9153569139683,-298.022553178503
738454.39900944137480109930,1.14474929044465,12.9522843104343,-298.00408948027
738454.39900953182950615883,1.25553147984252,13.0630664998321,-297.948698385571
738454.39900962228421121836,1.20937223426008,13.0261391033662,-297.930234687338
738454.39900971262250095606,1.31092257454146,13.1276894436476,-297.921002838221
738454.39900980307720601559,1.42170476393933,13.2569353312784,-297.911770989105
738454.39900989353191107512,1.05243079927976,12.8507339701529,-297.930234687338
738454.39900998398661613464,1.17244483779412,12.9892117069002,-297.930234687338
738454.39901007444132119417,1.38477736747337,13.2015442365795,-297.967162083804
738454.39901016489602625370,1.20937223426008,13.0261391033662,-297.948698385571
738454.39901025523431599140,1.2739951780755,13.0907620471816,-297.994857631153
738454.39901034568902105093,1.72635578478347,13.5615863521226,-297.967162083804
738454.39901043614372611046,1.2739951780755,13.1092257454146,-297.948698385571
738454.39901052659843116999,1.09859004486221,12.9061250648518,-297.994857631153
738454.39901061705313622952,1.07089449751274,12.8876613666189,-298.013321329386
738454.39901070750784128904,1.34784997100742,13.1461531418805,-298.013321329386
738454.39901079796254634857,1.23706778160955,13.0169072542497,-297.967162083804
738454.39901088830083608627,1.20014038514359,12.9799798577837,-298.013321329386
738454.39901097875554114580,1.30169072542497,13.0815301980651,-298.022553178503
738454.39901106921024620533,1.33861812189093,13.0999938962981,-297.985625782037
738454.39901115966495126486,1.33861812189093,13.1092257454146,-297.902539139988
738454.39901125011965632439,1.32015442365795,13.0999938962981,-297.948698385571
738454.39901134057436138391,1.30169072542497,13.0999938962981,-297.97639393292
738454.39901143091265112162,1.26476332895901,13.0815301980651,-298.022553178503
738454.39901152136735618114,1.22783593249306,13.0446028015992,-297.939466536454
738454.39901161182206124067,1.24629963072604,13.0538346507157,-297.97639393292
738454.39901170227676630020,1.56018250068667,13.3677175206763,-297.930234687338
738454.39901179273147135973,1.21860408337657,13.0353709524827,-297.930234687338
738454.39901188318617641926,1.08012634662923,12.8968932157353,-297.948698385571
738454.39901197364088147879,1.11705374309519,12.9338206122013,-297.856379894406
738454.39901206397917121649,1.16321298867763,12.9799798577837,-297.865611743522
738454.39901215443387627602,1.15398113956114,13.0076754051332,-297.948698385571
738454.39901224488858133554,1.08012634662923,13.0446028015992,-297.948698385571
738454.39901233534328639507,1.1909085360271,13.1092257454146,-297.967162083804
738454.39901242579799145460,1.81867427594836,13.6816003906369,-297.800988799707
738454.39901251625269651413,2.57568590350047,14.1431928464614,-297.66251106296
738454.39901260659098625183,3.1480605487228,13.8108462782678,-297.625583666494
738454.39901269704569131136,2.87110507522813,13.5708182012391,-297.800988799707
738454.39901278750039637089,2.05870235297708,12.8415021210364,-298.00408948027
738454.39901287795510143042,1.08012634662923,12.4260689107944,-298.105639820551
738454.39901296840980648994,0.997039704580828,12.6753288369396,-298.041016876736
738454.39901305886451154947,1.22783593249306,12.9430524613178,-298.022553178503
738454.39901314931921660900,1.26476332895901,12.9892117069002,-297.985625782037
738454.39901323965750634670,1.2739951780755,13.0353709524827,-298.00408948027
738454.39901333011221140623,1.25553147984252,13.0630664998321,-297.97639393292
738454.39901342056691646576,1.29245887630848,13.1092257454146,-297.985625782037
738454.39901351102162152529,1.52325510422071,13.3400219733268,-297.985625782037
738454.39901360147632658482,1.39400921658986,13.2200079348125,-297.957930234687
738454.39901369193103164434,1.20014038514359,13.0261391033662,-297.97639393292
738454.39901378226932138205,1.14474929044465,12.9522843104343,-298.00408948027
738454.39901387272402644157,1.25553147984252,13.0815301980651,-298.022553178503
738454.39901396317873150110,1.43093661305582,13.2661671803949,-297.939466536454
738454.39901405363343656063,1.28322702719199,13.0999938962981,-297.985625782037
738454.39901414408814162016,1.25553147984252,13.0815301980651,-297.994857631153
738454.39901423454284667969,1.32938627277444,13.1646168401135,-297.884075441755
738454.39901432499755173922,1.4494003112888,13.3030945768609,-297.893307290872
738454.39901441533584147692,1.30169072542497,13.155384990997,-297.893307290872
738454.39901450579054653645,1.29245887630848,13.1461531418805,-297.874843592639
738454.39901459624525159597,1.36631366924039,13.2200079348125,-297.884075441755
738454.39901468669995665550,1.38477736747337,13.2477034821619,-297.930234687338
738454.39901477715466171503,1.5324869533372,13.4231086153752,-297.884075441755
738454.39901486760936677456,1.32938627277444,13.2200079348125,-297.930234687338
738454.39901495794765651226,1.42170476393933,13.3215582750938,-297.921002838221
738454.39901504840236157179,1.50479140598773,13.4046449171422,-297.902539139988
738454.39901513885706663132,1.50479140598773,13.4323404644917,-297.884075441755
738454.39901522931177169085,1.62480544450209,13.5708182012391,-297.884075441755
738454.39901531976647675037,1.47709585863826,13.4415723136082,-297.856379894406
738454.39901541022118180990,1.4494003112888,13.4046449171422,-297.847148045289
738454.39901550067588686943,1.5324869533372,13.4969634083071,-297.745597705008
738454.39901559101417660713,1.64326914273507,13.5985137485885,-297.736365855892
738454.39901568146888166666,1.60634174626911,13.5615863521226,-297.828684347056
738454.39901577192358672619,1.62480544450209,13.5615863521226,-297.828684347056
738454.39901586237829178572,1.57864619891964,13.4969634083071,-297.837916196173
738454.39901595283299684525,1.52325510422071,13.4138767662587,-297.893307290872
738454.39901604328770190477,1.68019653920103,13.5523545030061,-297.856379894406
738454.39901613374240696430,1.34784997100742,13.192312387463,-297.939466536454
738454.39901622408069670200,1.29245887630848,13.1184575945311,-297.967162083804
738454.39901631453540176153,1.3570818201239,13.155384990997,-297.967162083804
738454.39901640499010682106,1.3570818201239,13.155384990997,-297.939466536454
738454.39901649544481188059,1.33861812189093,13.1184575945311,-297.97639393292
738454.39901658589951694012,1.32938627277444,13.1092257454146,-297.957930234687
738454.39901667635422199965,1.32938627277444,13.0999938962981,-297.939466536454
738454.39901676669251173735,1.32938627277444,13.1184575945311,-297.967162083804
738454.39901685714721679688,1.30169072542497,13.0815301980651,-297.948698385571
738454.39901694760192185640,1.29245887630848,13.0722983489486,-297.967162083804
738454.39901703805662691593,1.43093661305582,13.210776085696,-297.893307290872
738454.39901712851133197546,1.56941434980316,13.3677175206763,-297.893307290872
738454.39901721896603703499,1.20014038514359,12.9707480086673,-297.939466536454
738454.39901730942074209452,1.17244483779412,12.9430524613178,-297.930234687338
738454.39901739975903183222,1.23706778160955,13.0076754051332,-297.985625782037
738454.39901749021373689175,1.26476332895901,13.0446028015992,-298.00408948027
738454.39901758066844195127,1.29245887630848,13.0907620471816,-297.921002838221
738454.39901767112314701080,1.3570818201239,13.1461531418805,-297.967162083804
738454.39901776157785207033,1.5324869533372,13.3307901242103,-297.985625782037
738454.39901785203255712986,1.18167668691061,12.9522843104343,-297.967162083804
738454.39901794237084686756,1.22783593249306,13.0076754051332,-297.967162083804
738454.39901803282555192709,1.28322702719199,13.0630664998321,-298.013321329386
738454.39901812328025698662,1.2739951780755,13.0630664998321,-297.97639393292
738454.39901821373496204615,1.38477736747337,13.1830805383465,-297.930234687338
738454.39901830418966710567,1.30169072542497,13.1092257454146,-297.985625782037
738454.39901839464437216520,1.20937223426008,12.9984435560167,-297.994857631153
738454.39901848509907722473,1.32938627277444,13.1276894436476,-297.930234687338
738454.39901857543736696243,1.20014038514359,12.9984435560167,-298.013321329386
738454.39901866589207202196,1.1909085360271,12.9892117069002,-297.985625782037
738454.39901875634677708149,1.25553147984252,13.0446028015992,-297.97639393292
738454.39901884680148214102,1.22783593249306,13.0169072542497,-297.930234687338
738454.39901893725618720055,1.22783593249306,13.0261391033662,-298.00408948027
738454.39901902771089226007,1.24629963072604,13.0353709524827,-297.967162083804
738454.39901911804918199778,1.26476332895901,13.0538346507157,-297.865611743522
738454.39901920850388705730,1.32015442365795,13.0999938962981,-298.022553178503
738454.39901929895859211683,1.41247291482284,13.210776085696,-297.994857631153
738454.39901938941329717636,1.26476332895901,13.0538346507157,-297.939466536454
738454.39901947986800223589,1.20014038514359,12.9892117069002,-297.957930234687
738454.39901957032270729542,1.29245887630848,13.0815301980651,-297.911770989105
738454.39901966077741235495,1.20014038514359,12.9892117069002,-297.902539139988
738454.39901975111570209265,1.17244483779412,12.9615161595508,-297.893307290872
738454.39901984157040715218,1.22783593249306,13.0169072542497,-297.921002838221
738454.39901993202511221170,1.23706778160955,13.0261391033662,-297.957930234687
738454.39902002247981727123,1.25553147984252,13.0538346507157,-297.930234687338
738454.39902011293452233076,1.24629963072604,13.0353709524827,-297.939466536454
738454.39902020338922739029,1.24629963072604,13.0446028015992,-297.948698385571
738454.39902029372751712799,1.32938627277444,13.1276894436476,-297.893307290872
738454.39902038418222218752,1.32938627277444,13.1276894436476,-297.948698385571
738454.39902047463692724705,1.39400921658986,13.192312387463,-297.930234687338
738454.39902056509163230658,1.20014038514359,12.9892117069002,-297.994857631153
738454.39902065554633736610,1.11705374309519,12.8968932157353,-297.985625782037
738454.39902074600104242563,1.17244483779412,12.9522843104343,-298.00408948027
738454.39902083645574748516,1.22783593249306,13.0261391033662,-298.041016876736
738454.39902092679403722286,1.26476332895901,13.0538346507157,-298.031785027619
738454.39902101724874228239,1.31092257454146,13.0630664998321,-297.902539139988
738454.39902110770344734192,1.31092257454146,13.0630664998321,-297.957930234687
738454.39902119815815240145,1.32938627277444,13.0999938962981,-297.967162083804
738454.39902128861285746098,1.38477736747337,13.1369212927641,-297.948698385571
738454.39902137906756252050,1.63403729361858,13.3954130680258,-297.985625782037
738454.39902146940585225821,1.44016846217231,13.2200079348125,-297.994857631153
738454.39902155986055731773,1.1078218939787,12.8691976683859,-298.00408948027
738454.39902165031526237726,1.16321298867763,12.9430524613178,-297.967162083804
738454.39902174076996743679,1.18167668691061,12.9799798577837,-298.00408948027
738454.39902183122467249632,1.1909085360271,12.9892117069002,-298.00408948027
738454.39902192167937755585,1.20014038514359,12.9984435560167,-297.930234687338
738454.39902201213408261538,1.21860408337657,13.0169072542497,-297.994857631153
738454.39902210247237235308,1.21860408337657,13.0169072542497,-298.022553178503
738454.39902219292707741261,1.22783593249306,13.0169072542497,-297.967162083804
738454.39902228338178247213,1.20937223426008,13.0076754051332,-298.013321329386
738454.39902237383648753166,1.15398113956114,13.0353709524827,-298.013321329386
738454.39902246429119259119,1.18167668691061,13.0907620471816,-297.97639393292
738454.39902255474589765072,1.44016846217231,13.3677175206763,-297.884075441755
738454.39902264508418738842,1.73558763389996,13.6723685415204,-297.764061403241
738454.39902273553889244795,2.26180303353984,13.9216284676656,-297.791756950591
738454.39902282599359750748,3.17575609607227,14.023178807947,-297.66251106296
738454.39902291644830256701,2.85264137699515,13.6354411450545,-297.810220648823
738454.39902300690300762653,2.02177495651112,12.8230384228034,-298.031785027619
738454.39902309735771268606,1.08935819574572,12.3891415143284,-298.114871669668
738454.39902318781241774559,1.01550340281381,12.6476332895901,-298.059480574969
738454.39902327815070748329,1.25553147984252,12.9707480086673,-298.041016876736
738454.39902336860541254282,1.4494003112888,13.192312387463,-297.994857631153
738454.39902345906011760235,1.47709585863826,13.2569353312784,-297.921002838221
738454.39902354951482266188,1.25553147984252,13.0538346507157,-298.00408948027
738454.39902363996952772141,1.1909085360271,12.9892117069002,-297.97639393292
738454.39902373042423278093,1.17244483779412,12.9892117069002,-297.930234687338
738454.39902382076252251863,1.21860408337657,13.0446028015992,-297.985625782037
738454.39902391121722757816,1.33861812189093,13.17384868923,-298.022553178503
738454.39902400167193263769,1.33861812189093,13.1830805383465,-297.957930234687
738454.39902409212663769722,1.36631366924039,13.2015442365795,-297.948698385571
738454.39902418258134275675,1.45863216040529,13.3030945768609,-297.921002838221
738454.39902427303604781628,1.21860408337657,13.0538346507157,-297.930234687338
738454.39902436349075287580,1.25553147984252,13.0907620471816,-297.921002838221
738454.39902445382904261351,1.40324106570635,13.2477034821619,-297.902539139988
738454.39902454428374767303,1.23706778160955,13.0907620471816,-297.921002838221
738454.39902463473845273256,1.21860408337657,13.0538346507157,-297.921002838221
738454.39902472519315779209,1.32938627277444,13.17384868923,-297.884075441755
738454.39902481564786285162,1.46786400952177,13.3492538224433,-297.884075441755
738454.39902490610256791115,1.3570818201239,13.229239783929,-297.902539139988
738454.39902499655727297068,1.41247291482284,13.2846308786279,-297.911770989105
738454.39902508689556270838,1.4494003112888,13.3400219733268,-297.884075441755
738454.39902517735026776791,1.36631366924039,13.2753990295114,-297.902539139988
738454.39902526780497282743,1.41247291482284,13.3400219733268,-297.911770989105
738454.39902535825967788696,1.47709585863826,13.4231086153752,-297.902539139988
738454.39902544871438294649,1.57864619891964,13.5431226538896,-297.921002838221
738454.39902553916908800602,1.72635578478347,13.7000640888699,-297.893307290872
