time_dn,ecg_projection_ll_ra_mV,ecg_projection_la_ra_mV,ecg_projection_vx_rl_mV
738533.40612898569088429213,-4.87441633350627,-14.3001342814417,-300.201269569994
738533.40612907614558935165,-4.89288003173925,-14.3278298287912,-300.173574022645
738533.40612916660029441118,-4.92980742820521,-14.4109164708396,-300.192037720878
738533.40612925705499947071,-4.97596667378765,-14.457075716422,-300.210501419111
738533.40612934750970453024,-5.0221259193701,-14.5216986602374,-300.247428815577
738533.40612943796440958977,-5.05905331583605,-14.5493942075869,-300.219733268227
738533.40612952841911464930,-5.08674886318552,-14.6047853022858,-300.210501419111
738533.40612961887381970882,-5.11444441053499,-14.5955534531693,-300.228965117344
738533.40612970921210944653,-5.13290810876797,-14.6232490005188,-300.247428815577
738533.40612979966681450605,-5.13290810876797,-14.6140171514023,-300.312051759392
738533.40612989012151956558,-5.12367625965148,-14.6417126987518,-300.312051759392
738533.40612998057622462511,-5.13290810876797,-14.6232490005188,-300.321283608509
738533.40613007103092968464,-5.13290810876797,-14.6417126987518,-300.321283608509
738533.40613016148563474417,-5.13290810876797,-14.6324808496353,-300.247428815577
738533.40613025194033980370,-5.13290810876797,-14.6324808496353,-300.293588061159
738533.40613034239504486322,-5.13290810876797,-14.6509445478683,-300.293588061159
738533.40613043284974992275,-5.14213995788446,-14.6417126987518,-300.275124362926
738533.40613052330445498228,-5.14213995788446,-14.6601763969848,-300.284356212043
738533.40613061375916004181,-5.14213995788446,-14.6324808496353,-300.293588061159
738533.40613070421386510134,-5.14213995788446,-14.6601763969848,-300.302819910276
738533.40613079466857016087,-5.15137180700095,-14.6417126987518,-300.275124362926
738533.40613088500685989857,-5.15137180700095,-14.6694082461013,-300.302819910276
738533.40613097546156495810,-5.15137180700095,-14.6509445478683,-300.293588061159
738533.40613106591627001762,-5.15137180700095,-14.6694082461013,-300.228965117344
738533.40613115637097507715,-5.15137180700095,-14.6601763969848,-300.228965117344
738533.40613124682568013668,-5.15137180700095,-14.6786400952177,-300.256660664693
738533.40613133728038519621,-5.16060365611744,-14.6601763969848,-300.247428815577
738533.40613142773509025574,-5.16983550523392,-14.6786400952177,-300.26589251381
738533.40613151818979531527,-5.16983550523392,-14.6694082461013,-300.256660664693
738533.40613160864450037479,-5.16060365611744,-14.6786400952177,-300.284356212043
738533.40613169909920543432,-5.16060365611744,-14.6694082461013,-300.108951078829
738533.40613178955391049385,-5.16060365611744,-14.6878719443342,-300.173574022645
738533.40613188000861555338,-5.17906735435041,-14.6878719443342,-300.293588061159
738533.40613197046332061291,-5.16983550523392,-14.6786400952177,-300.330515457625
738533.40613206080161035061,-5.15137180700095,-14.6694082461013,-300.339747306742
738533.40613215125631541014,-5.16060365611744,-14.6601763969848,-300.247428815577
738533.40613224171102046967,-5.16060365611744,-14.6786400952177,-300.312051759392
738533.40613233216572552919,-5.16060365611744,-14.6694082461013,-300.321283608509
738533.40613242262043058872,-5.16060365611744,-14.6878719443342,-300.358211004975
738533.40613251307513564825,-5.16983550523392,-14.6694082461013,-300.275124362926
738533.40613260352984070778,-5.15137180700095,-14.6786400952177,-300.330515457625
738533.40613269398454576731,-5.12367625965148,-14.6509445478683,-300.293588061159
738533.40613278443925082684,-5.1052125614185,-14.6509445478683,-300.228965117344
738533.40613287489395588636,-5.05905331583605,-14.5955534531693,-300.275124362926
738533.40613296534866094589,-5.01289407025361,-14.5586260567034,-300.26589251381
738533.40613305580336600542,-5.03135776848659,-14.5678579058199,-300.23819696646
738533.40613314625807106495,-5.08674886318552,-14.6140171514023,-300.284356212043
738533.40613323659636080265,-5.12367625965148,-14.6601763969848,-300.247428815577
738533.40613332705106586218,-5.15137180700095,-14.6694082461013,-300.23819696646
738533.40613341750577092171,-5.16983550523392,-14.6971037934507,-300.247428815577
738533.40613350796047598124,-5.17906735435041,-14.7063356425672,-300.247428815577
738533.40613359841518104076,-5.1882992034669,-14.7247993408002,-300.247428815577
738533.40613368886988610029,-5.1882992034669,-14.7155674916837,-300.26589251381
738533.40613377932459115982,-5.1882992034669,-14.7340311899167,-300.312051759392
738533.40613386977929621935,-5.19753105258339,-14.7155674916837,-300.275124362926
738533.40613396023400127888,-5.19753105258339,-14.7247993408002,-300.321283608509
738533.40613405068870633841,-5.1882992034669,-14.7063356425672,-300.321283608509
738533.40613414114341139793,-5.19753105258339,-14.7063356425672,-300.302819910276
738533.40613423159811645746,-5.26215399639882,-14.7063356425672,-300.302819910276
738533.40613432205282151699,-5.24369029816584,-14.6324808496353,-300.312051759392
738533.40613441239111125469,-5.00366222113712,-14.4847712637715,-300.256660664693
738533.40613450284581631422,-4.63438825647755,-14.1154972991119,-300.108951078829
738533.40613459330052137375,-4.11740470595416,-14.060106204413,-300.108951078829
738533.40613468375522643328,-3.68350779747917,-14.6601763969848,-300.192037720878
738533.40613477420993149281,-3.98815881832331,-15.287942136906,-300.330515457625
738533.40613486466463655233,-4.57899716177862,-15.4171880245369,-300.42283394879
738533.40613495511934161186,-5.06828516495254,-15.2787102877895,-300.42283394879
738533.40613504557404667139,-5.20676290169988,-14.9832911160619,-300.376674703207
738533.40613513602875173092,-5.15137180700095,-14.8078859828486,-300.321283608509
738533.40613522648345679045,-5.17906735435041,-14.7432630390332,-300.173574022645
738533.40613531693816184998,-5.1882992034669,-14.7340311899167,-300.23819696646
738533.40613540739286690950,-5.1882992034669,-14.6971037934507,-300.275124362926
738533.40613549784757196903,-5.17906735435041,-14.7063356425672,-300.284356212043
738533.40613558830227702856,-5.1882992034669,-14.6878719443342,-300.284356212043
738533.40613567864056676626,-5.17906735435041,-14.6878719443342,-300.293588061159
738533.40613576909527182579,-5.16983550523392,-14.6601763969848,-300.26589251381
738533.40613585954997688532,-5.17906735435041,-14.6601763969848,-300.247428815577
738533.40613595000468194485,-5.17906735435041,-14.6694082461013,-300.302819910276
738533.40613604045938700438,-5.16983550523392,-14.6509445478683,-300.293588061159
738533.40613613091409206390,-5.16060365611744,-14.6509445478683,-300.256660664693
738533.40613622136879712343,-5.15137180700095,-14.6232490005188,-300.247428815577
738533.40613631182350218296,-5.13290810876797,-14.6140171514023,-300.247428815577
738533.40613640227820724249,-5.13290810876797,-14.5770897549364,-300.247428815577
738533.40613649273291230202,-5.1052125614185,-14.5678579058199,-300.275124362926
738533.40613658318761736155,-5.07751701406903,-14.5309305093539,-300.228965117344
738533.40613667364232242107,-5.05905331583605,-14.5124668111209,-300.192037720878
738533.40613676409702748060,-5.03135776848659,-14.457075716422,-300.192037720878
738533.40613685443531721830,-5.00366222113712,-14.4293801690725,-300.182805871761
738533.40613694489002227783,-4.97596667378765,-14.3739890743736,-300.173574022645
738533.40613703534472733736,-4.94827112643818,-14.3555253761406,-300.182805871761
738533.40613712579943239689,-4.91134372997223,-14.3093661305582,-300.145878475295
738533.40613721625413745642,-4.87441633350627,-14.3001342814417,-300.173574022645
738533.40613730670884251595,-4.83748893704032,-14.2816705832087,-300.192037720878
738533.40613739716354757547,-4.81902523880734,-14.3001342814417,-300.201269569994
738533.40613748761825263500,-4.80979338969085,-14.3093661305582,-300.155110324412
738533.40613757807295769453,-4.81902523880734,-14.3647572252571,-300.164342173528
738533.40613766852766275406,-4.82825708792383,-14.3924527726066,-300.228965117344
738533.40613775898236781359,-4.87441633350627,-14.4293801690725,-300.192037720878
738533.40613784943707287312,-4.92057557908872,-14.5032349620045,-300.26589251381
738533.40613793989177793264,-4.96673482467116,-14.5309305093539,-300.302819910276
738533.40613803023006767035,-5.00366222113712,-14.5955534531693,-300.302819910276
738533.40613812068477272987,-5.03135776848659,-14.5955534531693,-300.312051759392
738533.40613821113947778940,-5.05905331583605,-14.6324808496353,-300.321283608509
738533.40613830159418284893,-5.07751701406903,-14.6324808496353,-300.321283608509
738533.40613839204888790846,-5.08674886318552,-14.6509445478683,-300.339747306742
738533.40613848250359296799,-5.08674886318552,-14.6417126987518,-300.293588061159
738533.40613857295829802752,-5.07751701406903,-14.6509445478683,-300.321283608509
738533.40613866341300308704,-5.08674886318552,-14.6509445478683,-300.348979155858
738533.40613875386770814657,-5.07751701406903,-14.6601763969848,-300.127414777062
738533.40613884432241320610,-5.07751701406903,-14.6601763969848,-300.23819696646
738533.40613893477711826563,-5.06828516495254,-14.6786400952177,-300.312051759392
738533.40613902523182332516,-5.07751701406903,-14.6786400952177,-300.275124362926
738533.40613911568652838469,-5.07751701406903,-14.6786400952177,-300.312051759392
738533.40613920602481812239,-5.07751701406903,-14.6786400952177,-300.339747306742
738533.40613929647952318192,-5.05905331583605,-14.6601763969848,-300.256660664693
738533.40613938693422824144,-5.06828516495254,-14.6786400952177,-300.247428815577
738533.40613947738893330097,-5.07751701406903,-14.6694082461013,-300.256660664693
738533.40613956784363836050,-5.07751701406903,-14.6786400952177,-300.275124362926
738533.40613965829834342003,-5.09598071230201,-14.6694082461013,-300.247428815577
738533.40613974875304847956,-5.08674886318552,-14.6786400952177,-300.275124362926
738533.40613983920775353909,-5.08674886318552,-14.6694082461013,-300.312051759392
738533.40613992966245859861,-5.09598071230201,-14.6878719443342,-300.302819910276
738533.40614002011716365814,-5.09598071230201,-14.6694082461013,-300.312051759392
738533.40614011057186871767,-5.07751701406903,-14.6786400952177,-300.302819910276
738533.40614020102657377720,-5.08674886318552,-14.6786400952177,-300.312051759392
738533.40614029148127883673,-5.09598071230201,-14.6878719443342,-300.321283608509
738533.40614038181956857443,-5.09598071230201,-14.6878719443342,-300.284356212043
738533.40614047227427363396,-5.1052125614185,-14.6878719443342,-300.330515457625
738533.40614056272897869349,-5.1052125614185,-14.6971037934507,-300.26589251381
738533.40614065318368375301,-5.1052125614185,-14.6878719443342,-300.284356212043
738533.40614074363838881254,-5.08674886318552,-14.6971037934507,-300.293588061159
738533.40614083409309387207,-5.09598071230201,-14.6878719443342,-300.302819910276
738533.40614092454779893160,-5.09598071230201,-14.6878719443342,-300.330515457625
738533.40614101500250399113,-5.08674886318552,-14.6694082461013,-300.312051759392
738533.40614110545720905066,-5.05905331583605,-14.6878719443342,-300.293588061159
738533.40614119591191411018,-5.04982146671956,-14.6509445478683,-300.23819696646
738533.40614128636661916971,-5.00366222113712,-14.6232490005188,-300.219733268227
738533.40614137682132422924,-4.95750297555467,-14.5678579058199,-300.26589251381
738533.40614146727602928877,-4.94827112643818,-14.5770897549364,-300.23819696646
738533.40614155761431902647,-4.99443037202063,-14.6140171514023,-300.256660664693
738533.40614164806902408600,-5.04058961760308,-14.6509445478683,-300.312051759392
738533.40614173852372914553,-5.06828516495254,-14.6786400952177,-300.312051759392
738533.40614182897843420506,-5.08674886318552,-14.6878719443342,-300.23819696646
738533.40614191943313926458,-5.09598071230201,-14.7155674916837,-300.330515457625
738533.40614200988784432411,-5.11444441053499,-14.7247993408002,-300.302819910276
738533.40614210034254938364,-5.11444441053499,-14.7340311899167,-300.256660664693
738533.40614219079725444317,-5.11444441053499,-14.7155674916837,-300.23819696646
738533.40614228125195950270,-5.09598071230201,-14.7247993408002,-300.164342173528
738533.40614237170666456223,-5.09598071230201,-14.7063356425672,-300.173574022645
738533.40614246216136962175,-5.09598071230201,-14.7247993408002,-300.302819910276
738533.40614255261607468128,-5.11444441053499,-14.6971037934507,-300.302819910276
738533.40614264307077974081,-5.16983550523392,-14.7247993408002,-300.339747306742
738533.40614273340906947851,-5.15137180700095,-14.6324808496353,-300.312051759392
738533.40614282386377453804,-4.89288003173925,-14.4847712637715,-300.26589251381
738533.40614291431847959757,-4.50514236884671,-14.078569902646,-300.182805871761
738533.40614300477318465710,-3.9973906674398,-14.0970336008789,-300.155110324412
738533.40614309522788971663,-3.5727256080813,-14.6786400952177,-300.219733268227
738533.40614318568259477615,-3.89584032715842,-15.287942136906,-300.339747306742
738533.40614327613729983568,-4.20972319711905,-15.4356517227699,-300.42283394879
738533.40614336659200489521,-4.78209784234138,-15.3341013824885,-300.468993194372
738533.40614345704670995474,-5.1052125614185,-15.0571459089938,-300.404370250557
738533.40614354750141501427,-5.04982146671956,-14.8263496810816,-300.339747306742
738533.40614363795612007380,-5.08674886318552,-14.7617267372662,-300.358211004975
738533.40614372841082513332,-5.1052125614185,-14.7155674916837,-300.348979155858
738533.40614381886553019285,-5.11444441053499,-14.7247993408002,-300.302819910276
738533.40614390920381993055,-5.1052125614185,-14.6878719443342,-300.321283608509
738533.40614399965852499008,-5.1052125614185,-14.6971037934507,-300.358211004975
738533.40614409011323004961,-5.1052125614185,-14.6694082461013,-300.256660664693
738533.40614418056793510914,-5.09598071230201,-14.6786400952177,-300.210501419111
738533.40614427102264016867,-5.1052125614185,-14.6601763969848,-300.210501419111
738533.40614436147734522820,-5.09598071230201,-14.6694082461013,-300.23819696646
738533.40614445193205028772,-5.08674886318552,-14.6417126987518,-300.23819696646
738533.40614454238675534725,-5.07751701406903,-14.6509445478683,-300.228965117344
738533.40614463284146040678,-5.05905331583605,-14.6232490005188,-300.247428815577
738533.40614472329616546631,-5.04982146671956,-14.6140171514023,-300.275124362926
738533.40614481375087052584,-5.04058961760308,-14.5955534531693,-300.23819696646
738533.40614490420557558537,-5.03135776848659,-14.5863216040529,-300.247428815577
738533.40614499466028064489,-5.01289407025361,-14.5586260567034,-300.210501419111
738533.40614508511498570442,-4.98519852290414,-14.5124668111209,-300.210501419111
738533.40614517545327544212,-4.96673482467116,-14.5032349620045,-300.23819696646
738533.40614526590798050165,-4.9390392773217,-14.438612018189,-300.228965117344
738533.40614535636268556118,-4.91134372997223,-14.4109164708396,-300.210501419111
738533.40614544681739062071,-4.87441633350627,-14.3555253761406,-300.201269569994
738533.40614553727209568024,-4.83748893704032,-14.3462935270241,-300.219733268227
738533.40614562772680073977,-4.79132969145787,-14.3001342814417,-300.173574022645
738533.40614571818150579929,-4.77286599322489,-14.3001342814417,-300.201269569994
738533.40614580863621085882,-4.73593859675893,-14.3001342814417,-300.145878475295
738533.40614589909091591835,-4.72670674764244,-14.3278298287912,-300.108951078829
738533.40614598954562097788,-4.72670674764244,-14.3555253761406,-300.182805871761
738533.40614608000032603741,-4.74517044587542,-14.4109164708396,-300.145878475295
738533.40614617045503109694,-4.79132969145787,-14.4663075655385,-300.201269569994
738533.40614626090973615646,-4.8467207861568,-14.5124668111209,-300.210501419111
738533.40614635124802589417,-4.88364818262276,-14.5678579058199,-300.228965117344
738533.40614644170273095369,-4.92057557908872,-14.5955534531693,-300.219733268227
738533.40614653215743601322,-4.95750297555467,-14.6324808496353,-300.210501419111
738533.40614662261214107275,-4.98519852290414,-14.6417126987518,-300.312051759392
738533.40614671306684613228,-4.99443037202063,-14.6601763969848,-300.330515457625
738533.40614680352155119181,-5.00366222113712,-14.6509445478683,-300.275124362926
738533.40614689397625625134,-5.00366222113712,-14.6694082461013,-300.302819910276
738533.40614698443096131086,-5.00366222113712,-14.6601763969848,-300.321283608509
738533.40614707488566637039,-5.00366222113712,-14.6694082461013,-300.321283608509
738533.40614716534037142992,-5.00366222113712,-14.6601763969848,-300.275124362926
738533.40614725579507648945,-5.00366222113712,-14.6694082461013,-300.312051759392
738533.40614734624978154898,-5.01289407025361,-14.6694082461013,-300.348979155858
738533.40614743670448660851,-5.01289407025361,-14.6694082461013,-300.256660664693
738533.40614752704277634621,-5.00366222113712,-14.6694082461013,-300.312051759392
738533.40614761749748140574,-4.99443037202063,-14.6694082461013,-300.312051759392
738533.40614770795218646526,-5.00366222113712,-14.6786400952177,-300.339747306742
738533.40614779840689152479,-5.00366222113712,-14.6694082461013,-300.284356212043
738533.40614788886159658432,-5.01289407025361,-14.6878719443342,-300.358211004975
738533.40614797931630164385,-5.0221259193701,-14.6694082461013,-300.312051759392
738533.40614806977100670338,-5.01289407025361,-14.6878719443342,-300.219733268227
738533.40614816022571176291,-5.0221259193701,-14.6786400952177,-300.321283608509
738533.40614825068041682243,-5.03135776848659,-14.7063356425672,-300.330515457625
738533.40614834113512188196,-5.03135776848659,-14.6786400952177,-300.321283608509
738533.40614843158982694149,-5.03135776848659,-14.7063356425672,-300.302819910276
738533.40614852204453200102,-5.0221259193701,-14.6878719443342,-300.312051759392
738533.40614861249923706055,-5.03135776848659,-14.7063356425672,-300.302819910276
738533.40614870283752679825,-5.03135776848659,-14.6878719443342,-300.26589251381
738533.40614879329223185778,-5.03135776848659,-14.7155674916837,-300.302819910276
738533.40614888374693691730,-5.03135776848659,-14.7063356425672,-300.321283608509
738533.40614897420164197683,-5.04058961760308,-14.6971037934507,-300.330515457625
738533.40614906465634703636,-5.03135776848659,-14.7063356425672,-300.302819910276
738533.40614915511105209589,-5.03135776848659,-14.6971037934507,-300.358211004975
738533.40614924556575715542,-5.03135776848659,-14.7155674916837,-300.312051759392
738533.40614933602046221495,-5.03135776848659,-14.6971037934507,-300.275124362926
738533.40614942647516727448,-5.0221259193701,-14.7063356425672,-300.155110324412
738533.40614951692987233400,-4.99443037202063,-14.6786400952177,-300.312051759392
738533.40614960738457739353,-4.98519852290414,-14.6786400952177,-300.302819910276
738533.40614969783928245306,-4.9390392773217,-14.6140171514023,-300.256660664693
738533.40614978829398751259,-4.88364818262276,-14.5955534531693,-300.275124362926
738533.40614987863227725029,-4.89288003173925,-14.5955534531693,-300.26589251381
738533.40614996908698230982,-4.95750297555467,-14.6601763969848,-300.275124362926
738533.40615005954168736935,-4.99443037202063,-14.6694082461013,-300.228965117344
738533.40615014999639242887,-5.01289407025361,-14.6971037934507,-300.247428815577
738533.40615024045109748840,-5.04058961760308,-14.7063356425672,-300.247428815577
738533.40615033090580254793,-5.04982146671956,-14.7340311899167,-300.302819910276
738533.40615042136050760746,-5.06828516495254,-14.7340311899167,-300.339747306742
738533.40615051181521266699,-5.05905331583605,-14.7432630390332,-300.302819910276
738533.40615060226991772652,-5.05905331583605,-14.7340311899167,-300.293588061159
738533.40615069272462278605,-5.05905331583605,-14.7247993408002,-300.302819910276
738533.40615078317932784557,-5.04982146671956,-14.7432630390332,-300.312051759392
738533.40615087363403290510,-5.04982146671956,-14.7340311899167,-300.293588061159
738533.40615096408873796463,-5.05905331583605,-14.7432630390332,-300.312051759392
738533.40615105442702770233,-5.11444441053499,-14.7155674916837,-300.256660664693
738533.40615114488173276186,-5.08674886318552,-14.6786400952177,-300.23819696646
738533.40615123533643782139,-4.83748893704032,-14.4663075655385,-300.182805871761
738533.40615132579114288092,-4.44975127414777,-14.0693380535295,-300.08125553148
738533.40615141624584794044,-3.93276772362438,-14.0508743552965,-300.08125553148
738533.40615150670055299997,-3.53579821161534,-14.6878719443342,-300.182805871761
738533.40615159715525805950,-3.84968108157598,-15.287942136906,-300.358211004975
738533.40615168760996311903,-4.44975127414777,-15.4448835718863,-300.413602099673
738533.40615177806466817856,-4.92980742820521,-15.1771599475082,-300.385906552324
738533.40615186851937323809,-5.01289407025361,-14.927900021363,-300.358211004975
738533.40615195897407829762,-5.00366222113712,-14.7801904354991,-300.312051759392
738533.40615204942878335714,-5.04058961760308,-14.7432630390332,-300.256660664693
738533.40615213988348841667,-5.04058961760308,-14.7340311899167,-300.293588061159
738533.40615223022177815437,-5.04982146671956,-14.7155674916837,-300.302819910276
738533.40615232067648321390,-5.04982146671956,-14.7063356425672,-300.23819696646
738533.40615241113118827343,-5.04982146671956,-14.6878719443342,-300.293588061159
738533.40615250158589333296,-5.04982146671956,-14.6878719443342,-300.302819910276
738533.40615259204059839249,-5.04058961760308,-14.6601763969848,-300.293588061159
738533.40615268249530345201,-5.04058961760308,-14.6694082461013,-300.228965117344
738533.40615277295000851154,-5.03135776848659,-14.6509445478683,-300.293588061159
738533.40615286340471357107,-5.03135776848659,-14.6417126987518,-300.228965117344
738533.40615295385941863060,-5.01289407025361,-14.6140171514023,-300.127414777062
738533.40615304431412369013,-5.00366222113712,-14.6232490005188,-300.219733268227
738533.40615313476882874966,-4.98519852290414,-14.5863216040529,-300.275124362926
738533.40615322522353380919,-4.97596667378765,-14.5770897549364,-300.256660664693
738533.40615331567823886871,-4.96673482467116,-14.5586260567034,-300.219733268227
738533.40615340601652860641,-4.94827112643818,-14.5309305093539,-300.145878475295
738533.40615349647123366594,-4.91134372997223,-14.5032349620045,-300.247428815577
738533.40615358692593872547,-4.89288003173925,-14.457075716422,-300.23819696646
738533.40615367738064378500,-4.85595263527329,-14.4201483199561,-300.210501419111
738533.40615376783534884453,-4.81902523880734,-14.3647572252571,-300.201269569994
738533.40615385829005390406,-4.78209784234138,-14.3462935270241,-300.192037720878
738533.40615394874475896358,-4.75440229499191,-14.2909024323252,-300.182805871761
738533.40615403919946402311,-4.72670674764244,-14.3001342814417,-300.136646626179
738533.40615412965416908264,-4.68054750206,-14.2724387340922,-300.182805871761
738533.40615422010887414217,-4.65285195471053,-14.3001342814417,-300.182805871761
738533.40615431056357920170,-4.64362010559404,-14.3093661305582,-300.182805871761
738533.40615440101828426123,-4.67131565294351,-14.3832209234901,-300.173574022645
738533.40615449147298932076,-4.68977935117649,-14.4016846217231,-300.210501419111
738533.40615458181127905846,-4.72670674764244,-14.4478438673055,-300.228965117344
738533.40615467226598411798,-4.77286599322489,-14.494003112888,-300.210501419111
738533.40615476272068917751,-4.82825708792383,-14.5124668111209,-300.23819696646
738533.40615485317539423704,-4.91134372997223,-14.5955534531693,-300.247428815577
738533.40615494363009929657,-4.89288003173925,-14.5678579058199,-300.247428815577
738533.40615503408480435610,-4.91134372997223,-14.5863216040529,-300.192037720878
738533.40615512453950941563,-4.92057557908872,-14.5770897549364,-300.23819696646
738533.40615521499421447515,-4.92980742820521,-14.5955534531693,-300.247428815577
738533.40615530544891953468,-4.92980742820521,-14.5678579058199,-300.192037720878
738533.40615539590362459421,-4.92980742820521,-14.5863216040529,-300.256660664693
738533.40615548635832965374,-4.9390392773217,-14.5678579058199,-300.256660664693
738533.40615557681303471327,-4.9390392773217,-14.5955534531693,-300.256660664693
738533.40615566726773977280,-4.92980742820521,-14.5678579058199,-300.23819696646
738533.40615575772244483232,-4.92980742820521,-14.5955534531693,-300.256660664693
738533.40615584806073457003,-4.94827112643818,-14.5770897549364,-300.26589251381
738533.40615593851543962955,-4.92980742820521,-14.5863216040529,-300.23819696646
738533.40615602897014468908,-4.92980742820521,-14.5770897549364,-300.284356212043
738533.40615611942484974861,-4.9390392773217,-14.5955534531693,-300.284356212043
738533.40615620987955480814,-4.94827112643818,-14.5863216040529,-300.228965117344
738533.40615630033425986767,-4.95750297555467,-14.5955534531693,-300.247428815577
738533.40615639078896492720,-4.94827112643818,-14.6047853022858,-300.256660664693
738533.40615648124366998672,-4.96673482467116,-14.5955534531693,-300.164342173528
738533.40615657169837504625,-4.97596667378765,-14.6324808496353,-300.23819696646
738533.40615666215308010578,-4.95750297555467,-14.6047853022858,-300.293588061159
738533.40615675260778516531,-4.97596667378765,-14.6232490005188,-300.302819910276
738533.40615684306249022484,-4.97596667378765,-14.6140171514023,-300.23819696646
738533.40615693351719528437,-4.94827112643818,-14.6324808496353,-300.293588061159
738533.40615702385548502207,-4.96673482467116,-14.6232490005188,-300.284356212043
738533.40615711431019008160,-4.95750297555467,-14.6417126987518,-300.247428815577
738533.40615720476489514112,-4.94827112643818,-14.6232490005188,-300.256660664693
738533.40615729521960020065,-4.96673482467116,-14.6509445478683,-300.26589251381
738533.40615738567430526018,-4.95750297555467,-14.6324808496353,-300.302819910276
738533.40615747612901031971,-4.98519852290414,-14.6694082461013,-300.256660664693
738533.40615756658371537924,-4.97596667378765,-14.6417126987518,-300.23819696646
738533.40615765703842043877,-4.99443037202063,-14.6786400952177,-300.330515457625
738533.40615774749312549829,-4.96673482467116,-14.6417126987518,-300.26589251381
738533.40615783794783055782,-4.92980742820521,-14.6324808496353,-300.302819910276
738533.40615792840253561735,-4.92057557908872,-14.6417126987518,-300.312051759392
738533.40615801885724067688,-4.90211188085574,-14.6047853022858,-300.275124362926
738533.40615810931194573641,-4.8467207861568,-14.5586260567034,-300.23819696646
738533.40615819965023547411,-4.8467207861568,-14.5401623584704,-300.284356212043
738533.40615829010494053364,-4.82825708792383,-14.5586260567034,-300.293588061159
738533.40615838055964559317,-4.91134372997223,-14.6140171514023,-300.228965117344
738533.40615847101435065269,-4.91134372997223,-14.6232490005188,-300.219733268227
738533.40615856146905571222,-4.89288003173925,-14.5955534531693,-300.284356212043
738533.40615865192376077175,-4.89288003173925,-14.6047853022858,-300.339747306742
738533.40615874237846583128,-5.01289407025361,-14.7247993408002,-300.348979155858
738533.40615883283317089081,-5.1052125614185,-14.7986541337321,-300.330515457625
738533.40615892328787595034,-5.0221259193701,-14.7063356425672,-300.367442854091
738533.40615901374258100986,-5.03135776848659,-14.7524948881497,-300.39513840144
738533.40615910419728606939,-5.04982146671956,-14.7524948881497,-300.339747306742
738533.40615919465199112892,-5.04982146671956,-14.7340311899167,-300.39513840144
738533.40615928510669618845,-5.0221259193701,-14.7155674916837,-300.441297647023
738533.40615937544498592615,-5.05905331583605,-14.7247993408002,-300.459761345256
738533.40615946589969098568,-5.1052125614185,-14.7340311899167,-300.487456892605
738533.40615955635439604521,-4.94827112643818,-14.6047853022858,-300.542847987304
738533.40615964680910110474,-4.60669270912809,-14.2724387340922,-300.404370250557
738533.40615973726380616426,-4.22818689535203,-13.8570055238502,-300.26589251381
738533.40615982771851122379,-3.71120334482864,-14.1801202429273,-300.302819910276
738533.40615991817321628332,-3.4896389660329,-14.890972624897,-300.219733268227
738533.40616000862792134285,-3.71120334482864,-15.2233191930906,-300.330515457625
738533.40616009908262640238,-4.35743278298288,-15.4910428174688,-300.505920590838
738533.40616018953733146191,-4.83748893704032,-15.2602465895566,-300.552079836421
738533.40616027999203652143,-4.99443037202063,-14.9740592669454,-300.496688741722
738533.40616037044674158096,-4.99443037202063,-14.8171178319651,-300.39513840144
738533.40616046090144664049,-5.00366222113712,-14.7432630390332,-300.441297647023
738533.40616055123973637819,-5.00366222113712,-14.7155674916837,-300.413602099673
738533.40616064169444143772,-4.98519852290414,-14.6694082461013,-300.348979155858
738533.40616073214914649725,-4.99443037202063,-14.6786400952177,-300.348979155858
738533.40616082260385155678,-4.98519852290414,-14.6417126987518,-300.330515457625
738533.40616091305855661631,-4.97596667378765,-14.6324808496353,-300.321283608509
738533.40616100351326167583,-5.01289407025361,-14.6878719443342,-300.293588061159
738533.40616109396796673536,-5.00366222113712,-14.6694082461013,-300.358211004975
738533.40616118442267179489,-4.98519852290414,-14.6509445478683,-300.348979155858
738533.40616127487737685442,-4.96673482467116,-14.6047853022858,-300.284356212043
738533.40616136533208191395,-4.99443037202063,-14.6509445478683,-300.348979155858
738533.40616145578678697348,-4.9390392773217,-14.5678579058199,-300.321283608509
738533.40616154624149203300,-4.8467207861568,-14.4847712637715,-300.302819910276
738533.40616163669619709253,-4.92057557908872,-14.5401623584704,-300.302819910276
738533.40616172703448683023,-4.96673482467116,-14.6047853022858,-300.312051759392
738533.40616181748919188976,-4.89288003173925,-14.5216986602374,-300.312051759392
738533.40616190794389694929,-4.88364818262276,-14.5124668111209,-300.247428815577
738533.40616199839860200882,-4.90211188085574,-14.5216986602374,-300.293588061159
738533.40616208885330706835,-4.86518448438978,-14.4293801690725,-300.26589251381
738533.40616217930801212788,-4.79132969145787,-14.3370616779077,-300.210501419111
738533.40616226976271718740,-4.75440229499191,-14.2632068849757,-300.228965117344
738533.40616236021742224693,-4.70824304940947,-14.2262794885098,-300.182805871761
738533.40616245067212730646,-4.65285195471053,-14.1801202429273,-300.192037720878
738533.40616254112683236599,-4.60669270912809,-14.1801202429273,-300.210501419111
738533.40616263158153742552,-4.61592455824457,-14.2170476393933,-300.219733268227
738533.40616272203624248505,-4.68054750206,-14.3093661305582,-300.210501419111
738533.40616281249094754457,-4.69901120029298,-14.3462935270241,-300.293588061159
738533.40616290282923728228,-4.69901120029298,-14.3924527726066,-300.312051759392
738533.40616299328394234180,-4.70824304940947,-14.4016846217231,-300.210501419111
738533.40616308373864740133,-4.77286599322489,-14.475539414655,-300.284356212043
738533.40616317419335246086,-4.78209784234138,-14.4847712637715,-300.330515457625
738533.40616326464805752039,-4.83748893704032,-14.5401623584704,-300.312051759392
738533.40616335510276257992,-4.85595263527329,-14.5493942075869,-300.284356212043
738533.40616344555746763945,-4.80979338969085,-14.5309305093539,-300.164342173528
738533.40616353601217269897,-4.86518448438978,-14.5678579058199,-300.247428815577
738533.40616362646687775850,-4.90211188085574,-14.6140171514023,-300.293588061159
738533.40616371692158281803,-4.87441633350627,-14.6140171514023,-300.302819910276
738533.40616380737628787756,-4.81902523880734,-14.5309305093539,-300.293588061159
738533.40616389783099293709,-4.91134372997223,-14.6509445478683,-300.275124362926
738533.40616398828569799662,-4.96673482467116,-14.6971037934507,-300.293588061159
738533.40616407862398773432,-4.90211188085574,-14.6694082461013,-300.312051759392
738533.40616416907869279385,-4.92057557908872,-14.6509445478683,-300.284356212043
738533.40616425953339785337,-4.88364818262276,-14.6417126987518,-300.302819910276
738533.40616434998810291290,-4.8467207861568,-14.6047853022858,-300.312051759392
738533.40616444044280797243,-4.92980742820521,-14.6971037934507,-300.302819910276
738533.40616453089751303196,-4.89288003173925,-14.6509445478683,-300.26589251381
738533.40616462135221809149,-4.80056154057436,-14.5678579058199,-300.302819910276
738533.40616471180692315102,-4.89288003173925,-14.6417126987518,-300.302819910276
738533.40616480226162821054,-4.99443037202063,-14.7340311899167,-300.26589251381
738533.40616489271633327007,-4.94827112643818,-14.7063356425672,-300.247428815577
738533.40616498317103832960,-4.87441633350627,-14.6047853022858,-300.247428815577
738533.40616507362574338913,-4.91134372997223,-14.6324808496353,-300.228965117344
738533.40616516408044844866,-4.9390392773217,-14.6694082461013,-300.256660664693
738533.40616525453515350819,-4.87441633350627,-14.6232490005188,-300.284356212043
738533.40616534487344324589,-4.92057557908872,-14.6509445478683,-300.284356212043
738533.40616543532814830542,-4.87441633350627,-14.6324808496353,-300.293588061159
738533.40616552578285336494,-4.92057557908872,-14.6786400952177,-300.302819910276
738533.40616561623755842447,-4.96673482467116,-14.7524948881497,-300.321283608509
738533.40616570669226348400,-4.9390392773217,-14.7063356425672,-300.284356212043
738533.40616579714696854353,-4.92057557908872,-14.6971037934507,-300.312051759392
738533.40616588760167360306,-4.85595263527329,-14.6417126987518,-300.302819910276
738533.40616597805637866259,-4.90211188085574,-14.6971037934507,-300.302819910276
738533.40616606851108372211,-4.94827112643818,-14.7155674916837,-300.275124362926
738533.40616615896578878164,-4.95750297555467,-14.7340311899167,-300.293588061159
738533.40616624942049384117,-4.92057557908872,-14.7524948881497,-300.302819910276
738533.40616633987519890070,-4.81902523880734,-14.6047853022858,-300.228965117344
738533.40616643032990396023,-4.92057557908872,-14.7524948881497,-300.275124362926
738533.40616652066819369793,-4.85595263527329,-14.6509445478683,-300.210501419111
738533.40616661112289875746,-4.73593859675893,-14.5216986602374,-300.219733268227
738533.40616670157760381699,-4.86518448438978,-14.6417126987518,-300.23819696646
738533.40616679203230887651,-4.86518448438978,-14.6047853022858,-300.256660664693
738533.40616688248701393604,-4.94827112643818,-14.6786400952177,-300.256660664693
738533.40616697294171899557,-4.95750297555467,-14.7063356425672,-300.164342173528
738533.40616706339642405510,-5.00366222113712,-14.7432630390332,-300.247428815577
738533.40616715385112911463,-4.99443037202063,-14.7709585863826,-300.26589251381
738533.40616724430583417416,-4.92980742820521,-14.6694082461013,-300.284356212043
738533.40616733476053923368,-4.89288003173925,-14.6417126987518,-300.256660664693
738533.40616742521524429321,-4.94827112643818,-14.6878719443342,-300.23819696646
738533.40616751566994935274,-5.00366222113712,-14.7155674916837,-300.302819910276
738533.40616760612465441227,-5.00366222113712,-14.7340311899167,-300.339747306742
738533.40616769646294414997,-4.94827112643818,-14.6601763969848,-300.348979155858
738533.40616778691764920950,-5.06828516495254,-14.7155674916837,-300.247428815577
738533.40616787737235426903,-5.11444441053499,-14.6694082461013,-300.293588061159
738533.40616796782705932856,-4.80979338969085,-14.4293801690725,-300.302819910276
738533.40616805828176438808,-4.43128757591479,-13.9862514114811,-300.108951078829
738533.40616814873646944761,-3.9973906674398,-13.8939329203162,-300.108951078829
738533.40616823919117450714,-3.60965300454726,-14.5863216040529,-300.23819696646
738533.40616832964587956667,-3.75736259041108,-15.3341013824885,-300.385906552324
738533.40616842010058462620,-4.3389690847499,-15.5187383648183,-300.413602099673
738533.40616851055528968573,-4.69901120029298,-15.1956236457411,-300.404370250557
738533.40616860100999474525,-4.92980742820521,-14.9371318704794,-300.348979155858
738533.40616869146469980478,-4.94827112643818,-14.7894222846156,-300.275124362926
738533.40616878191940486431,-4.90211188085574,-14.6601763969848,-300.293588061159
738533.40616887225769460201,-4.92980742820521,-14.6694082461013,-300.293588061159
738533.40616896271239966154,-4.96673482467116,-14.6786400952177,-300.26589251381
738533.40616905316710472107,-4.97596667378765,-14.6878719443342,-300.219733268227
738533.40616914362180978060,-4.91134372997223,-14.6232490005188,-300.275124362926
738533.40616923407651484013,-4.88364818262276,-14.5955534531693,-300.293588061159
738533.40616932453121989965,-4.88364818262276,-14.6047853022858,-300.284356212043
738533.40616941498592495918,-4.97596667378765,-14.6786400952177,-300.275124362926
738533.40616950544063001871,-4.96673482467116,-14.6601763969848,-300.275124362926
738533.40616959589533507824,-4.90211188085574,-14.5955534531693,-300.284356212043
738533.40616968635004013777,-4.92980742820521,-14.6324808496353,-300.26589251381
738533.40616977680474519730,-4.86518448438978,-14.5493942075869,-300.26589251381
738533.40616986725945025682,-4.91134372997223,-14.6140171514023,-300.275124362926
738533.40616995771415531635,-4.90211188085574,-14.5770897549364,-300.210501419111
738533.40617004805244505405,-4.85595263527329,-14.5493942075869,-300.26589251381
738533.40617013850715011358,-4.8467207861568,-14.5216986602374,-300.247428815577
738533.40617022896185517311,-4.86518448438978,-14.5309305093539,-300.201269569994
738533.40617031941656023264,-4.80979338969085,-14.438612018189,-300.247428815577
738533.40617040987126529217,-4.7636341441084,-14.4109164708396,-300.23819696646
738533.40617050032597035170,-4.74517044587542,-14.3647572252571,-300.062791833247
738533.40617059078067541122,-4.71747489852596,-14.3278298287912,-300.108951078829
738533.40617068123538047075,-4.61592455824457,-14.2632068849757,-300.145878475295
738533.40617077169008553028,-4.61592455824457,-14.2539750358592,-300.145878475295
738533.40617086214479058981,-4.53283791619617,-14.1893520920438,-300.145878475295
738533.40617095259949564934,-4.57899716177862,-14.2724387340922,-300.155110324412
738533.40617104305420070887,-4.61592455824457,-14.3462935270241,-300.173574022645
738533.40617113350890576839,-4.5974608600116,-14.3462935270241,-300.173574022645
738533.40617122384719550610,-4.58822901089511,-14.3832209234901,-300.182805871761
738533.40617131430190056562,-4.5974608600116,-14.3739890743736,-300.201269569994
738533.40617140475660562515,-4.62515640736106,-14.457075716422,-300.247428815577
738533.40617149521131068468,-4.69901120029298,-14.5216986602374,-300.201269569994
738533.40617158566601574421,-4.77286599322489,-14.5863216040529,-300.284356212043
738533.40617167612072080374,-4.71747489852596,-14.5401623584704,-300.284356212043
738533.40617176657542586327,-4.7636341441084,-14.5955534531693,-300.302819910276
738533.40617185703013092279,-4.83748893704032,-14.6509445478683,-300.312051759392
738533.40617194748483598232,-4.8467207861568,-14.6694082461013,-300.348979155858
738533.40617203793954104185,-4.78209784234138,-14.5863216040529,-300.321283608509
738533.40617212839424610138,-4.82825708792383,-14.6509445478683,-300.312051759392
738533.40617221884895116091,-4.79132969145787,-14.6232490005188,-300.321283608509
738533.40617230930365622044,-4.83748893704032,-14.6601763969848,-300.367442854091
738533.40617239964194595814,-4.78209784234138,-14.6140171514023,-300.284356212043
738533.40617249009665101767,-4.79132969145787,-14.6232490005188,-300.302819910276
738533.40617258055135607719,-4.79132969145787,-14.6324808496353,-300.302819910276
738533.40617267100606113672,-4.80979338969085,-14.6140171514023,-300.302819910276
738533.40617276146076619625,-4.83748893704032,-14.6878719443342,-300.284356212043
738533.40617285191547125578,-4.87441633350627,-14.6878719443342,-300.302819910276
738533.40617294237017631531,-4.82825708792383,-14.6601763969848,-300.302819910276
738533.40617303282488137484,-4.79132969145787,-14.6047853022858,-300.275124362926
738533.40617312327958643436,-4.70824304940947,-14.5401623584704,-300.284356212043
738533.40617321373429149389,-4.83748893704032,-14.6786400952177,-300.284356212043
738533.40617330418899655342,-4.92980742820521,-14.7801904354991,-300.302819910276
738533.40617339464370161295,-4.85595263527329,-14.6971037934507,-300.275124362926
738533.40617348509840667248,-4.79132969145787,-14.6509445478683,-300.302819910276
738533.40617357543669641018,-4.83748893704032,-14.6971037934507,-300.302819910276
738533.40617366589140146971,-4.89288003173925,-14.7617267372662,-300.26589251381
738533.40617375634610652924,-4.80979338969085,-14.6786400952177,-300.201269569994
738533.40617384680081158876,-4.8467207861568,-14.7247993408002,-300.219733268227
738533.40617393725551664829,-4.80056154057436,-14.6971037934507,-300.256660664693
738533.40617402771022170782,-4.85595263527329,-14.7432630390332,-300.164342173528
738533.40617411816492676735,-4.8467207861568,-14.7709585863826,-300.192037720878
738533.40617420861963182688,-4.82825708792383,-14.7063356425672,-300.26589251381
738533.40617429907433688641,-4.88364818262276,-14.7986541337321,-300.302819910276
738533.40617438952904194593,-4.80979338969085,-14.6878719443342,-300.256660664693
738533.40617447998374700546,-4.8467207861568,-14.7617267372662,-300.293588061159
738533.40617457043845206499,-4.78209784234138,-14.7063356425672,-300.284356212043
738533.40617466089315712452,-4.83748893704032,-14.7524948881497,-300.284356212043
738533.40617475123144686222,-4.73593859675893,-14.6324808496353,-300.293588061159
738533.40617484168615192175,-4.68977935117649,-14.6232490005188,-300.26589251381
738533.40617493214085698128,-4.68054750206,-14.6324808496353,-300.219733268227
738533.40617502259556204081,-4.75440229499191,-14.6786400952177,-300.219733268227
738533.40617511305026710033,-4.78209784234138,-14.7247993408002,-300.23819696646
738533.40617520350497215986,-4.7636341441084,-14.6971037934507,-300.247428815577
738533.40617529395967721939,-4.82825708792383,-14.7801904354991,-300.302819910276
738533.40617538441438227892,-4.83748893704032,-14.7801904354991,-300.247428815577
738533.40617547486908733845,-4.85595263527329,-14.7986541337321,-300.26589251381
738533.40617556532379239798,-4.86518448438978,-14.7801904354991,-300.256660664693
738533.40617565577849745750,-4.8467207861568,-14.8078859828486,-300.256660664693
738533.40617574623320251703,-4.94827112643818,-14.8632770775475,-300.247428815577
738533.40617583668790757656,-4.89288003173925,-14.8171178319651,-300.26589251381
738533.40617592714261263609,-4.8467207861568,-14.7524948881497,-300.256660664693
738533.40617601748090237379,-4.88364818262276,-14.8078859828486,-300.23819696646
738533.40617610793560743332,-4.88364818262276,-14.7155674916837,-300.312051759392
738533.40617619839031249285,-4.91134372997223,-14.6971037934507,-300.312051759392
738533.40617628884501755238,-4.62515640736106,-14.4478438673055,-300.219733268227
738533.40617637929972261190,-4.35743278298288,-14.0878017517624,-300.192037720878
738533.40617646975442767143,-3.95123142185736,-14.1708883938108,-300.164342173528
738533.40617656020913273096,-3.48040711691641,-14.8448133793146,-300.256660664693
738533.40617665066383779049,-3.73889889217811,-15.5002746665853,-300.385906552324
738533.40617674111854285002,-4.06201361125523,-15.6387524033326,-300.42283394879
738533.40617683157324790955,-4.52360606707968,-15.5095065157018,-300.468993194372
738533.40617692202795296907,-4.79132969145787,-15.1033051545762,-300.42283394879
738533.40617701248265802860,-4.74517044587542,-14.8632770775475,-300.321283608509
738533.40617710293736308813,-4.75440229499191,-14.7247993408002,-300.367442854091
738533.40617719327565282583,-4.86518448438978,-14.8078859828486,-300.348979155858
738533.40617728373035788536,-4.87441633350627,-14.7709585863826,-300.385906552324
738533.40617737418506294489,-4.8467207861568,-14.7247993408002,-300.293588061159
738533.40617746463976800442,-4.81902523880734,-14.6878719443342,-300.330515457625
738533.40617755509447306395,-4.8467207861568,-14.7247993408002,-300.256660664693
738533.40617764554917812347,-4.87441633350627,-14.7247993408002,-300.201269569994
738533.40617773600388318300,-4.87441633350627,-14.7340311899167,-300.339747306742
738533.40617782645858824253,-4.83748893704032,-14.6601763969848,-300.192037720878
738533.40617791691329330206,-4.82825708792383,-14.6694082461013,-300.275124362926
738533.40617800736799836159,-4.79132969145787,-14.6232490005188,-300.293588061159
738533.40617809782270342112,-4.7636341441084,-14.6047853022858,-300.302819910276
738533.40617818827740848064,-4.78209784234138,-14.6140171514023,-300.23819696646
738533.40617827873211354017,-4.79132969145787,-14.6140171514023,-300.312051759392
738533.40617836907040327787,-4.79132969145787,-14.5955534531693,-300.302819910276
738533.40617845952510833740,-4.7636341441084,-14.5401623584704,-300.256660664693
738533.40617854997981339693,-4.67131565294351,-14.457075716422,-300.247428815577
738533.40617864043451845646,-4.65285195471053,-14.4016846217231,-300.275124362926
738533.40617873088922351599,-4.71747489852596,-14.475539414655,-300.312051759392
738533.40617882134392857552,-4.68054750206,-14.4201483199561,-300.201269569994
738533.40617891179863363504,-4.67131565294351,-14.4016846217231,-300.26589251381
738533.40617900225333869457,-4.60669270912809,-14.3370616779077,-300.284356212043
738533.40617909270804375410,-4.55130161442915,-14.2909024323252,-300.210501419111
738533.40617918316274881363,-4.48667867061373,-14.2170476393933,-300.219733268227
738533.40617927361745387316,-4.44051942503128,-14.1985839411603,-300.293588061159
738533.40617936407215893269,-4.46821497238075,-14.2909024323252,-300.164342173528
738533.40617945452686399221,-4.52360606707968,-14.3924527726066,-300.228965117344
738533.40617954486515372992,-4.52360606707968,-14.438612018189,-300.293588061159
738533.40617963531985878944,-4.53283791619617,-14.457075716422,-300.247428815577
738533.40617972577456384897,-4.56053346354564,-14.5124668111209,-300.219733268227
738533.40617981622926890850,-4.56053346354564,-14.494003112888,-300.256660664693
738533.40617990668397396803,-4.60669270912809,-14.5678579058199,-300.26589251381
738533.40617999713867902756,-4.66208380382702,-14.5955534531693,-300.201269569994
738533.40618008759338408709,-4.69901120029298,-14.6417126987518,-300.275124362926
738533.40618017804808914661,-4.69901120029298,-14.6324808496353,-300.26589251381
738533.40618026850279420614,-4.67131565294351,-14.6232490005188,-300.23819696646
738533.40618035895749926567,-4.68054750206,-14.6047853022858,-300.228965117344
738533.40618044941220432520,-4.69901120029298,-14.6601763969848,-300.284356212043
738533.40618053986690938473,-4.68977935117649,-14.6601763969848,-300.284356212043
738533.40618063032161444426,-4.68977935117649,-14.6601763969848,-300.256660664693
738533.40618072065990418196,-4.68054750206,-14.6509445478683,-300.256660664693
738533.40618081111460924149,-4.70824304940947,-14.6694082461013,-300.275124362926
738533.40618090156931430101,-4.71747489852596,-14.7063356425672,-300.26589251381
738533.40618099202401936054,-4.68977935117649,-14.6694082461013,-300.219733268227
738533.40618108247872442007,-4.67131565294351,-14.6971037934507,-300.155110324412
738533.40618117293342947960,-4.69901120029298,-14.6878719443342,-300.145878475295
738533.40618126338813453913,-4.69901120029298,-14.7063356425672,-300.201269569994
738533.40618135384283959866,-4.69901120029298,-14.6786400952177,-300.23819696646
738533.40618144429754465818,-4.69901120029298,-14.6694082461013,-300.256660664693
738533.40618153475224971771,-4.71747489852596,-14.6878719443342,-300.275124362926
738533.40618162520695477724,-4.74517044587542,-14.7432630390332,-300.293588061159
738533.40618171566165983677,-4.71747489852596,-14.7155674916837,-300.284356212043
738533.40618180611636489630,-4.68977935117649,-14.7155674916837,-300.275124362926
738533.40618189645465463400,-4.68977935117649,-14.6971037934507,-300.275124362926
738533.40618198690935969353,-4.68054750206,-14.7155674916837,-300.293588061159
738533.40618207736406475306,-4.64362010559404,-14.6694082461013,-300.275124362926
738533.40618216781876981258,-4.70824304940947,-14.7801904354991,-300.247428815577
738533.40618225827347487211,-4.67131565294351,-14.7155674916837,-300.293588061159
738533.40618234872817993164,-4.68977935117649,-14.7247993408002,-300.293588061159
738533.40618243918288499117,-4.70824304940947,-14.7524948881497,-300.293588061159
738533.40618252963759005070,-4.70824304940947,-14.7247993408002,-300.256660664693
738533.40618262009229511023,-4.70824304940947,-14.7617267372662,-300.302819910276
738533.40618271054700016975,-4.65285195471053,-14.7063356425672,-300.275124362926
738533.40618280100170522928,-4.60669270912809,-14.6694082461013,-300.210501419111
738533.40618289145641028881,-4.61592455824457,-14.6509445478683,-300.26589251381
738533.40618298191111534834,-4.58822901089511,-14.6417126987518,-300.26589251381
738533.40618307224940508604,-4.55130161442915,-14.6047853022858,-300.182805871761
738533.40618316270411014557,-4.63438825647755,-14.6971037934507,-300.275124362926
738533.40618325315881520510,-4.63438825647755,-14.6786400952177,-300.256660664693
738533.40618334361352026463,-4.68054750206,-14.7247993408002,-300.26589251381
738533.40618343406822532415,-4.71747489852596,-14.7524948881497,-300.275124362926
738533.40618352452293038368,-4.71747489852596,-14.7709585863826,-300.293588061159
738533.40618361497763544321,-4.71747489852596,-14.7432630390332,-300.284356212043
738533.40618370543234050274,-4.68977935117649,-14.7247993408002,-300.247428815577
738533.40618379588704556227,-4.70824304940947,-14.7524948881497,-300.293588061159
738533.40618388634175062180,-4.75440229499191,-14.7894222846156,-300.293588061159
738533.40618397679645568132,-4.71747489852596,-14.7617267372662,-300.256660664693
738533.40618406725116074085,-4.68977935117649,-14.7247993408002,-300.26589251381
738533.40618415770586580038,-4.74517044587542,-14.7617267372662,-300.26589251381
738533.40618424804415553808,-4.78209784234138,-14.7432630390332,-300.247428815577
738533.40618433849886059761,-4.7636341441084,-14.6971037934507,-300.219733268227
738533.40618442895356565714,-4.54206976531266,-14.5124668111209,-300.155110324412
738533.40618451940827071667,-4.20972319711905,-14.1616565446944,-300.127414777062
738533.40618460986297577620,-3.78505813776055,-14.04164250618,-300.025864436781
738533.40618470031768083572,-3.30500198370312,-14.6878719443342,-300.08125553148
738533.40618479077238589525,-3.43424787133396,-15.3341013824885,-300.339747306742
738533.40618488122709095478,-4.02508621478927,-15.5648976104007,-300.39513840144
738533.40618497168179601431,-4.46821497238075,-15.3525650807215,-300.468993194372
738533.40618506213650107384,-4.70824304940947,-15.0663777581103,-300.385906552324
738533.40618515259120613337,-4.65285195471053,-14.8355815301981,-300.247428815577
738533.40618524304591119289,-4.69901120029298,-14.7894222846156,-300.312051759392
738533.40618533350061625242,-4.70824304940947,-14.7709585863826,-300.348979155858
738533.40618542395532131195,-4.69901120029298,-14.7340311899167,-300.284356212043
738533.40618551429361104965,-4.68054750206,-14.7340311899167,-300.293588061159
738533.40618560474831610918,-4.69901120029298,-14.7340311899167,-300.348979155858
738533.40618569520302116871,-4.68054750206,-14.7155674916837,-300.321283608509
738533.40618578565772622824,-4.67131565294351,-14.6971037934507,-300.302819910276
738533.40618587611243128777,-4.68054750206,-14.7155674916837,-300.312051759392
738533.40618596656713634729,-4.68977935117649,-14.6971037934507,-300.284356212043
738533.40618605702184140682,-4.67131565294351,-14.6971037934507,-300.26589251381
738533.40618614747654646635,-4.64362010559404,-14.6509445478683,-300.284356212043
738533.40618623793125152588,-4.68977935117649,-14.6971037934507,-300.275124362926
738533.40618632838595658541,-4.68977935117649,-14.6971037934507,-300.247428815577
738533.40618641884066164494,-4.65285195471053,-14.6601763969848,-300.275124362926
738533.40618650929536670446,-4.61592455824457,-14.6047853022858,-300.256660664693
738533.40618659975007176399,-4.61592455824457,-14.5770897549364,-300.256660664693
738533.40618669008836150169,-4.5974608600116,-14.5678579058199,-300.201269569994
738533.40618678054306656122,-4.56976531266213,-14.494003112888,-300.173574022645
738533.40618687099777162075,-4.52360606707968,-14.4478438673055,-300.182805871761
738533.40618696145247668028,-4.53283791619617,-14.4109164708396,-300.127414777062
738533.40618705190718173981,-4.47744682149724,-14.3924527726066,-300.155110324412
738533.40618714236188679934,-4.46821497238075,-14.3555253761406,-300.118182927946
738533.40618723281659185886,-4.4220557267983,-14.3555253761406,-300.118182927946
738533.40618732327129691839,-4.43128757591479,-14.3555253761406,-300.164342173528
738533.40618741372600197792,-4.34820093386639,-14.3370616779077,-300.145878475295
738533.40618750418070703745,-4.34820093386639,-14.3462935270241,-300.127414777062
738533.40618759463541209698,-4.35743278298288,-14.4293801690725,-300.210501419111
738533.40618768509011715651,-4.38512833033235,-14.457075716422,-300.210501419111
738533.40618777554482221603,-4.39436017944884,-14.5032349620045,-300.210501419111
738533.40618786588311195374,-4.40359202856532,-14.5124668111209,-300.173574022645
738533.40618795633781701326,-4.43128757591479,-14.5309305093539,-300.23819696646
738533.40618804679252207279,-4.49591051973022,-14.6140171514023,-300.275124362926
738533.40618813724722713232,-4.56976531266213,-14.6601763969848,-300.219733268227
738533.40618822770193219185,-4.56976531266213,-14.6971037934507,-300.08125553148
738533.40618831815663725138,-4.57899716177862,-14.6878719443342,-300.256660664693
738533.40618840861134231091,-4.56976531266213,-14.7063356425672,-300.284356212043
738533.40618849906604737043,-4.57899716177862,-14.7063356425672,-300.23819696646
738533.40618858952075242996,-4.55130161442915,-14.7247993408002,-300.228965117344
738533.40618867997545748949,-4.56976531266213,-14.7063356425672,-300.284356212043
738533.40618877043016254902,-4.57899716177862,-14.7432630390332,-300.228965117344
738533.40618886088486760855,-4.54206976531266,-14.7063356425672,-300.210501419111
738533.40618895133957266808,-4.54206976531266,-14.7340311899167,-300.302819910276
738533.40618904167786240578,-4.54206976531266,-14.7155674916837,-300.284356212043
738533.40618913213256746531,-4.58822901089511,-14.7709585863826,-300.284356212043
738533.40618922258727252483,-4.56976531266213,-14.7340311899167,-300.321283608509
738533.40618931304197758436,-4.58822901089511,-14.7617267372662,-300.321283608509
738533.40618940349668264389,-4.57899716177862,-14.7247993408002,-300.247428815577
738533.40618949395138770342,-4.56053346354564,-14.7247993408002,-300.284356212043
738533.40618958440609276295,-4.53283791619617,-14.7063356425672,-300.302819910276
738533.40618967486079782248,-4.60669270912809,-14.7709585863826,-300.330515457625
738533.40618976531550288200,-4.5974608600116,-14.7709585863826,-300.247428815577
738533.40618985577020794153,-4.58822901089511,-14.7432630390332,-300.293588061159
738533.40618994622491300106,-4.58822901089511,-14.7709585863826,-300.348979155858
738533.40619003667961806059,-4.57899716177862,-14.7432630390332,-300.284356212043
738533.40619012713432312012,-4.56976531266213,-14.7524948881497,-300.275124362926
738533.40619021747261285782,-4.55130161442915,-14.7247993408002,-300.312051759392
738533.40619030792731791735,-4.56976531266213,-14.7801904354991,-300.339747306742
738533.40619039838202297688,-4.57899716177862,-14.7801904354991,-300.247428815577
738533.40619048883672803640,-4.57899716177862,-14.7986541337321,-300.210501419111
738533.40619057929143309593,-4.54206976531266,-14.7432630390332,-300.219733268227
738533.40619066974613815546,-4.52360606707968,-14.7524948881497,-300.256660664693
738533.40619076020084321499,-4.52360606707968,-14.7432630390332,-300.219733268227
738533.40619085065554827452,-4.44975127414777,-14.6694082461013,-300.219733268227
738533.40619094111025333405,-4.41282387768181,-14.6324808496353,-300.182805871761
738533.40619103156495839357,-4.48667867061373,-14.7063356425672,-300.182805871761
738533.40619112201966345310,-4.50514236884671,-14.7063356425672,-300.201269569994
738533.40619121247436851263,-4.51437421796319,-14.7247993408002,-300.228965117344
738533.40619130292907357216,-4.57899716177862,-14.7709585863826,-300.247428815577
738533.40619139326736330986,-4.62515640736106,-14.8078859828486,-300.247428815577
738533.40619148372206836939,-4.61592455824457,-14.7986541337321,-300.275124362926
738533.40619157417677342892,-4.62515640736106,-14.7801904354991,-300.256660664693
738533.40619166463147848845,-4.60669270912809,-14.7894222846156,-300.284356212043
738533.40619175508618354797,-4.5974608600116,-14.7709585863826,-300.136646626179
738533.40619184554088860750,-4.62515640736106,-14.7986541337321,-300.284356212043
738533.40619193599559366703,-4.5974608600116,-14.7617267372662,-300.256660664693
738533.40619202645029872656,-4.61592455824457,-14.7894222846156,-300.256660664693
738533.40619211690500378609,-4.61592455824457,-14.7617267372662,-300.256660664693
738533.40619220735970884562,-4.69901120029298,-14.7617267372662,-300.312051759392
738533.40619229781441390514,-4.62515640736106,-14.6601763969848,-300.256660664693
738533.40619238826911896467,-4.31127353740043,-14.457075716422,-300.201269569994
738533.40619247872382402420,-3.94199957274087,-14.0508743552965,-300.090487380596
738533.40619256906211376190,-3.41578417310099,-14.2447431867428,-300.044328135014
738533.40619265951681882143,-3.10190130314035,-14.927900021363,-300.173574022645
738533.40619274997152388096,-3.54503006073183,-15.4448835718863,-300.330515457625
738533.40619284042622894049,-4.12663655507065,-15.4818109683523,-300.39513840144
738533.40619293088093400002,-4.56053346354564,-15.2140873439741,-300.376674703207
738533.40619302133563905954,-4.56053346354564,-14.9371318704794,-300.330515457625
738533.40619311179034411907,-4.56976531266213,-14.7986541337321,-300.247428815577
738533.40619320224504917860,-4.5974608600116,-14.7986541337321,-300.293588061159
738533.40619329269975423813,-4.60669270912809,-14.7524948881497,-300.293588061159
738533.40619338315445929766,-4.58822901089511,-14.7524948881497,-300.284356212043
738533.40619347360916435719,-4.5974608600116,-14.7247993408002,-300.247428815577
738533.40619356406386941671,-4.60669270912809,-14.7432630390332,-300.312051759392
738533.40619365451857447624,-4.5974608600116,-14.7247993408002,-300.275124362926
738533.40619374485686421394,-4.60669270912809,-14.7247993408002,-300.275124362926
738533.40619383531156927347,-4.57899716177862,-14.6971037934507,-300.26589251381
738533.40619392576627433300,-4.57899716177862,-14.6786400952177,-300.293588061159
738533.40619401622097939253,-4.55130161442915,-14.6601763969848,-300.321283608509
738533.40619410667568445206,-4.56053346354564,-14.6601763969848,-300.256660664693
738533.40619419713038951159,-4.53283791619617,-14.6509445478683,-300.23819696646
738533.40619428758509457111,-4.54206976531266,-14.6324808496353,-300.256660664693
738533.40619437803979963064,-4.53283791619617,-14.6417126987518,-300.275124362926
738533.40619446849450469017,-4.49591051973022,-14.5770897549364,-300.256660664693
738533.40619455894920974970,-4.47744682149724,-14.5678579058199,-300.247428815577
738533.40619464940391480923,-4.47744682149724,-14.5309305093539,-300.284356212043
738533.40619473985861986876,-4.43128757591479,-14.5124668111209,-300.26589251381
738533.40619483031332492828,-4.39436017944884,-14.4293801690725,-300.201269569994
738533.40619492076802998781,-4.35743278298288,-14.4109164708396,-300.228965117344
738533.40619501110631972551,-4.3389690847499,-14.3647572252571,-300.23819696646
738533.40619510156102478504,-4.32973723563341,-14.3924527726066,-300.108951078829
738533.40619519201572984457,-4.26511429181799,-14.3370616779077,-299.942777794732
738533.40619528247043490410,-4.23741874446852,-14.3462935270241,-300.072023682363
738533.40619537292513996363,-4.22818689535203,-14.3647572252571,-300.118182927946
738533.40619546337984502316,-4.24665059358501,-14.4016846217231,-300.108951078829
738533.40619555383455008268,-4.23741874446852,-14.438612018189,-300.136646626179
738533.40619564428925514221,-4.15433210242012,-14.3647572252571,-300.145878475295
738533.40619573474396020174,-4.26511429181799,-14.5124668111209,-300.201269569994
738533.40619582519866526127,-4.3389690847499,-14.5678579058199,-300.145878475295
738533.40619591565337032080,-4.41282387768181,-14.6601763969848,-300.26589251381
738533.40619600610807538033,-4.43128757591479,-14.6601763969848,-300.23819696646
738533.40619609656278043985,-4.46821497238075,-14.7063356425672,-300.256660664693
738533.40619618690107017756,-4.44051942503128,-14.6601763969848,-300.23819696646
738533.40619627735577523708,-4.44975127414777,-14.6878719443342,-300.302819910276
738533.40619636781048029661,-4.44975127414777,-14.6694082461013,-300.293588061159
738533.40619645826518535614,-4.45898312326426,-14.6878719443342,-300.192037720878
738533.40619654871989041567,-4.45898312326426,-14.6786400952177,-300.23819696646
738533.40619663917459547520,-4.48667867061373,-14.7247993408002,-300.284356212043
738533.40619672962930053473,-4.45898312326426,-14.6971037934507,-300.219733268227
738533.40619682008400559425,-4.47744682149724,-14.7340311899167,-300.275124362926
738533.40619691053871065378,-4.46821497238075,-14.7155674916837,-300.284356212043
738533.40619700099341571331,-4.49591051973022,-14.7340311899167,-300.247428815577
738533.40619709144812077284,-4.46821497238075,-14.7155674916837,-300.247428815577
738533.40619718190282583237,-4.46821497238075,-14.7155674916837,-300.26589251381
738533.40619727235753089190,-4.45898312326426,-14.7247993408002,-300.23819696646
738533.40619736269582062960,-4.44975127414777,-14.7063356425672,-300.284356212043
738533.40619745315052568913,-4.45898312326426,-14.7155674916837,-300.26589251381
738533.40619754360523074865,-4.45898312326426,-14.6971037934507,-300.256660664693
738533.40619763405993580818,-4.48667867061373,-14.7524948881497,-300.26589251381
738533.40619772451464086771,-4.49591051973022,-14.7247993408002,-300.23819696646
738533.40619781496934592724,-4.50514236884671,-14.7617267372662,-300.26589251381
738533.40619790542405098677,-4.48667867061373,-14.7340311899167,-300.256660664693
738533.40619799587875604630,-4.49591051973022,-14.7524948881497,-300.210501419111
738533.40619808633346110582,-4.47744682149724,-14.7340311899167,-300.26589251381
738533.40619817678816616535,-4.49591051973022,-14.7340311899167,-300.26589251381
738533.40619826724287122488,-4.48667867061373,-14.7247993408002,-300.210501419111
738533.40619835769757628441,-4.47744682149724,-14.7155674916837,-300.26589251381
738533.40619844815228134394,-4.41282387768181,-14.6601763969848,-300.256660664693
738533.40619853849057108164,-4.4220557267983,-14.6878719443342,-300.247428815577
738533.40619862894527614117,-4.44975127414777,-14.7155674916837,-300.192037720878
738533.40619871939998120070,-4.40359202856532,-14.6694082461013,-300.08125553148
738533.40619880985468626022,-4.32973723563341,-14.6324808496353,-300.145878475295
738533.40619890030939131975,-4.32050538651692,-14.5863216040529,-300.145878475295
738533.40619899076409637928,-4.40359202856532,-14.6601763969848,-300.247428815577
738533.40619908121880143881,-4.40359202856532,-14.6417126987518,-300.23819696646
738533.40619917167350649834,-4.41282387768181,-14.6509445478683,-300.228965117344
738533.40619926212821155787,-4.44975127414777,-14.6786400952177,-300.173574022645
738533.40619935258291661739,-4.56053346354564,-14.7801904354991,-300.201269569994
738533.40619944303762167692,-4.50514236884671,-14.7432630390332,-300.219733268227
738533.40619953349232673645,-4.49591051973022,-14.7340311899167,-300.219733268227
738533.40619962394703179598,-4.53283791619617,-14.7709585863826,-300.182805871761
738533.40619971428532153368,-4.56976531266213,-14.7894222846156,-300.219733268227
738533.40619980474002659321,-4.48667867061373,-14.7432630390332,-300.210501419111
738533.40619989519473165274,-4.50514236884671,-14.7432630390332,-300.210501419111
738533.40619998564943671227,-4.52360606707968,-14.7617267372662,-300.228965117344
738533.40620007610414177179,-4.63438825647755,-14.8078859828486,-300.275124362926
738533.40620016655884683132,-4.5974608600116,-14.7524948881497,-300.247428815577
738533.40620025701355189085,-4.30204168828394,-14.5309305093539,-300.136646626179
738533.40620034746825695038,-3.93276772362438,-14.1985839411603,-300.099719229713
738533.40620043792296200991,-3.47117526779992,-14.3093661305582,-300.062791833247
738533.40620052837766706944,-2.981887264626,-14.8817407757805,-300.118182927946
738533.40620061883237212896,-3.33269753105258,-15.4264198736534,-300.302819910276
738533.40620070928707718849,-3.95123142185736,-15.4910428174688,-300.376674703207
738533.40620079974178224802,-4.38512833033235,-15.2048554948576,-300.330515457625
738533.40620089008007198572,-4.50514236884671,-15.0109866634114,-300.330515457625
738533.40620098053477704525,-4.44975127414777,-14.8817407757805,-300.284356212043
738533.40620107098948210478,-4.48667867061373,-14.7801904354991,-300.219733268227
738533.40620116144418716431,-4.56053346354564,-14.8263496810816,-300.247428815577
738533.40620125189889222383,-4.53283791619617,-14.7801904354991,-300.26589251381
738533.40620134235359728336,-4.61592455824457,-14.854045228431,-300.26589251381
738533.40620143280830234289,-4.50514236884671,-14.7155674916837,-300.228965117344
738533.40620152326300740242,-4.51437421796319,-14.7524948881497,-300.26589251381
738533.40620161371771246195,-4.46821497238075,-14.6694082461013,-300.219733268227
738533.40620170417241752148,-4.50514236884671,-14.7247993408002,-300.256660664693
738533.40620179462712258101,-4.51437421796319,-14.7155674916837,-300.247428815577
738533.40620188508182764053,-4.54206976531266,-14.7432630390332,-300.23819696646
738533.40620197553653270006,-4.55130161442915,-14.7524948881497,-300.247428815577
738533.40620206587482243776,-4.53283791619617,-14.7432630390332,-300.26589251381
738533.40620215632952749729,-4.53283791619617,-14.7155674916837,-300.23819696646
738533.40620224678423255682,-4.49591051973022,-14.6971037934507,-300.090487380596
738533.40620233723893761635,-4.43128757591479,-14.6140171514023,-300.164342173528
738533.40620242769364267588,-4.38512833033235,-14.5586260567034,-300.228965117344
738533.40620251814834773540,-4.39436017944884,-14.5586260567034,-300.192037720878
738533.40620260860305279493,-4.3389690847499,-14.5124668111209,-300.210501419111
738533.40620269905775785446,-4.3389690847499,-14.5032349620045,-300.210501419111
738533.40620278951246291399,-4.38512833033235,-14.5124668111209,-300.210501419111
738533.40620287996716797352,-4.35743278298288,-14.494003112888,-300.210501419111
738533.40620297042187303305,-4.31127353740043,-14.4478438673055,-300.173574022645
738533.40620306087657809258,-4.31127353740043,-14.475539414655,-300.164342173528
738533.40620315133128315210,-4.20972319711905,-14.3832209234901,-300.145878475295
738533.40620324166957288980,-4.13586840418714,-14.3739890743736,-300.145878475295
738533.40620333212427794933,-4.12663655507065,-14.3647572252571,-300.173574022645
738533.40620342257898300886,-4.21895504623554,-14.5216986602374,-300.173574022645
738533.40620351303368806839,-4.22818689535203,-14.5401623584704,-300.173574022645
738533.40620360348839312792,-4.2558824427015,-14.5955534531693,-300.210501419111
738533.40620369394309818745,-4.28357799005097,-14.5863216040529,-300.192037720878
738533.40620378439780324697,-4.29280983916745,-14.6324808496353,-300.247428815577
738533.40620387485250830650,-4.30204168828394,-14.6232490005188,-300.219733268227
738533.40620396530721336603,-4.46821497238075,-14.7801904354991,-300.256660664693
738533.40620405576191842556,-4.39436017944884,-14.7063356425672,-300.210501419111
738533.40620414621662348509,-4.4220557267983,-14.7247993408002,-300.228965117344
738533.40620423667132854462,-4.4220557267983,-14.7155674916837,-300.256660664693
738533.40620432712603360415,-4.36666463209937,-14.6878719443342,-300.228965117344
738533.40620441746432334185,-4.44051942503128,-14.7801904354991,-300.219733268227
738533.40620450791902840137,-4.50514236884671,-14.8078859828486,-300.256660664693
738533.40620459837373346090,-4.39436017944884,-14.7340311899167,-300.192037720878
738533.40620468882843852043,-4.39436017944884,-14.7155674916837,-300.228965117344
738533.40620477928314357996,-4.44975127414777,-14.7801904354991,-300.256660664693
738533.40620486973784863949,-4.38512833033235,-14.7063356425672,-300.247428815577
738533.40620496019255369902,-4.44975127414777,-14.7801904354991,-300.192037720878
738533.40620505064725875854,-4.46821497238075,-14.7801904354991,-300.247428815577
738533.40620514110196381807,-4.4220557267983,-14.7617267372662,-300.256660664693
738533.40620523155666887760,-4.43128757591479,-14.7432630390332,-300.210501419111
738533.40620532201137393713,-4.45898312326426,-14.7801904354991,-300.192037720878
738533.40620541246607899666,-4.47744682149724,-14.7986541337321,-300.210501419111
738533.40620550292078405619,-4.4220557267983,-14.7801904354991,-300.192037720878
738533.40620559337548911572,-4.48667867061373,-14.8355815301981,-300.192037720878
738533.40620568371377885342,-4.52360606707968,-14.8263496810816,-300.210501419111
738533.40620577416848391294,-4.44051942503128,-14.7801904354991,-300.099719229713
738533.40620586462318897247,-4.41282387768181,-14.7247993408002,-300.155110324412
738533.40620595507789403200,-4.45898312326426,-14.8171178319651,-300.284356212043
738533.40620604553259909153,-4.48667867061373,-14.7894222846156,-300.302819910276
738533.40620613598730415106,-4.54206976531266,-14.872508926664,-300.247428815577
738533.40620622644200921059,-4.48667867061373,-14.7894222846156,-300.293588061159
738533.40620631689671427011,-4.47744682149724,-14.8448133793146,-300.302819910276
738533.40620640735141932964,-4.44975127414777,-14.8078859828486,-300.228965117344
738533.40620649780612438917,-4.40359202856532,-14.7709585863826,-300.26589251381
738533.40620658826082944870,-4.3389690847499,-14.7063356425672,-300.275124362926
738533.40620667871553450823,-4.31127353740043,-14.6694082461013,-300.256660664693
738533.40620676917023956776,-4.32050538651692,-14.6786400952177,-300.228965117344
738533.40620685950852930546,-4.37589648121586,-14.7340311899167,-300.275124362926
738533.40620694996323436499,-4.47744682149724,-14.8078859828486,-300.275124362926
738533.40620704041793942451,-4.57899716177862,-14.9002044740135,-300.23819696646
738533.40620713087264448404,-4.49591051973022,-14.8355815301981,-300.26589251381
738533.40620722132734954357,-4.48667867061373,-14.7894222846156,-300.284356212043
738533.40620731178205460310,-4.56053346354564,-14.890972624897,-300.312051759392
738533.40620740223675966263,-4.55130161442915,-14.854045228431,-300.275124362926
738533.40620749269146472216,-4.57899716177862,-14.927900021363,-300.321283608509
738533.40620758314616978168,-4.58822901089511,-14.9186681722465,-300.302819910276
738533.40620767360087484121,-4.56053346354564,-14.8817407757805,-300.284356212043
738533.40620776405557990074,-4.52360606707968,-14.8263496810816,-300.284356212043
738533.40620785451028496027,-4.47744682149724,-14.8078859828486,-300.23819696646
738533.40620794496499001980,-4.62515640736106,-14.854045228431,-300.228965117344
738533.40620803530327975750,-4.56053346354564,-14.7801904354991,-300.247428815577
738533.40620812575798481703,-4.14510025330363,-14.475539414655,-300.155110324412
738533.40620821621268987656,-3.74813074129459,-14.2447431867428,-300.035096285897
738533.40620830666739493608,-3.24037903988769,-14.5401623584704,-300.044328135014
738533.40620839712209999561,-2.93572801904355,-14.7524948881497,-300.108951078829
738533.40620848757680505514,-3.01881466109195,-15.3710287789544,-300.256660664693
738533.40620857803151011467,-3.88660847804193,-15.6295205542161,-300.39513840144
738533.40620866848621517420,-4.39436017944884,-15.3894924771874,-300.450529496139
738533.40620875894092023373,-4.50514236884671,-15.0479140598773,-300.358211004975
738533.40620884939562529325,-4.48667867061373,-14.9555955687124,-300.284356212043
738533.40620893985033035278,-4.45898312326426,-14.854045228431,-300.284356212043
738533.40620903030503541231,-4.52360606707968,-14.8817407757805,-300.26589251381
738533.40620912075974047184,-4.50514236884671,-14.8263496810816,-300.256660664693
738533.40620921109803020954,-4.5974608600116,-14.90943632313,-300.302819910276
738533.40620930155273526907,-4.54206976531266,-14.872508926664,-300.145878475295
738533.40620939200744032860,-4.55130161442915,-14.890972624897,-300.173574022645
738533.40620948246214538813,-4.56053346354564,-14.8817407757805,-300.256660664693
738533.40620957291685044765,-4.55130161442915,-14.8632770775475,-300.256660664693
738533.40620966337155550718,-4.52360606707968,-14.8355815301981,-300.256660664693
738533.40620975382626056671,-4.52360606707968,-14.8632770775475,-300.26589251381
738533.40620984428096562624,-4.49591051973022,-14.7709585863826,-300.284356212043
738533.40620993473567068577,-4.53283791619617,-14.8171178319651,-300.302819910276
738533.40621002519037574530,-4.47744682149724,-14.7709585863826,-300.164342173528
738533.40621011564508080482,-4.44975127414777,-14.7709585863826,-300.293588061159
738533.40621020609978586435,-4.44975127414777,-14.7801904354991,-300.321283608509
738533.40621029655449092388,-4.51437421796319,-14.8355815301981,-300.26589251381
738533.40621038689278066158,-4.53283791619617,-14.8355815301981,-300.23819696646
738533.40621047734748572111,-4.45898312326426,-14.7247993408002,-300.26589251381
738533.40621056780219078064,-4.44051942503128,-14.7247993408002,-300.201269569994
738533.40621065825689584017,-4.36666463209937,-14.6324808496353,-300.155110324412
738533.40621074871160089970,-4.36666463209937,-14.6324808496353,-300.173574022645
738533.40621083916630595922,-4.29280983916745,-14.5770897549364,-300.173574022645
738533.40621092962101101875,-4.29280983916745,-14.6140171514023,-300.173574022645
738533.40621102007571607828,-4.18202764976959,-14.5216986602374,-300.228965117344
738533.40621111053042113781,-4.24665059358501,-14.6232490005188,-300.275124362926
738533.40621120098512619734,-4.22818689535203,-14.6786400952177,-300.228965117344
738533.40621129143983125687,-4.22818689535203,-14.6786400952177,-300.247428815577
738533.40621138189453631639,-4.22818689535203,-14.7063356425672,-300.275124362926
738533.40621147234924137592,-4.29280983916745,-14.7709585863826,-300.302819910276
738533.40621156268753111362,-4.38512833033235,-14.8263496810816,-300.256660664693
738533.40621165314223617315,-4.41282387768181,-14.8448133793146,-300.293588061159
738533.40621174359694123268,-4.39436017944884,-14.8448133793146,-300.302819910276
738533.40621183405164629221,-4.38512833033235,-14.7894222846156,-300.321283608509
738533.40621192450635135174,-4.40359202856532,-14.8263496810816,-300.284356212043
738533.40621201496105641127,-4.44051942503128,-14.8263496810816,-300.330515457625
738533.40621210541576147079,-4.44975127414777,-14.8448133793146,-300.26589251381
738533.40621219587046653032,-4.36666463209937,-14.7617267372662,-300.275124362926
738533.40621228632517158985,-4.55130161442915,-14.9832911160619,-300.256660664693
738533.40621237677987664938,-4.51437421796319,-14.9463637195959,-300.26589251381
738533.40621246723458170891,-4.53283791619617,-14.9463637195959,-300.275124362926
738533.40621255768928676844,-4.46821497238075,-14.890972624897,-300.284356212043
738533.40621264814399182796,-4.40359202856532,-14.8448133793146,-300.275124362926
738533.40621273848228156567,-4.45898312326426,-14.9648274178289,-300.312051759392
738533.40621282893698662519,-4.46821497238075,-14.927900021363,-300.201269569994
738533.40621291939169168472,-4.45898312326426,-14.9555955687124,-300.192037720878
738533.40621300984639674425,-4.54206976531266,-14.9925229651784,-300.312051759392
738533.40621310030110180378,-4.41282387768181,-14.872508926664,-300.275124362926
738533.40621319075580686331,-4.45898312326426,-14.9186681722465,-300.26589251381
738533.40621328121051192284,-4.54206976531266,-15.0109866634114,-300.312051759392
738533.40621337166521698236,-4.46821497238075,-14.927900021363,-300.247428815577
738533.40621346211992204189,-4.52360606707968,-14.9463637195959,-300.312051759392
738533.40621355257462710142,-4.51437421796319,-14.9371318704794,-300.284356212043
738533.40621364302933216095,-4.44975127414777,-14.9186681722465,-300.339747306742
738533.40621373348403722048,-4.52360606707968,-14.927900021363,-300.312051759392
738533.40621382393874228001,-4.52360606707968,-14.9555955687124,-300.275124362926
738533.40621391427703201771,-4.57899716177862,-14.9555955687124,-300.339747306742
738533.40621400473173707724,-4.57899716177862,-14.9648274178289,-300.330515457625
738533.40621409518644213676,-4.48667867061373,-14.90943632313,-300.275124362926
738533.40621418564114719629,-4.52360606707968,-14.927900021363,-300.256660664693
738533.40621427609585225582,-4.54206976531266,-14.9555955687124,-300.284356212043
738533.40621436655055731535,-4.48667867061373,-14.90943632313,-300.312051759392
738533.40621445700526237488,-4.40359202856532,-14.8448133793146,-300.321283608509
738533.40621454745996743441,-4.34820093386639,-14.8078859828486,-300.312051759392
738533.40621463791467249393,-4.35743278298288,-14.8263496810816,-300.330515457625
738533.40621472836937755346,-4.48667867061373,-14.8355815301981,-300.23819696646
738533.40621481882408261299,-4.50514236884671,-14.8817407757805,-300.256660664693
738533.40621490927878767252,-4.52360606707968,-14.8817407757805,-300.26589251381
738533.40621499973349273205,-4.47744682149724,-14.890972624897,-300.228965117344
738533.40621509018819779158,-4.58822901089511,-14.9371318704794,-300.284356212043
738533.40621518052648752928,-4.57899716177862,-14.927900021363,-300.339747306742
738533.40621527098119258881,-4.52360606707968,-14.872508926664,-300.312051759392
738533.40621536143589764833,-4.53283791619617,-14.872508926664,-300.367442854091
738533.40621545189060270786,-4.46821497238075,-14.8171178319651,-300.339747306742
738533.40621554234530776739,-4.60669270912809,-14.9832911160619,-300.367442854091
738533.40621563280001282692,-4.5974608600116,-14.9463637195959,-300.321283608509
738533.40621572325471788645,-4.60669270912809,-14.9371318704794,-300.376674703207
738533.40621581370942294598,-4.65285195471053,-14.9002044740135,-300.367442854091
738533.40621590416412800550,-4.5974608600116,-14.8355815301981,-300.321283608509
738533.40621599461883306503,-4.30204168828394,-14.7709585863826,-300.321283608509
738533.40621608507353812456,-3.75736259041108,-14.4109164708396,-300.145878475295
738533.40621617552824318409,-3.10190130314035,-14.5309305093539,-300.136646626179
738533.40621626598294824362,-2.85264137699515,-15.0940733054598,-300.26589251381
738533.40621635632123798132,-3.32346568193609,-15.5556657612842,-300.330515457625
738533.40621644677594304085,-4.1727958006531,-15.5187383648183,-300.385906552324
738533.40621653723064810038,-4.55130161442915,-15.2602465895566,-300.487456892605
738533.40621662768535315990,-4.46821497238075,-15.0479140598773,-300.39513840144
738533.40621671814005821943,-4.51437421796319,-14.9555955687124,-300.376674703207
738533.40621680859476327896,-4.41282387768181,-14.8263496810816,-300.358211004975
738533.40621689904946833849,-4.49591051973022,-14.890972624897,-300.385906552324
738533.40621698950417339802,-4.60669270912809,-14.9463637195959,-300.358211004975
738533.40621707995887845755,-4.5974608600116,-14.9371318704794,-300.321283608509
738533.40621717041358351707,-4.5974608600116,-14.9648274178289,-300.312051759392
738533.40621726086828857660,-4.63438825647755,-14.9555955687124,-300.312051759392
738533.40621735132299363613,-4.58822901089511,-14.927900021363,-300.321283608509
738533.40621744177769869566,-4.54206976531266,-14.8817407757805,-300.321283608509
738533.40621753211598843336,-4.56976531266213,-14.9186681722465,-300.293588061159
738533.40621762257069349289,-4.49591051973022,-14.8632770775475,-300.302819910276
738533.40621771302539855242,-4.43128757591479,-14.8171178319651,-300.293588061159
738533.40621780348010361195,-4.36666463209937,-14.7247993408002,-300.284356212043
738533.40621789393480867147,-4.45898312326426,-14.7986541337321,-300.293588061159
738533.40621798438951373100,-4.56053346354564,-14.8632770775475,-300.312051759392
738533.40621807484421879053,-4.54206976531266,-14.854045228431,-300.302819910276
738533.40621816529892385006,-4.54206976531266,-14.8355815301981,-300.284356212043
738533.40621825575362890959,-4.49591051973022,-14.7801904354991,-300.293588061159
738533.40621834620833396912,-4.43128757591479,-14.6971037934507,-300.26589251381
738533.40621843666303902864,-4.41282387768181,-14.6694082461013,-300.293588061159
738533.40621852711774408817,-4.36666463209937,-14.6232490005188,-300.210501419111
738533.40621861757244914770,-4.3389690847499,-14.6047853022858,-300.247428815577
738533.40621870791073888540,-4.28357799005097,-14.5678579058199,-300.284356212043
738533.40621879836544394493,-4.27434614093448,-14.5678579058199,-300.302819910276
738533.40621888882014900446,-4.24665059358501,-14.5770897549364,-300.284356212043
738533.40621897927485406399,-4.16356395153661,-14.5216986602374,-300.312051759392
738533.40621906972955912352,-4.16356395153661,-14.5770897549364,-300.312051759392
738533.40621916018426418304,-4.24665059358501,-14.6601763969848,-300.293588061159
738533.40621925063896924257,-4.35743278298288,-14.7801904354991,-300.302819910276
738533.40621934109367430210,-4.36666463209937,-14.7801904354991,-300.330515457625
738533.40621943154837936163,-4.41282387768181,-14.8078859828486,-300.376674703207
738533.40621952200308442116,-4.40359202856532,-14.7894222846156,-300.293588061159
738533.40621961245778948069,-4.4220557267983,-14.8078859828486,-300.367442854091
738533.40621970291249454021,-4.4220557267983,-14.8078859828486,-300.284356212043
738533.40621979336719959974,-4.45898312326426,-14.8355815301981,-300.26589251381
738533.40621988370548933744,-4.4220557267983,-14.8448133793146,-300.228965117344
738533.40621997416019439697,-4.44975127414777,-14.8355815301981,-300.182805871761
738533.40622006461489945650,-4.44051942503128,-14.872508926664,-300.275124362926
738533.40622015506960451603,-4.41282387768181,-14.8078859828486,-300.321283608509
738533.40622024552430957556,-4.37589648121586,-14.7986541337321,-300.348979155858
738533.40622033597901463509,-4.4220557267983,-14.8355815301981,-300.376674703207
738533.40622042643371969461,-4.44975127414777,-14.872508926664,-300.330515457625
738533.40622051688842475414,-4.38512833033235,-14.7986541337321,-300.339747306742
738533.40622060734312981367,-4.47744682149724,-14.9002044740135,-300.39513840144
738533.40622069779783487320,-4.48667867061373,-14.9002044740135,-300.339747306742
738533.40622078825253993273,-4.46821497238075,-14.90943632313,-300.23819696646
738533.40622087870724499226,-4.41282387768181,-14.872508926664,-300.256660664693
738533.40622096916195005178,-4.43128757591479,-14.9371318704794,-300.339747306742
738533.40622105950023978949,-4.44975127414777,-14.9371318704794,-300.312051759392
738533.40622114995494484901,-4.45898312326426,-14.9925229651784,-300.339747306742
738533.40622124040964990854,-4.44975127414777,-14.9740592669454,-300.321283608509
738533.40622133086435496807,-4.44051942503128,-14.9925229651784,-300.321283608509
738533.40622142131906002760,-4.4220557267983,-14.9648274178289,-300.321283608509
738533.40622151177376508713,-4.41282387768181,-14.9371318704794,-300.339747306742
738533.40622160222847014666,-4.44975127414777,-14.9740592669454,-300.358211004975
738533.40622169268317520618,-4.47744682149724,-14.9555955687124,-300.330515457625
738533.40622178313788026571,-4.50514236884671,-14.9832911160619,-300.358211004975
738533.40622187359258532524,-4.48667867061373,-14.927900021363,-300.358211004975
738533.40622196404729038477,-4.4220557267983,-14.90943632313,-300.367442854091
738533.40622205450199544430,-4.44051942503128,-14.872508926664,-300.358211004975
738533.40622214495670050383,-4.53283791619617,-14.9555955687124,-300.312051759392
738533.40622223529499024153,-4.49591051973022,-14.90943632313,-300.358211004975
738533.40622232574969530106,-4.47744682149724,-14.9186681722465,-300.358211004975
738533.40622241620440036058,-4.44975127414777,-14.8448133793146,-300.330515457625
738533.40622250665910542011,-4.44051942503128,-14.872508926664,-300.348979155858
738533.40622259711381047964,-4.48667867061373,-14.90943632313,-300.312051759392
738533.40622268756851553917,-4.49591051973022,-14.9186681722465,-300.275124362926
738533.40622277802322059870,-4.41282387768181,-14.854045228431,-300.312051759392
738533.40622286847792565823,-4.4220557267983,-14.872508926664,-300.348979155858
738533.40622295893263071775,-4.32050538651692,-14.7986541337321,-300.348979155858
738533.40622304938733577728,-4.31127353740043,-14.7801904354991,-300.339747306742
738533.40622313984204083681,-4.35743278298288,-14.8171178319651,-300.293588061159
738533.40622323029674589634,-4.4220557267983,-14.8448133793146,-300.321283608509
738533.40622332075145095587,-4.43128757591479,-14.8632770775475,-300.367442854091
738533.40622341108974069357,-4.48667867061373,-14.854045228431,-300.330515457625
738533.40622350154444575310,-4.51437421796319,-14.90943632313,-300.228965117344
738533.40622359199915081263,-4.48667867061373,-14.8632770775475,-300.339747306742
738533.40622368245385587215,-4.52360606707968,-14.90943632313,-300.376674703207
738533.40622377290856093168,-4.51437421796319,-14.8817407757805,-300.312051759392
738533.40622386336326599121,-4.54206976531266,-14.927900021363,-300.413602099673
738533.40622395381797105074,-4.52360606707968,-14.90943632313,-300.404370250557
738533.40622404427267611027,-4.53283791619617,-14.9186681722465,-300.339747306742
738533.40622413472738116980,-4.48667867061373,-14.872508926664,-300.358211004975
738533.40622422518208622932,-4.54206976531266,-14.9002044740135,-300.385906552324
738533.40622431563679128885,-4.60669270912809,-14.890972624897,-300.348979155858
738533.40622440609149634838,-4.44051942503128,-14.7894222846156,-300.330515457625
738533.40622449654620140791,-3.98815881832331,-14.5401623584704,-300.26589251381
738533.40622458688449114561,-3.52656636249886,-14.3278298287912,-300.192037720878
738533.40622467733919620514,-3.00035096285897,-14.7617267372662,-300.192037720878
738533.40622476779390126467,-3.00958281197546,-15.343333231605,-300.404370250557
738533.40622485824860632420,-3.76659443952757,-15.5925931577502,-300.570543534654
738533.40622494870331138372,-4.31127353740043,-15.3525650807215,-300.441297647023
738533.40622503915801644325,-4.44975127414777,-15.1125370036927,-300.459761345256
738533.40622512961272150278,-4.43128757591479,-15.0109866634114,-300.450529496139
738533.40622522006742656231,-4.47744682149724,-14.9555955687124,-300.312051759392
738533.40622531052213162184,-4.48667867061373,-14.8817407757805,-300.312051759392
738533.40622540097683668137,-4.53283791619617,-14.9002044740135,-300.293588061159
738533.40622549143154174089,-4.54206976531266,-14.8817407757805,-300.293588061159
738533.40622558188624680042,-4.52360606707968,-14.872508926664,-300.330515457625
738533.40622567234095185995,-4.51437421796319,-14.8355815301981,-300.26589251381
738533.40622576279565691948,-4.54206976531266,-14.854045228431,-300.321283608509
738533.40622585313394665718,-4.52360606707968,-14.8448133793146,-300.293588061159
738533.40622594358865171671,-4.51437421796319,-14.8263496810816,-300.284356212043
738533.40622603404335677624,-4.50514236884671,-14.8355815301981,-300.293588061159
738533.40622612449806183577,-4.50514236884671,-14.7986541337321,-300.284356212043
738533.40622621495276689529,-4.45898312326426,-14.7894222846156,-300.293588061159
738533.40622630540747195482,-4.48667867061373,-14.7894222846156,-300.302819910276
738533.40622639586217701435,-4.48667867061373,-14.7986541337321,-300.312051759392
738533.40622648631688207388,-4.46821497238075,-14.7432630390332,-300.312051759392
738533.40622657677158713341,-4.45898312326426,-14.7432630390332,-300.284356212043
738533.40622666722629219294,-4.44051942503128,-14.6971037934507,-300.293588061159
738533.40622675768099725246,-4.43128757591479,-14.7063356425672,-300.275124362926
738533.40622684813570231199,-4.41282387768181,-14.6509445478683,-300.228965117344
738533.40622693859040737152,-4.39436017944884,-14.6417126987518,-300.219733268227
738533.40622702892869710922,-4.36666463209937,-14.6140171514023,-300.127414777062
738533.40622711938340216875,-4.35743278298288,-14.5863216040529,-300.247428815577
738533.40622720983810722828,-4.31127353740043,-14.5770897549364,-300.275124362926
738533.40622730029281228781,-4.29280983916745,-14.5586260567034,-300.312051759392
738533.40622739074751734734,-4.24665059358501,-14.5586260567034,-300.26589251381
738533.40622748120222240686,-4.23741874446852,-14.5678579058199,-300.247428815577
738533.40622757165692746639,-4.20972319711905,-14.6232490005188,-300.321283608509
738533.40622766211163252592,-4.23741874446852,-14.6417126987518,-300.293588061159
738533.40622775256633758545,-4.2558824427015,-14.7063356425672,-300.256660664693
738533.40622784302104264498,-4.27434614093448,-14.7063356425672,-300.312051759392
738533.40622793347574770451,-4.3389690847499,-14.7709585863826,-300.339747306742
738533.40622802393045276403,-4.3389690847499,-14.7524948881497,-300.284356212043
738533.40622811438515782356,-4.34820093386639,-14.7617267372662,-300.358211004975
738533.40622820472344756126,-4.37589648121586,-14.7524948881497,-300.26589251381
738533.40622829517815262079,-4.44051942503128,-14.854045228431,-300.26589251381
738533.40622838563285768032,-4.44051942503128,-14.8355815301981,-300.26589251381
738533.40622847608756273985,-4.44975127414777,-14.8448133793146,-300.275124362926
738533.40622856654226779938,-4.44051942503128,-14.8171178319651,-300.26589251381
738533.40622865699697285891,-4.43128757591479,-14.8263496810816,-300.321283608509
738533.40622874745167791843,-4.41282387768181,-14.8078859828486,-300.312051759392
738533.40622883790638297796,-4.44051942503128,-14.8355815301981,-300.321283608509
738533.40622892836108803749,-4.43128757591479,-14.8355815301981,-300.26589251381
738533.40622901881579309702,-4.43128757591479,-14.7986541337321,-300.256660664693
738533.40622910927049815655,-4.41282387768181,-14.8078859828486,-300.284356212043
738533.40622919972520321608,-4.4220557267983,-14.7801904354991,-300.256660664693
738533.40622929017990827560,-4.45898312326426,-14.8355815301981,-300.330515457625
738533.40622938051819801331,-4.44975127414777,-14.7894222846156,-300.275124362926
738533.40622947097290307283,-4.44975127414777,-14.8171178319651,-300.247428815577
738533.40622956142760813236,-4.48667867061373,-14.8355815301981,-300.293588061159
738533.40622965188231319189,-4.50514236884671,-14.8632770775475,-300.284356212043
738533.40622974233701825142,-4.47744682149724,-14.8263496810816,-300.302819910276
738533.40622983279172331095,-4.48667867061373,-14.8355815301981,-300.302819910276
738533.40622992324642837048,-4.49591051973022,-14.8263496810816,-300.312051759392
738533.40623001370113343000,-4.49591051973022,-14.854045228431,-300.312051759392
738533.40623010415583848953,-4.48667867061373,-14.8355815301981,-300.284356212043
738533.40623019461054354906,-4.50514236884671,-14.854045228431,-300.367442854091
738533.40623028506524860859,-4.50514236884671,-14.8448133793146,-300.321283608509
738533.40623037551995366812,-4.50514236884671,-14.8355815301981,-300.302819910276
738533.40623046597465872765,-4.49591051973022,-14.8355815301981,-300.136646626179
738533.40623055631294846535,-4.51437421796319,-14.8355815301981,-300.26589251381
738533.40623064676765352488,-4.48667867061373,-14.8263496810816,-300.348979155858
738533.40623073722235858440,-4.46821497238075,-14.8078859828486,-300.275124362926
738533.40623082767706364393,-4.50514236884671,-14.8448133793146,-300.339747306742
738533.40623091813176870346,-4.51437421796319,-14.854045228431,-300.321283608509
738533.40623100858647376299,-4.53283791619617,-14.8632770775475,-300.339747306742
738533.40623109904117882252,-4.49591051973022,-14.8078859828486,-300.302819910276
738533.40623118949588388205,-4.49591051973022,-14.8448133793146,-300.330515457625
738533.40623127995058894157,-4.53283791619617,-14.8632770775475,-300.293588061159
738533.40623137040529400110,-4.55130161442915,-14.8817407757805,-300.26589251381
738533.40623146085999906063,-4.53283791619617,-14.854045228431,-300.284356212043
738533.40623155131470412016,-4.52360606707968,-14.854045228431,-300.302819910276
738533.40623164176940917969,-4.51437421796319,-14.8448133793146,-300.348979155858
738533.40623173210769891739,-4.52360606707968,-14.8355815301981,-300.247428815577
738533.40623182256240397692,-4.51437421796319,-14.8448133793146,-300.358211004975
738533.40623191301710903645,-4.52360606707968,-14.8448133793146,-300.330515457625
738533.40623200347181409597,-4.52360606707968,-14.8448133793146,-300.256660664693
738533.40623209392651915550,-4.53283791619617,-14.8263496810816,-300.321283608509
738533.40623218438122421503,-4.52360606707968,-14.8355815301981,-300.330515457625
738533.40623227483592927456,-4.54206976531266,-14.8355815301981,-300.321283608509
738533.40623236529063433409,-4.54206976531266,-14.854045228431,-300.302819910276
738533.40623245574533939362,-4.54206976531266,-14.8171178319651,-300.312051759392
738533.40623254620004445314,-4.54206976531266,-14.8632770775475,-300.348979155858
738533.40623263665474951267,-4.54206976531266,-14.8448133793146,-300.256660664693
738533.40623272710945457220,-4.55130161442915,-14.854045228431,-300.302819910276
738533.40623281756415963173,-4.52360606707968,-14.8171178319651,-300.312051759392
738533.40623290790244936943,-4.51437421796319,-14.8078859828486,-300.321283608509
738533.40623299835715442896,-4.51437421796319,-14.8355815301981,-300.26589251381
738533.40623308881185948849,-4.55130161442915,-14.8263496810816,-300.321283608509
738533.40623317926656454802,-4.48667867061373,-14.7894222846156,-300.284356212043
738533.40623326972126960754,-4.50514236884671,-14.7801904354991,-300.228965117344
738533.40623336017597466707,-4.54206976531266,-14.8263496810816,-300.275124362926
738533.40623345063067972660,-4.54206976531266,-14.8171178319651,-300.23819696646
738533.40623354108538478613,-4.54206976531266,-14.8355815301981,-300.228965117344
738533.40623363154008984566,-4.55130161442915,-14.8263496810816,-300.23819696646
738533.40623372199479490519,-4.56053346354564,-14.872508926664,-300.256660664693
738533.40623381244949996471,-4.58822901089511,-14.872508926664,-300.173574022645
738533.40623390290420502424,-4.58822901089511,-14.890972624897,-300.228965117344
738533.40623399335891008377,-4.57899716177862,-14.854045228431,-300.08125553148
738533.40623408369719982147,-4.56976531266213,-14.872508926664,-300.155110324412
738533.40623417415190488100,-4.57899716177862,-14.8632770775475,-300.210501419111
738533.40623426460660994053,-4.64362010559404,-14.890972624897,-300.219733268227
738533.40623435506131500006,-4.64362010559404,-14.7986541337321,-300.256660664693
738533.40623444551602005959,-4.56053346354564,-14.7524948881497,-300.210501419111
738533.40623453597072511911,-4.1727958006531,-14.5586260567034,-300.155110324412
738533.40623462642543017864,-3.79428998687704,-14.2447431867428,-300.072023682363
738533.40623471688013523817,-3.22191534165471,-14.5863216040529,-300.118182927946
738533.40623480733484029770,-3.07420575579089,-15.1679280983917,-300.155110324412
738533.40623489778954535723,-3.70197149571215,-15.5741294595172,-300.404370250557
738533.40623498824425041676,-4.26511429181799,-15.4356517227699,-300.42283394879
738533.40623507869895547628,-4.53283791619617,-15.1956236457411,-300.367442854091
738533.40623516915366053581,-4.53283791619617,-14.9832911160619,-300.219733268227
738533.40623525960836559534,-4.56053346354564,-14.90943632313,-300.293588061159
738533.40623534994665533304,-4.56053346354564,-14.854045228431,-300.284356212043
738533.40623544040136039257,-4.57899716177862,-14.872508926664,-300.247428815577
738533.40623553085606545210,-4.58822901089511,-14.8355815301981,-300.247428815577
738533.40623562131077051163,-4.5974608600116,-14.8448133793146,-300.284356212043
738533.40623571176547557116,-4.5974608600116,-14.8171178319651,-300.275124362926
738533.40623580222018063068,-4.60669270912809,-14.8448133793146,-300.23819696646
738533.40623589267488569021,-4.56976531266213,-14.8078859828486,-300.219733268227
738533.40623598312959074974,-4.60669270912809,-14.8171178319651,-300.293588061159
738533.40623607358429580927,-4.58822901089511,-14.7986541337321,-300.293588061159
738533.40623616403900086880,-4.5974608600116,-14.8078859828486,-300.201269569994
738533.40623625449370592833,-4.57899716177862,-14.7986541337321,-300.228965117344
738533.40623634494841098785,-4.57899716177862,-14.7709585863826,-300.228965117344
738533.40623643540311604738,-4.56053346354564,-14.7709585863826,-300.219733268227
738533.40623652574140578508,-4.55130161442915,-14.7247993408002,-300.173574022645
738533.40623661619611084461,-4.55130161442915,-14.7432630390332,-300.219733268227
738533.40623670665081590414,-4.52360606707968,-14.6878719443342,-300.201269569994
738533.40623679710552096367,-4.51437421796319,-14.6786400952177,-300.164342173528
738533.40623688756022602320,-4.47744682149724,-14.6232490005188,-300.182805871761
738533.40623697801493108273,-4.47744682149724,-14.6232490005188,-300.173574022645
738533.40623706846963614225,-4.44975127414777,-14.5863216040529,-300.127414777062
738533.40623715892434120178,-4.43128757591479,-14.5770897549364,-300.164342173528
738533.40623724937904626131,-4.37589648121586,-14.5401623584704,-300.155110324412
738533.40623733983375132084,-4.3389690847499,-14.5216986602374,-300.145878475295
738533.40623743028845638037,-4.32050538651692,-14.5216986602374,-300.127414777062
738533.40623752074316143990,-4.32050538651692,-14.5401623584704,-300.007400738548
738533.40623761119786649942,-4.27434614093448,-14.5493942075869,-300.062791833247
738533.40623770153615623713,-4.28357799005097,-14.5770897549364,-300.099719229713
738533.40623779199086129665,-4.32050538651692,-14.6324808496353,-300.108951078829
738533.40623788244556635618,-4.35743278298288,-14.6601763969848,-300.118182927946
738533.40623797290027141571,-4.38512833033235,-14.7063356425672,-300.118182927946
738533.40623806335497647524,-4.43128757591479,-14.7247993408002,-300.118182927946
738533.40623815380968153477,-4.44975127414777,-14.7524948881497,-300.136646626179
738533.40623824426438659430,-4.46821497238075,-14.7524948881497,-300.182805871761
738533.40623833471909165382,-4.48667867061373,-14.7709585863826,-300.23819696646
738533.40623842517379671335,-4.49591051973022,-14.7709585863826,-300.173574022645
738533.40623851562850177288,-4.51437421796319,-14.7894222846156,-300.182805871761
738533.40623860608320683241,-4.50514236884671,-14.7801904354991,-300.164342173528
738533.40623869653791189194,-4.51437421796319,-14.7617267372662,-300.127414777062
738533.40623878699261695147,-4.50514236884671,-14.7709585863826,-300.090487380596
738533.40623887733090668917,-4.54206976531266,-14.7894222846156,-300.136646626179
738533.40623896778561174870,-4.54206976531266,-14.7986541337321,-300.164342173528
738533.40623905824031680822,-4.56053346354564,-14.7894222846156,-300.118182927946
738533.40623914869502186775,-4.54206976531266,-14.7894222846156,-300.155110324412
738533.40623923914972692728,-4.55130161442915,-14.7709585863826,-300.090487380596
738533.40623932960443198681,-4.54206976531266,-14.7801904354991,-300.118182927946
738533.40623942005913704634,-4.55130161442915,-14.7617267372662,-300.08125553148
738533.40623951051384210587,-4.56976531266213,-14.8171178319651,-300.099719229713
738533.40623960096854716539,-4.57899716177862,-14.7986541337321,-300.072023682363
738533.40623969142325222492,-4.58822901089511,-14.8263496810816,-300.099719229713
738533.40623978187795728445,-4.60669270912809,-14.8078859828486,-300.090487380596
738533.40623987233266234398,-4.60669270912809,-14.8355815301981,-300.145878475295
738533.40623996278736740351,-4.58822901089511,-14.7986541337321,-300.164342173528
738533.40624005312565714121,-4.5974608600116,-14.8078859828486,-300.173574022645
738533.40624014358036220074,-4.5974608600116,-14.8171178319651,-300.155110324412
738533.40624023403506726027,-4.61592455824457,-14.8263496810816,-300.145878475295
738533.40624032448977231979,-4.58822901089511,-14.8078859828486,-300.210501419111
738533.40624041494447737932,-4.60669270912809,-14.7894222846156,-300.192037720878
738533.40624050539918243885,-4.60669270912809,-14.8171178319651,-300.099719229713
738533.40624059585388749838,-4.62515640736106,-14.8078859828486,-300.164342173528
738533.40624068630859255791,-4.62515640736106,-14.8263496810816,-300.192037720878
738533.40624077676329761744,-4.62515640736106,-14.7986541337321,-300.145878475295
738533.40624086721800267696,-4.62515640736106,-14.8263496810816,-300.164342173528
738533.40624095767270773649,-4.63438825647755,-14.8078859828486,-300.201269569994
738533.40624104812741279602,-4.63438825647755,-14.8355815301981,-300.062791833247
738533.40624113858211785555,-4.63438825647755,-14.7986541337321,-300.035096285897
738533.40624122892040759325,-4.63438825647755,-14.8263496810816,-300.155110324412
738533.40624131937511265278,-4.62515640736106,-14.7894222846156,-300.201269569994
738533.40624140982981771231,-4.65285195471053,-14.8263496810816,-300.099719229713
738533.40624150028452277184,-4.62515640736106,-14.7986541337321,-300.192037720878
738533.40624159073922783136,-4.63438825647755,-14.8355815301981,-300.192037720878
738533.40624168119393289089,-4.63438825647755,-14.8078859828486,-300.090487380596
738533.40624177164863795042,-4.64362010559404,-14.8263496810816,-300.145878475295
738533.40624186210334300995,-4.65285195471053,-14.8171178319651,-300.145878475295
738533.40624195255804806948,-4.66208380382702,-14.8078859828486,-300.173574022645
738533.40624204301275312901,-4.64362010559404,-14.8263496810816,-300.155110324412
738533.40624213346745818853,-4.65285195471053,-14.8078859828486,-300.090487380596
738533.40624222392216324806,-4.64362010559404,-14.8355815301981,-300.05355998413
738533.40624231437686830759,-4.66208380382702,-14.8078859828486,-300.090487380596
738533.40624240471515804529,-4.66208380382702,-14.8263496810816,-300.05355998413
738533.40624249516986310482,-4.64362010559404,-14.7986541337321,-300.035096285897
738533.40624258562456816435,-4.66208380382702,-14.8171178319651,-300.044328135014
738533.40624267607927322388,-4.62515640736106,-14.7524948881497,-300.044328135014
738533.40624276653397828341,-4.62515640736106,-14.7617267372662,-300.016632587664
738533.40624285698868334293,-4.62515640736106,-14.7709585863826,-300.072023682363
738533.40624294744338840246,-4.67131565294351,-14.7986541337321,-300.044328135014
738533.40624303789809346199,-4.66208380382702,-14.7894222846156,-300.08125553148
738533.40624312835279852152,-4.67131565294351,-14.8171178319651,-300.08125553148
738533.40624321880750358105,-4.67131565294351,-14.8263496810816,-300.08125553148
738533.40624330926220864058,-4.69901120029298,-14.8448133793146,-300.08125553148
738533.40624339971691370010,-4.68054750206,-14.8448133793146,-300.099719229713
738533.40624349017161875963,-4.69901120029298,-14.8355815301981,-300.127414777062
738533.40624358050990849733,-4.68054750206,-14.8355815301981,-300.099719229713
738533.40624367096461355686,-4.69901120029298,-14.8355815301981,-300.118182927946
738533.40624376141931861639,-4.69901120029298,-14.8448133793146,-300.08125553148
738533.40624385187402367592,-4.7636341441084,-14.8078859828486,-300.108951078829
738533.40624394232872873545,-4.71747489852596,-14.7432630390332,-300.072023682363
738533.40624403278343379498,-4.38512833033235,-14.5309305093539,-299.998168889431
738533.40624412323813885450,-4.03431806390576,-14.1985839411603,-299.9243140965
738533.40624421369284391403,-3.44347972045045,-14.3462935270241,-299.905850398267
738533.40624430414754897356,-3.13882869960631,-14.9648274178289,-300.035096285897
738533.40624439460225403309,-3.61888485366375,-15.4633472701193,-300.182805871761
738533.40624448505695909262,-4.20972319711905,-15.4541154210028,-300.201269569994
738533.40624457551166415215,-4.5974608600116,-15.2048554948576,-300.044328135014
738533.40624466596636921167,-4.66208380382702,-14.9925229651784,-299.988937040315
738533.40624475630465894938,-4.64362010559404,-14.8632770775475,-300.016632587664
738533.40624484675936400890,-4.68054750206,-14.8355815301981,-300.044328135014
738533.40624493721406906843,-4.68977935117649,-14.8263496810816,-300.035096285897
738533.40624502766877412796,-4.70824304940947,-14.7986541337321,-300.016632587664
738533.40624511812347918749,-4.68977935117649,-14.7986541337321,-300.108951078829
738533.40624520857818424702,-4.69901120029298,-14.7709585863826,-300.090487380596
738533.40624529903288930655,-4.69901120029298,-14.7894222846156,-300.08125553148
738533.40624538948759436607,-4.70824304940947,-14.7524948881497,-300.05355998413
738533.40624547994229942560,-4.69901120029298,-14.7617267372662,-300.090487380596
738533.40624557039700448513,-4.68977935117649,-14.7340311899167,-300.062791833247
738533.40624566085170954466,-4.69901120029298,-14.7432630390332,-300.025864436781
738533.40624575130641460419,-4.68054750206,-14.7340311899167,-300.08125553148
738533.40624584176111966372,-4.68054750206,-14.7247993408002,-300.090487380596
738533.40624593221582472324,-4.67131565294351,-14.7155674916837,-300.044328135014
738533.40624602255411446095,-4.65285195471053,-14.6878719443342,-300.044328135014
738533.40624611300881952047,-4.64362010559404,-14.6786400952177,-300.062791833247
738533.40624620346352458000,-4.64362010559404,-14.6417126987518,-300.044328135014
738533.40624629391822963953,-4.61592455824457,-14.6324808496353,-299.998168889431
738533.40624638437293469906,-4.58822901089511,-14.5770897549364,-300.025864436781
738533.40624647482763975859,-4.55130161442915,-14.5586260567034,-300.016632587664
738533.40624656528234481812,-4.53283791619617,-14.5124668111209,-299.961241492965
738533.40624665573704987764,-4.51437421796319,-14.5124668111209,-300.007400738548
738533.40624674619175493717,-4.48667867061373,-14.4663075655385,-299.998168889431
738533.40624683664645999670,-4.45898312326426,-14.475539414655,-299.905850398267
738533.40624692710116505623,-4.43128757591479,-14.4478438673055,-299.970473342082
738533.40624701755587011576,-4.39436017944884,-14.475539414655,-299.998168889431
738533.40624710801057517529,-4.37589648121586,-14.4663075655385,-299.952009643849
738533.40624719834886491299,-4.38512833033235,-14.5124668111209,-299.961241492965
738533.40624728880356997252,-4.40359202856532,-14.5309305093539,-299.970473342082
738533.40624737925827503204,-4.45898312326426,-14.5955534531693,-300.007400738548
738533.40624746971298009157,-4.46821497238075,-14.6140171514023,-299.942777794732
738533.40624756016768515110,-4.52360606707968,-14.6324808496353,-299.979705191198
738533.40624765062239021063,-4.55130161442915,-14.6878719443342,-299.979705191198
738533.40624774107709527016,-4.58822901089511,-14.6971037934507,-299.988937040315
738533.40624783153180032969,-4.5974608600116,-14.7340311899167,-299.970473342082
738533.40624792198650538921,-4.61592455824457,-14.7155674916837,-299.998168889431
738533.40624801244121044874,-4.61592455824457,-14.7432630390332,-300.007400738548
738533.40624810289591550827,-4.62515640736106,-14.7247993408002,-299.942777794732
738533.40624819335062056780,-4.62515640736106,-14.7524948881497,-299.850459303568
738533.40624828380532562733,-4.62515640736106,-14.7247993408002,-299.905850398267
738533.40624837414361536503,-4.62515640736106,-14.7524948881497,-299.9243140965
738533.40624846459832042456,-4.62515640736106,-14.7247993408002,-299.942777794732
738533.40624855505302548409,-4.64362010559404,-14.7524948881497,-299.942777794732
738533.40624864550773054361,-4.63438825647755,-14.7247993408002,-299.9243140965
738533.40624873596243560314,-4.65285195471053,-14.7432630390332,-299.998168889431
738533.40624882641714066267,-4.64362010559404,-14.7340311899167,-300.016632587664
738533.40624891687184572220,-4.66208380382702,-14.7524948881497,-300.016632587664
738533.40624900732655078173,-4.66208380382702,-14.7432630390332,-300.007400738548
738533.40624909778125584126,-4.67131565294351,-14.7617267372662,-300.035096285897
738533.40624918823596090078,-4.67131565294351,-14.7524948881497,-300.035096285897
738533.40624927869066596031,-4.68977935117649,-14.7617267372662,-300.035096285897
738533.40624936914537101984,-4.67131565294351,-14.7801904354991,-299.988937040315
738533.40624945960007607937,-4.68054750206,-14.7524948881497,-300.044328135014
738533.40624954993836581707,-4.68054750206,-14.7801904354991,-299.961241492965
738533.40624964039307087660,-4.67131565294351,-14.7617267372662,-299.970473342082
738533.40624973084777593613,-4.69901120029298,-14.7894222846156,-300.044328135014
738533.40624982130248099566,-4.68977935117649,-14.7617267372662,-299.961241492965
738533.40624991175718605518,-4.69901120029298,-14.7801904354991,-299.9243140965
738533.40625000221189111471,-4.67131565294351,-14.7524948881497,-299.9243140965
738533.40625009266659617424,-4.68977935117649,-14.7801904354991,-299.933545945616
738533.40625018312130123377,-4.69901120029298,-14.7709585863826,-299.942777794732
738533.40625027357600629330,-4.70824304940947,-14.7801904354991,-299.961241492965
738533.40625036403071135283,-4.70824304940947,-14.7709585863826,-299.952009643849
738533.40625045448541641235,-4.70824304940947,-14.7801904354991,-299.942777794732
738533.40625054494012147188,-4.68977935117649,-14.7709585863826,-299.988937040315
738533.40625063539482653141,-4.71747489852596,-14.7801904354991,-299.915082247383
738533.40625072573311626911,-4.68977935117649,-14.7801904354991,-299.933545945616
738533.40625081618782132864,-4.69901120029298,-14.7709585863826,-299.998168889431
738533.40625090664252638817,-4.68054750206,-14.7801904354991,-299.970473342082
738533.40625099709723144770,-4.68977935117649,-14.7709585863826,-299.970473342082
738533.40625108755193650723,-4.68054750206,-14.7801904354991,-299.952009643849
738533.40625117800664156675,-4.67131565294351,-14.7617267372662,-299.961241492965
738533.40625126846134662628,-4.68977935117649,-14.7894222846156,-299.961241492965
738533.40625135891605168581,-4.68054750206,-14.7617267372662,-299.970473342082
738533.40625144937075674534,-4.67131565294351,-14.7709585863826,-299.970473342082
738533.40625153982546180487,-4.64362010559404,-14.7432630390332,-300.016632587664
738533.40625163028016686440,-4.63438825647755,-14.7247993408002,-299.905850398267
738533.40625172073487192392,-4.55130161442915,-14.6786400952177,-299.795068208869
738533.40625181118957698345,-4.53283791619617,-14.6601763969848,-299.915082247383
738533.40625190152786672115,-4.56976531266213,-14.6878719443342,-299.9243140965
738533.40625199198257178068,-4.62515640736106,-14.7155674916837,-299.970473342082
738533.40625208243727684021,-4.66208380382702,-14.7524948881497,-299.933545945616
738533.40625217289198189974,-4.69901120029298,-14.7617267372662,-299.952009643849
738533.40625226334668695927,-4.70824304940947,-14.7986541337321,-299.961241492965
738533.40625235380139201880,-4.71747489852596,-14.7894222846156,-300.007400738548
738533.40625244425609707832,-4.72670674764244,-14.8171178319651,-299.9243140965
738533.40625253471080213785,-4.71747489852596,-14.7801904354991,-299.970473342082
738533.40625262516550719738,-4.71747489852596,-14.8078859828486,-300.007400738548
738533.40625271562021225691,-4.71747489852596,-14.7801904354991,-299.979705191198
738533.40625280607491731644,-4.71747489852596,-14.8078859828486,-299.952009643849
738533.40625289652962237597,-4.72670674764244,-14.7709585863826,-299.998168889431
738533.40625298698432743549,-4.80056154057436,-14.7894222846156,-299.988937040315
738533.40625307732261717319,-4.80056154057436,-14.7340311899167,-299.952009643849
738533.40625316777732223272,-4.5974608600116,-14.5955534531693,-299.952009643849
738533.40625325823202729225,-4.21895504623554,-14.2724387340922,-299.859691152684
738533.40625334868673235178,-3.75736259041108,-14.1339609973449,-299.795068208869
738533.40625343914143741131,-3.21268349253822,-14.6786400952177,-299.795068208869
738533.40625352959614247084,-3.36962492751854,-15.324869533372,-299.998168889431
738533.40625362005084753036,-3.97892696920682,-15.5372020630512,-300.05355998413
738533.40625371050555258989,-4.46821497238075,-15.324869533372,-299.988937040315
738533.40625380096025764942,-4.67131565294351,-15.0756096072268,-299.979705191198
738533.40625389141496270895,-4.62515640736106,-14.8632770775475,-299.9243140965
738533.40625398186966776848,-4.67131565294351,-14.8448133793146,-299.887386700034
738533.40625407232437282801,-4.68977935117649,-14.7986541337321,-299.970473342082
738533.40625416277907788754,-4.69901120029298,-14.8078859828486,-299.998168889431
738533.40625425311736762524,-4.68977935117649,-14.7617267372662,-299.970473342082
738533.40625434357207268476,-4.68977935117649,-14.7801904354991,-299.942777794732
738533.40625443402677774429,-4.68977935117649,-14.7432630390332,-299.979705191198
738533.40625452448148280382,-4.68977935117649,-14.7709585863826,-300.016632587664
738533.40625461493618786335,-4.68054750206,-14.7340311899167,-299.887386700034
738533.40625470539089292288,-4.68054750206,-14.7432630390332,-299.952009643849
738533.40625479584559798241,-4.66208380382702,-14.7155674916837,-299.961241492965
738533.40625488630030304193,-4.67131565294351,-14.7247993408002,-299.970473342082
738533.40625497675500810146,-4.66208380382702,-14.7247993408002,-299.933545945616
738533.40625506720971316099,-4.65285195471053,-14.6786400952177,-299.952009643849
738533.40625515766441822052,-4.63438825647755,-14.6878719443342,-299.970473342082
738533.40625524811912328005,-4.61592455824457,-14.6324808496353,-299.868923001801
738533.40625533857382833958,-4.5974608600116,-14.6417126987518,-299.9243140965
738533.40625542902853339911,-4.57899716177862,-14.5863216040529,-299.952009643849
738533.40625551936682313681,-4.55130161442915,-14.5770897549364,-299.859691152684
738533.40625560982152819633,-4.51437421796319,-14.5216986602374,-299.850459303568
738533.40625570027623325586,-4.49591051973022,-14.5124668111209,-299.878154850917
738533.40625579073093831539,-4.45898312326426,-14.457075716422,-299.813531907102
738533.40625588118564337492,-4.44051942503128,-14.4663075655385,-299.822763756218
738533.40625597164034843445,-4.4220557267983,-14.4201483199561,-299.822763756218
738533.40625606209505349398,-4.38512833033235,-14.4201483199561,-299.822763756218
738533.40625615254975855350,-4.3389690847499,-14.4016846217231,-299.868923001801
738533.40625624300446361303,-4.32973723563341,-14.4201483199561,-299.905850398267
738533.40625633345916867256,-4.31127353740043,-14.4293801690725,-299.804300057985
738533.40625642391387373209,-4.31127353740043,-14.494003112888,-299.878154850917
738533.40625651436857879162,-4.35743278298288,-14.5309305093539,-299.905850398267
738533.40625660482328385115,-4.40359202856532,-14.5678579058199,-299.868923001801
738533.40625669516157358885,-4.44051942503128,-14.6232490005188,-299.905850398267
738533.40625678561627864838,-4.45898312326426,-14.6140171514023,-299.905850398267
738533.40625687607098370790,-4.50514236884671,-14.6694082461013,-299.952009643849
738533.40625696652568876743,-4.53283791619617,-14.6694082461013,-299.89661854915
738533.40625705698039382696,-4.55130161442915,-14.6971037934507,-299.9243140965
738533.40625714743509888649,-4.54206976531266,-14.6878719443342,-299.9243140965
738533.40625723788980394602,-4.56053346354564,-14.7155674916837,-299.942777794732
738533.40625732834450900555,-4.56053346354564,-14.7063356425672,-299.89661854915
738533.40625741879921406507,-4.56053346354564,-14.7155674916837,-299.942777794732
738533.40625750925391912460,-4.56053346354564,-14.7155674916837,-299.942777794732
738533.40625759970862418413,-4.57899716177862,-14.7247993408002,-299.905850398267
738533.40625769016332924366,-4.55130161442915,-14.7155674916837,-299.942777794732
738533.40625778061803430319,-4.56976531266213,-14.7340311899167,-299.942777794732
738533.40625787095632404089,-4.56976531266213,-14.7340311899167,-299.979705191198
738533.40625796141102910042,-4.56976531266213,-14.7340311899167,-299.933545945616
738533.40625805186573415995,-4.58822901089511,-14.7432630390332,-299.933545945616
738533.40625814232043921947,-4.58822901089511,-14.7247993408002,-299.961241492965
738533.40625823277514427900,-4.56976531266213,-14.7432630390332,-299.9243140965
738533.40625832322984933853,-4.58822901089511,-14.7247993408002,-299.952009643849
738533.40625841368455439806,-4.5974608600116,-14.7524948881497,-299.988937040315
738533.40625850413925945759,-4.58822901089511,-14.7063356425672,-299.905850398267
738533.40625859459396451712,-4.57899716177862,-14.7155674916837,-299.942777794732
738533.40625868504866957664,-4.56976531266213,-14.7063356425672,-299.9243140965
738533.40625877550337463617,-4.5974608600116,-14.7340311899167,-299.776604510636
738533.40625886595807969570,-4.58822901089511,-14.7155674916837,-299.89661854915
738533.40625895641278475523,-4.58822901089511,-14.7063356425672,-299.89661854915
738533.40625904675107449293,-4.57899716177862,-14.7063356425672,-299.9243140965
738533.40625913720577955246,-4.57899716177862,-14.7063356425672,-299.878154850917
738533.40625922766048461199,-4.57899716177862,-14.7155674916837,-299.89661854915
738533.40625931811518967152,-4.58822901089511,-14.7063356425672,-299.952009643849
738533.40625940856989473104,-4.56976531266213,-14.7155674916837,-299.89661854915
738533.40625949902459979057,-4.56976531266213,-14.7155674916837,-299.868923001801
738533.40625958947930485010,-4.56053346354564,-14.7524948881497,-299.9243140965
738533.40625967993400990963,-4.57899716177862,-14.7247993408002,-299.933545945616
738533.40625977038871496916,-4.57899716177862,-14.7617267372662,-299.961241492965
738533.40625986084342002869,-4.56976531266213,-14.7340311899167,-299.905850398267
738533.40625995129812508821,-4.57899716177862,-14.7617267372662,-299.952009643849
738533.40626004175283014774,-4.56976531266213,-14.7432630390332,-299.970473342082
738533.40626013220753520727,-4.54206976531266,-14.7617267372662,-299.933545945616
738533.40626022254582494497,-4.52360606707968,-14.7063356425672,-299.915082247383
738533.40626031300053000450,-4.49591051973022,-14.7063356425672,-299.970473342082
738533.40626040345523506403,-4.44051942503128,-14.6324808496353,-299.979705191198
738533.40626049390994012356,-4.43128757591479,-14.6232490005188,-299.915082247383
738533.40626058436464518309,-4.43128757591479,-14.6509445478683,-299.915082247383
738533.40626067481935024261,-4.52360606707968,-14.6786400952177,-299.970473342082
738533.40626076527405530214,-4.53283791619617,-14.7155674916837,-299.970473342082
738533.40626085572876036167,-4.56976531266213,-14.7155674916837,-299.961241492965
738533.40626094618346542120,-4.58822901089511,-14.7709585863826,-299.979705191198
738533.40626103663817048073,-4.58822901089511,-14.7432630390332,-299.998168889431
738533.40626112709287554026,-4.61592455824457,-14.7801904354991,-299.915082247383
738533.40626121754758059978,-4.60669270912809,-14.7524948881497,-299.988937040315
738533.40626130800228565931,-4.60669270912809,-14.7894222846156,-299.988937040315
738533.40626139834057539701,-4.60669270912809,-14.7524948881497,-299.952009643849
738533.40626148879528045654,-4.61592455824457,-14.7801904354991,-299.961241492965
738533.40626157924998551607,-4.5974608600116,-14.7432630390332,-299.961241492965
738533.40626166970469057560,-4.68054750206,-14.7709585863826,-299.961241492965
