time_dn,ecg_projection_ll_ra_mV,ecg_projection_la_ra_mV,ecg_projection_vx_rl_mV
738533.42091605672612786293,-3.34192938016907,-14.2724387340922,-299.73967711417
738533.42091614718083292246,-3.36962492751854,-14.3093661305582,-299.748908963286
738533.42091623763553798199,-3.38808862575152,-14.3370616779077,-299.71198156682
738533.42091632809024304152,-3.41578417310099,-14.3739890743736,-299.730445265053
738533.42091641854494810104,-3.45271156956694,-14.3832209234901,-299.73967711417
738533.42091650888323783875,-3.44347972045045,-14.3924527726066,-299.702749717704
738533.42091659933794289827,-3.43424787133396,-14.4016846217231,-299.721213415937
738533.42091668979264795780,-3.43424787133396,-14.4016846217231,-299.758140812403
738533.42091678024735301733,-3.43424787133396,-14.3924527726066,-299.748908963286
738533.42091687070205807686,-3.44347972045045,-14.4293801690725,-299.804300057985
738533.42091696115676313639,-3.47117526779992,-14.4109164708396,-299.841227454451
738533.42091705149505287409,-3.54503006073183,-14.4109164708396,-299.804300057985
738533.42091714194975793362,-3.43424787133396,-14.3185979796747,-299.776604510636
738533.42091723240446299314,-3.16652424695578,-14.0693380535295,-299.721213415937
738533.42091732285916805267,-3.01881466109195,-13.8200781273843,-299.656590472121
738533.42091741331387311220,-2.59414960173345,-13.7369914853359,-299.416562395093
738533.42091750365216284990,-2.16948454237495,-14.3647572252571,-299.684286019471
738533.42091759410686790943,-2.39104892117069,-15.0756096072268,-299.868923001801
738533.42091768456157296896,-2.94495986816004,-15.2787102877895,-299.961241492965
738533.42091777501627802849,-3.29577013458663,-15.0386822107608,-299.795068208869
738533.42091786547098308802,-3.45271156956694,-14.7247993408002,-299.868923001801
738533.42091795580927282572,-3.43424787133396,-14.494003112888,-299.813531907102
738533.42091804626397788525,-3.48040711691641,-14.4663075655385,-299.785836359752
738533.42091813671868294477,-3.4896389660329,-14.4201483199561,-299.785836359752
738533.42091822717338800430,-3.49887081514939,-14.4201483199561,-299.831995605335
738533.42091831762809306383,-3.50810266426588,-14.3832209234901,-299.804300057985
738533.42091840808279812336,-3.50810266426588,-14.3832209234901,-299.776604510636
738533.42091849842108786106,-3.50810266426588,-14.3555253761406,-299.813531907102
738533.42091858887579292059,-3.51733451338237,-14.3555253761406,-299.730445265053
738533.42091867933049798012,-3.50810266426588,-14.3093661305582,-299.721213415937
738533.42091876978520303965,-3.49887081514939,-14.3185979796747,-299.73967711417
738533.42091886023990809917,-3.49887081514939,-14.2816705832087,-299.748908963286
738533.42091895057819783688,-3.50810266426588,-14.2816705832087,-299.758140812403
738533.42091904103290289640,-3.4896389660329,-14.2447431867428,-299.813531907102
738533.42091913148760795593,-3.48040711691641,-14.2447431867428,-299.767372661519
738533.42091922194231301546,-3.48040711691641,-14.2355113376263,-299.71198156682
738533.42091931239701807499,-3.45271156956694,-14.1893520920438,-299.71198156682
738533.42091940285172313452,-3.43424787133396,-14.1801202429273,-299.71198156682
738533.42091949319001287222,-3.42501602221747,-14.1524246955779,-299.702749717704
738533.42091958364471793175,-3.4065523239845,-14.1154972991119,-299.665822321238
738533.42091967409942299128,-3.35116122928556,-14.060106204413,-299.665822321238
738533.42091976455412805080,-3.33269753105258,-14.0139469588305,-299.638126773888
738533.42091985500883311033,-3.30500198370312,-13.9862514114811,-299.647358623005
738533.42091994534712284803,-3.26807458723716,-13.9493240150151,-299.638126773888
738533.42092003580182790756,-3.25884273812067,-13.9216284676656,-299.619663075655
738533.42092012625653296709,-3.21268349253822,-13.9123966185491,-299.675054170354
738533.42092021671123802662,-3.19421979430525,-13.9123966185491,-299.693517868587
738533.42092030716594308615,-3.20345164342174,-13.9585558641316,-299.71198156682
738533.42092039762064814568,-3.22191534165471,-14.004715109714,-299.702749717704
738533.42092048795893788338,-3.26807458723716,-14.0693380535295,-299.721213415937
738533.42092057841364294291,-3.32346568193609,-14.1339609973449,-299.748908963286
738533.42092066886834800243,-3.38808862575152,-14.2078157902768,-299.721213415937
738533.42092075932305306196,-3.44347972045045,-14.2447431867428,-299.795068208869
738533.42092084977775812149,-3.47117526779992,-14.2909024323252,-299.582735679189
738533.42092094011604785919,-3.49887081514939,-14.3370616779077,-299.564271980956
738533.42092103057075291872,-3.50810266426588,-14.3462935270241,-299.665822321238
738533.42092112102545797825,-3.53579821161534,-14.3832209234901,-299.795068208869
738533.42092121148016303778,-3.54503006073183,-14.4016846217231,-299.795068208869
738533.42092130193486809731,-3.56349375896481,-14.3924527726066,-299.795068208869
738533.42092139227315783501,-3.55426190984832,-14.3647572252571,-299.813531907102
738533.42092148272786289454,-3.56349375896481,-14.3832209234901,-299.841227454451
738533.42092157318256795406,-3.56349375896481,-14.3647572252571,-299.804300057985
738533.42092166363727301359,-3.5727256080813,-14.3647572252571,-299.767372661519
738533.42092175409197807312,-3.56349375896481,-14.3462935270241,-299.813531907102
738533.42092184454668313265,-3.58195745719779,-14.3462935270241,-299.813531907102
738533.42092193488497287035,-3.58195745719779,-14.3278298287912,-299.776604510636
738533.42092202533967792988,-3.59118930631428,-14.3370616779077,-299.804300057985
738533.42092211579438298941,-3.58195745719779,-14.3647572252571,-299.795068208869
738533.42092220624908804893,-3.60042115543077,-14.3555253761406,-299.776604510636
738533.42092229670379310846,-3.60042115543077,-14.3647572252571,-299.730445265053
738533.42092238704208284616,-3.60965300454726,-14.3832209234901,-299.730445265053
738533.42092247749678790569,-3.61888485366375,-14.3924527726066,-299.71198156682
738533.42092256795149296522,-3.61888485366375,-14.3647572252571,-299.730445265053
738533.42092265840619802475,-3.62811670278024,-14.3924527726066,-299.730445265053
738533.42092274886090308428,-3.62811670278024,-14.3647572252571,-299.822763756218
738533.42092283931560814381,-3.63734855189673,-14.3647572252571,-299.776604510636
738533.42092292965389788151,-3.62811670278024,-14.3278298287912,-299.804300057985
738533.42092302010860294104,-3.64658040101321,-14.3278298287912,-299.822763756218
738533.42092311056330800056,-3.6558122501297,-14.3185979796747,-299.748908963286
738533.42092320101801306009,-3.64658040101321,-14.3093661305582,-299.748908963286
738533.42092329147271811962,-3.66504409924619,-14.3093661305582,-299.758140812403
738533.42092338181100785732,-3.6558122501297,-14.3278298287912,-299.776604510636
738533.42092347226571291685,-3.66504409924619,-14.3278298287912,-299.748908963286
738533.42092356272041797638,-3.6558122501297,-14.3185979796747,-299.71198156682
738533.42092365317512303591,-3.6558122501297,-14.3462935270241,-299.804300057985
738533.42092374362982809544,-3.6558122501297,-14.3185979796747,-299.804300057985
738533.42092383396811783314,-3.62811670278024,-14.3185979796747,-299.804300057985
738533.42092392442282289267,-3.61888485366375,-14.2909024323252,-299.748908963286
738533.42092401487752795219,-3.60965300454726,-14.2724387340922,-299.822763756218
738533.42092410533223301172,-3.55426190984832,-14.2078157902768,-299.776604510636
738533.42092419578693807125,-3.52656636249886,-14.1893520920438,-299.71198156682
738533.42092428624164313078,-3.59118930631428,-14.2262794885098,-299.767372661519
738533.42092437657993286848,-3.63734855189673,-14.3001342814417,-299.610431226539
738533.42092446703463792801,-3.66504409924619,-14.3278298287912,-299.675054170354
738533.42092455748934298754,-3.71120334482864,-14.3647572252571,-299.785836359752
738533.42092464794404804707,-3.72966704306162,-14.3924527726066,-299.841227454451
738533.42092473839875310659,-3.74813074129459,-14.4109164708396,-299.813531907102
738533.42092482873704284430,-3.75736259041108,-14.4293801690725,-299.748908963286
738533.42092491919174790382,-3.75736259041108,-14.4016846217231,-299.748908963286
738533.42092500964645296335,-3.74813074129459,-14.4201483199561,-299.73967711417
738533.42092510010115802288,-3.75736259041108,-14.4016846217231,-299.822763756218
738533.42092519055586308241,-3.76659443952757,-14.4109164708396,-299.850459303568
738533.42092528101056814194,-3.75736259041108,-14.3739890743736,-299.804300057985
738533.42092537134885787964,-3.79428998687704,-14.3924527726066,-299.795068208869
738533.42092546180356293917,-3.84968108157598,-14.3647572252571,-299.822763756218
738533.42092555225826799870,-3.77582628864406,-14.2816705832087,-299.831995605335
738533.42092564271297305822,-3.50810266426588,-14.0324106570635,-299.684286019471
738533.42092573316767811775,-3.18498794518876,-13.644672994171,-299.675054170354
738533.42092582350596785545,-2.68646809289834,-13.8847010711997,-299.675054170354
738533.42092591396067291498,-2.47413556321909,-14.6971037934507,-299.748908963286
738533.42092600441537797451,-2.95419171727653,-15.2510147404401,-299.933545945616
738533.42092609487008303404,-3.42501602221747,-15.2417828913236,-300.016632587664
738533.42092618532478809357,-3.72043519394513,-14.90943632313,-299.933545945616
738533.42092627577949315310,-3.73889889217811,-14.5863216040529,-299.859691152684
738533.42092636611778289080,-3.76659443952757,-14.4201483199561,-299.776604510636
738533.42092645657248795033,-3.79428998687704,-14.4016846217231,-299.776604510636
738533.42092654702719300985,-3.80352183599353,-14.4109164708396,-299.748908963286
738533.42092663748189806938,-3.82198553422651,-14.3647572252571,-299.767372661519
738533.42092672793660312891,-3.81275368511002,-14.3739890743736,-299.776604510636
738533.42092681827489286661,-3.82198553422651,-14.3647572252571,-299.804300057985
738533.42092690872959792614,-3.82198553422651,-14.3647572252571,-299.822763756218
738533.42092699918430298567,-3.82198553422651,-14.3370616779077,-299.868923001801
738533.42092708963900804520,-3.82198553422651,-14.3370616779077,-299.841227454451
738533.42092718009371310472,-3.831217383343,-14.3185979796747,-299.785836359752
738533.42092727043200284243,-3.82198553422651,-14.3370616779077,-299.859691152684
738533.42092736088670790195,-3.81275368511002,-14.3185979796747,-299.850459303568
738533.42092745134141296148,-3.81275368511002,-14.3001342814417,-299.767372661519
738533.42092754179611802101,-3.79428998687704,-14.2539750358592,-299.822763756218
738533.42092763225082308054,-3.77582628864406,-14.2539750358592,-299.831995605335
738533.42092772270552814007,-3.75736259041108,-14.2355113376263,-299.785836359752
738533.42092781304381787777,-3.74813074129459,-14.2078157902768,-299.785836359752
738533.42092790349852293730,-3.72966704306162,-14.1708883938108,-299.638126773888
738533.42092799395322799683,-3.69273964659566,-14.1247291482284,-299.702749717704
738533.42092808440793305635,-3.66504409924619,-14.1062654499954,-299.748908963286
738533.42092817486263811588,-3.64658040101321,-14.04164250618,-299.804300057985
738533.42092826520092785358,-3.60042115543077,-14.004715109714,-299.73967711417
738533.42092835565563291311,-3.5727256080813,-13.9677877132481,-299.693517868587
738533.42092844611033797264,-3.55426190984832,-13.9677877132481,-299.748908963286
738533.42092853656504303217,-3.52656636249886,-13.9400921658986,-299.730445265053
738533.42092862701974809170,-3.49887081514939,-13.9585558641316,-299.730445265053
738533.42092871747445315123,-3.49887081514939,-14.004715109714,-299.721213415937
738533.42092880781274288893,-3.50810266426588,-14.0324106570635,-299.748908963286
738533.42092889826744794846,-3.55426190984832,-14.0878017517624,-299.767372661519
738533.42092898872215300798,-3.60965300454726,-14.1708883938108,-299.684286019471
738533.42092907917685806751,-3.6558122501297,-14.1985839411603,-299.776604510636
738533.42092916963156312704,-3.70197149571215,-14.2355113376263,-299.785836359752
738533.42092925996985286474,-3.72966704306162,-14.3185979796747,-299.804300057985
738533.42092935042455792427,-3.76659443952757,-14.3462935270241,-299.785836359752
738533.42092944087926298380,-3.76659443952757,-14.3370616779077,-299.804300057985
738533.42092953133396804333,-3.77582628864406,-14.3462935270241,-299.804300057985
738533.42092962178867310286,-3.79428998687704,-14.3555253761406,-299.758140812403
738533.42092971212696284056,-3.80352183599353,-14.3278298287912,-299.813531907102
738533.42092980258166790009,-3.80352183599353,-14.3370616779077,-299.822763756218
738533.42092989303637295961,-3.82198553422651,-14.3185979796747,-299.758140812403
738533.42092998349107801914,-3.81275368511002,-14.3370616779077,-299.822763756218
738533.42093007394578307867,-3.82198553422651,-14.3093661305582,-299.776604510636
738533.42093016440048813820,-3.82198553422651,-14.3093661305582,-299.767372661519
738533.42093025473877787590,-3.831217383343,-14.3001342814417,-299.730445265053
738533.42093034519348293543,-3.84044923245949,-14.3093661305582,-299.776604510636
738533.42093043564818799496,-3.831217383343,-14.3093661305582,-299.767372661519
738533.42093052610289305449,-3.831217383343,-14.3093661305582,-299.748908963286
738533.42093061655759811401,-3.84044923245949,-14.3093661305582,-299.831995605335
738533.42093070689588785172,-3.84044923245949,-14.3093661305582,-299.822763756218
738533.42093079735059291124,-3.85891293069246,-14.3278298287912,-299.804300057985
738533.42093088780529797077,-3.85891293069246,-14.3185979796747,-299.813531907102
738533.42093097826000303030,-3.85891293069246,-14.3185979796747,-299.813531907102
738533.42093106871470808983,-3.85891293069246,-14.2909024323252,-299.804300057985
738533.42093115916941314936,-3.85891293069246,-14.3093661305582,-299.776604510636
738533.42093124950770288706,-3.85891293069246,-14.2909024323252,-299.804300057985
738533.42093133996240794659,-3.85891293069246,-14.3185979796747,-299.804300057985
738533.42093143041711300611,-3.84968108157598,-14.3001342814417,-299.601199377422
738533.42093152087181806564,-3.86814477980895,-14.3278298287912,-299.730445265053
738533.42093161132652312517,-3.85891293069246,-14.3093661305582,-299.795068208869
738533.42093170166481286287,-3.85891293069246,-14.3278298287912,-299.767372661519
738533.42093179211951792240,-3.85891293069246,-14.3093661305582,-299.785836359752
738533.42093188257422298193,-3.85891293069246,-14.3185979796747,-299.795068208869
738533.42093197302892804146,-3.84044923245949,-14.2909024323252,-299.776604510636
738533.42093206348363310099,-3.831217383343,-14.2909024323252,-299.730445265053
738533.42093215393833816051,-3.82198553422651,-14.2816705832087,-299.795068208869
738533.42093224427662789822,-3.78505813776055,-14.2355113376263,-299.776604510636
738533.42093233473133295774,-3.73889889217811,-14.2170476393933,-299.675054170354
738533.42093242518603801727,-3.72966704306162,-14.1893520920438,-299.702749717704
738533.42093251564074307680,-3.79428998687704,-14.2724387340922,-299.730445265053
738533.42093260609544813633,-3.831217383343,-14.3001342814417,-299.730445265053
738533.42093269643373787403,-3.86814477980895,-14.3555253761406,-299.776604510636
738533.42093278688844293356,-3.89584032715842,-14.3647572252571,-299.748908963286
738533.42093287734314799309,-3.90507217627491,-14.4109164708396,-299.785836359752
738533.42093296779785305262,-3.93276772362438,-14.4201483199561,-299.767372661519
738533.42093305825255811214,-3.94199957274087,-14.438612018189,-299.767372661519
738533.42093314859084784985,-3.94199957274087,-14.4201483199561,-299.767372661519
738533.42093323904555290937,-3.93276772362438,-14.4478438673055,-299.804300057985
738533.42093332950025796890,-3.93276772362438,-14.438612018189,-299.804300057985
738533.42093341995496302843,-3.94199957274087,-14.438612018189,-299.758140812403
738533.42093351040966808796,-3.96046327097385,-14.438612018189,-299.758140812403
738533.42093360086437314749,-4.00662251655629,-14.438612018189,-299.831995605335
738533.42093369120266288519,-3.97892696920682,-14.3555253761406,-299.822763756218
738533.42093378165736794472,-3.75736259041108,-14.1985839411603,-299.795068208869
738533.42093387211207300425,-3.43424787133396,-13.8108462782678,-299.647358623005
738533.42093396256677806377,-3.24037903988769,-13.6539048432875,-299.656590472121
738533.42093405302148312330,-2.70493179113132,-14.078569902646,-299.693517868587
738533.42093414335977286100,-2.60338145084994,-14.8448133793146,-299.850459303568
738533.42093423381447792053,-3.12959685048982,-15.2787102877895,-299.933545945616
738533.42093432426918298006,-3.58195745719779,-15.1586962492752,-299.979705191198
738533.42093441472388803959,-3.88660847804193,-14.8355815301981,-299.961241492965
738533.42093450517859309912,-3.88660847804193,-14.5586260567034,-299.841227454451
738533.42093459563329815865,-3.90507217627491,-14.475539414655,-299.878154850917
738533.42093468597158789635,-3.93276772362438,-14.438612018189,-299.859691152684
738533.42093477642629295588,-3.92353587450789,-14.438612018189,-299.850459303568
738533.42093486688099801540,-3.93276772362438,-14.4109164708396,-299.841227454451
738533.42093495733570307493,-3.93276772362438,-14.3739890743736,-299.702749717704
738533.42093504779040813446,-3.93276772362438,-14.4016846217231,-299.721213415937
738533.42093513812869787216,-3.95123142185736,-14.4109164708396,-299.813531907102
738533.42093522858340293169,-3.94199957274087,-14.4016846217231,-299.767372661519
738533.42093531903810799122,-3.94199957274087,-14.4016846217231,-299.776604510636
738533.42093540949281305075,-3.93276772362438,-14.3924527726066,-299.776604510636
738533.42093549994751811028,-3.94199957274087,-14.3832209234901,-299.767372661519
738533.42093559040222316980,-3.95123142185736,-14.3832209234901,-299.804300057985
738533.42093568074051290751,-3.93276772362438,-14.3647572252571,-299.758140812403
738533.42093577119521796703,-3.90507217627491,-14.3462935270241,-299.813531907102
738533.42093586164992302656,-3.89584032715842,-14.3185979796747,-299.804300057985
738533.42093595210462808609,-3.89584032715842,-14.2909024323252,-299.804300057985
738533.42093604255933314562,-3.85891293069246,-14.2447431867428,-299.748908963286
738533.42093613289762288332,-3.84044923245949,-14.2078157902768,-299.730445265053
738533.42093622335232794285,-3.81275368511002,-14.1524246955779,-299.73967711417
738533.42093631380703300238,-3.78505813776055,-14.1062654499954,-299.721213415937
738533.42093640426173806190,-3.74813074129459,-14.060106204413,-299.702749717704
738533.42093649471644312143,-3.69273964659566,-14.0324106570635,-299.675054170354
738533.42093658505473285913,-3.66504409924619,-14.0139469588305,-299.675054170354
738533.42093667550943791866,-3.6558122501297,-14.004715109714,-299.684286019471
738533.42093676596414297819,-3.62811670278024,-14.004715109714,-299.721213415937
738533.42093685641884803772,-3.61888485366375,-14.0324106570635,-299.71198156682
738533.42093694687355309725,-3.62811670278024,-14.0970336008789,-299.721213415937
738533.42093703732825815678,-3.6558122501297,-14.1431928464614,-299.730445265053
738533.42093712766654789448,-3.69273964659566,-14.2170476393933,-299.73967711417
738533.42093721812125295401,-3.72966704306162,-14.2447431867428,-299.776604510636
738533.42093730857595801353,-3.78505813776055,-14.3185979796747,-299.758140812403
738533.42093739903066307306,-3.82198553422651,-14.3370616779077,-299.776604510636
738533.42093748948536813259,-3.85891293069246,-14.3739890743736,-299.767372661519
738533.42093757982365787029,-3.87737662892544,-14.3739890743736,-299.785836359752
738533.42093767027836292982,-3.88660847804193,-14.3832209234901,-299.776604510636
738533.42093776073306798935,-3.88660847804193,-14.3924527726066,-299.776604510636
738533.42093785118777304888,-3.90507217627491,-14.3832209234901,-299.776604510636
738533.42093794164247810841,-3.90507217627491,-14.3832209234901,-299.804300057985
738533.42093803209718316793,-3.88660847804193,-14.3739890743736,-299.795068208869
738533.42093812243547290564,-3.88660847804193,-14.3832209234901,-299.831995605335
738533.42093821289017796516,-3.89584032715842,-14.3647572252571,-299.831995605335
738533.42093830334488302469,-3.88660847804193,-14.3739890743736,-299.767372661519
738533.42093839379958808422,-3.88660847804193,-14.3555253761406,-299.831995605335
738533.42093848425429314375,-3.89584032715842,-14.3739890743736,-299.748908963286
738533.42093857459258288145,-3.90507217627491,-14.3647572252571,-299.693517868587
738533.42093866504728794098,-3.89584032715842,-14.3832209234901,-299.822763756218
738533.42093875550199300051,-3.88660847804193,-14.3647572252571,-299.841227454451
738533.42093884595669806004,-3.89584032715842,-14.3924527726066,-299.795068208869
738533.42093893641140311956,-3.89584032715842,-14.3739890743736,-299.859691152684
738533.42093902674969285727,-3.90507217627491,-14.3924527726066,-299.859691152684
738533.42093911720439791679,-3.88660847804193,-14.3647572252571,-299.831995605335
738533.42093920765910297632,-3.89584032715842,-14.3924527726066,-299.822763756218
738533.42093929811380803585,-3.9143040253914,-14.3832209234901,-299.859691152684
738533.42093938856851309538,-3.92353587450789,-14.4016846217231,-299.887386700034
738533.42093947902321815491,-3.92353587450789,-14.4016846217231,-299.841227454451
738533.42093956936150789261,-3.92353587450789,-14.4016846217231,-299.859691152684
738533.42093965981621295214,-3.93276772362438,-14.4293801690725,-299.868923001801
738533.42093975027091801167,-3.9143040253914,-14.4109164708396,-299.868923001801
738533.42093984072562307119,-3.9143040253914,-14.4201483199561,-299.831995605335
738533.42093993118032813072,-3.88660847804193,-14.3924527726066,-299.859691152684
738533.42094002151861786842,-3.86814477980895,-14.3924527726066,-299.878154850917
738533.42094011197332292795,-3.84968108157598,-14.3462935270241,-299.822763756218
738533.42094020242802798748,-3.80352183599353,-14.3278298287912,-299.850459303568
738533.42094029288273304701,-3.75736259041108,-14.2724387340922,-299.813531907102
738533.42094038333743810654,-3.77582628864406,-14.2909024323252,-299.73967711417
738533.42094047379214316607,-3.82198553422651,-14.3370616779077,-299.804300057985
738533.42094056413043290377,-3.86814477980895,-14.3924527726066,-299.822763756218
738533.42094065458513796329,-3.90507217627491,-14.4016846217231,-299.859691152684
738533.42094074503984302282,-3.94199957274087,-14.438612018189,-299.831995605335
738533.42094083549454808235,-3.96046327097385,-14.457075716422,-299.850459303568
738533.42094092594925314188,-3.96046327097385,-14.475539414655,-299.89661854915
738533.42094101628754287958,-3.95123142185736,-14.475539414655,-299.795068208869
738533.42094110674224793911,-3.95123142185736,-14.4663075655385,-299.841227454451
738533.42094119719695299864,-3.95123142185736,-14.4663075655385,-299.850459303568
738533.42094128765165805817,-3.94199957274087,-14.457075716422,-299.776604510636
738533.42094137810636311769,-3.93276772362438,-14.4663075655385,-299.813531907102
738533.42094146856106817722,-3.92353587450789,-14.4478438673055,-299.795068208869
738533.42094155889935791492,-3.96046327097385,-14.457075716422,-299.795068208869
738533.42094164935406297445,-4.01585436567278,-14.4109164708396,-299.785836359752
738533.42094173980876803398,-3.84968108157598,-14.2909024323252,-299.748908963286
738533.42094183026347309351,-3.48040711691641,-13.9677877132481,-299.675054170354
738533.42094192071817815304,-3.07420575579089,-13.6908322397534,-299.591967528306
738533.42094201105646789074,-2.52952665791803,-14.1985839411603,-299.52734458449
738533.42094210151117295027,-2.53875850703452,-14.927900021363,-299.684286019471
738533.42094219196587800980,-3.10190130314035,-15.2140873439741,-299.89661854915
738533.42094228242058306932,-3.62811670278024,-15.1125370036927,-299.868923001801
738533.42094237287528812885,-3.93276772362438,-14.8263496810816,-299.915082247383
738533.42094246321357786655,-3.88660847804193,-14.5955534531693,-299.887386700034
738533.42094255366828292608,-3.90507217627491,-14.5124668111209,-299.850459303568
738533.42094264412298798561,-3.90507217627491,-14.4847712637715,-299.850459303568
738533.42094273457769304514,-3.90507217627491,-14.4847712637715,-299.859691152684
738533.42094282503239810467,-3.90507217627491,-14.4663075655385,-299.841227454451
738533.42094291548710316420,-3.89584032715842,-14.4663075655385,-299.804300057985
738533.42094300582539290190,-3.90507217627491,-14.475539414655,-299.850459303568
738533.42094309628009796143,-3.89584032715842,-14.4847712637715,-299.878154850917
738533.42094318673480302095,-3.88660847804193,-14.4663075655385,-299.868923001801
738533.42094327718950808048,-3.87737662892544,-14.475539414655,-299.850459303568
738533.42094336764421314001,-3.86814477980895,-14.4663075655385,-299.868923001801
738533.42094345798250287771,-3.85891293069246,-14.4478438673055,-299.878154850917
738533.42094354843720793724,-3.831217383343,-14.438612018189,-299.767372661519
738533.42094363889191299677,-3.831217383343,-14.4201483199561,-299.730445265053
738533.42094372934661805630,-3.82198553422651,-14.4016846217231,-299.748908963286
738533.42094381980132311583,-3.80352183599353,-14.3739890743736,-299.73967711417
738533.42094391025602817535,-3.76659443952757,-14.3462935270241,-299.71198156682
738533.42094400059431791306,-3.74813074129459,-14.3001342814417,-299.767372661519
738533.42094409104902297258,-3.71120334482864,-14.2539750358592,-299.767372661519
738533.42094418150372803211,-3.69273964659566,-14.2078157902768,-299.748908963286
738533.42094427195843309164,-3.62811670278024,-14.1708883938108,-299.776604510636
738533.42094436241313815117,-3.59118930631428,-14.1247291482284,-299.767372661519
738533.42094445275142788887,-3.5727256080813,-14.1154972991119,-299.73967711417
738533.42094454320613294840,-3.51733451338237,-14.0878017517624,-299.748908963286
738533.42094463366083800793,-3.46194341868343,-14.1062654499954,-299.758140812403
738533.42094472411554306746,-3.41578417310099,-14.0970336008789,-299.73967711417
738533.42094481457024812698,-3.42501602221747,-14.1524246955779,-299.776604510636
738533.42094490490853786469,-3.4065523239845,-14.1985839411603,-299.785836359752
738533.42094499536324292421,-3.41578417310099,-14.2816705832087,-299.813531907102
738533.42094508581794798374,-3.45271156956694,-14.3185979796747,-299.785836359752
738533.42094517627265304327,-3.49887081514939,-14.3647572252571,-299.841227454451
738533.42094526672735810280,-3.52656636249886,-14.4293801690725,-299.841227454451
738533.42094535718206316233,-3.60042115543077,-14.494003112888,-299.859691152684
738533.42094544752035290003,-3.62811670278024,-14.5678579058199,-299.822763756218
738533.42094553797505795956,-3.66504409924619,-14.5955534531693,-299.795068208869
738533.42094562842976301908,-3.66504409924619,-14.6417126987518,-299.693517868587
738533.42094571888446807861,-3.68350779747917,-14.6509445478683,-299.822763756218
738533.42094580933917313814,-3.71120334482864,-14.6971037934507,-299.822763756218
738533.42094589967746287584,-3.70197149571215,-14.6971037934507,-299.795068208869
738533.42094599013216793537,-3.70197149571215,-14.7709585863826,-299.813531907102
738533.42094608058687299490,-3.68350779747917,-14.7340311899167,-299.804300057985
738533.42094617104157805443,-3.70197149571215,-14.7432630390332,-299.813531907102
738533.42094626149628311396,-3.72966704306162,-14.7524948881497,-299.785836359752
738533.42094635195098817348,-3.70197149571215,-14.7432630390332,-299.868923001801
738533.42094644228927791119,-3.70197149571215,-14.7709585863826,-299.822763756218
738533.42094653274398297071,-3.73889889217811,-14.7340311899167,-299.887386700034
738533.42094662319868803024,-3.72966704306162,-14.7063356425672,-299.933545945616
738533.42094671365339308977,-3.71120334482864,-14.6694082461013,-299.988937040315
738533.42094680410809814930,-3.73889889217811,-14.6786400952177,-299.850459303568
738533.42094689444638788700,-3.74813074129459,-14.6878719443342,-299.961241492965
738533.42094698490109294653,-3.75736259041108,-14.6786400952177,-300.044328135014
738533.42094707535579800606,-3.76659443952757,-14.6417126987518,-300.025864436781
738533.42094716581050306559,-3.74813074129459,-14.6417126987518,-300.05355998413
738533.42094725626520812511,-3.73889889217811,-14.5955534531693,-299.942777794732
738533.42094734671991318464,-3.74813074129459,-14.6140171514023,-299.979705191198
738533.42094743705820292234,-3.73889889217811,-14.6140171514023,-299.961241492965
738533.42094752751290798187,-3.76659443952757,-14.6232490005188,-299.887386700034
738533.42094761796761304140,-3.77582628864406,-14.6047853022858,-299.887386700034
738533.42094770842231810093,-3.76659443952757,-14.6417126987518,-299.887386700034
738533.42094779887702316046,-3.75736259041108,-14.6232490005188,-299.822763756218
738533.42094788921531289816,-3.73889889217811,-14.5863216040529,-299.878154850917
738533.42094797967001795769,-3.72966704306162,-14.5770897549364,-299.868923001801
738533.42094807012472301722,-3.71120334482864,-14.5678579058199,-299.850459303568
738533.42094816057942807674,-3.67427594836268,-14.5032349620045,-299.868923001801
738533.42094825103413313627,-3.60965300454726,-14.4478438673055,-299.813531907102
738533.42094834137242287397,-3.64658040101321,-14.4847712637715,-299.795068208869
738533.42094843182712793350,-3.71120334482864,-14.5309305093539,-299.804300057985
738533.42094852228183299303,-3.71120334482864,-14.5401623584704,-299.831995605335
738533.42094861273653805256,-3.74813074129459,-14.5586260567034,-299.831995605335
738533.42094870319124311209,-3.77582628864406,-14.6509445478683,-299.831995605335
738533.42094879364594817162,-3.79428998687704,-14.6509445478683,-299.878154850917
738533.42094888398423790932,-3.831217383343,-14.7063356425672,-299.915082247383
738533.42094897443894296885,-3.78505813776055,-14.6786400952177,-299.887386700034
738533.42094906489364802837,-3.75736259041108,-14.6509445478683,-299.822763756218
738533.42094915534835308790,-3.72043519394513,-14.6140171514023,-299.767372661519
738533.42094924580305814743,-3.72043519394513,-14.6140171514023,-299.9243140965
738533.42094933614134788513,-3.78505813776055,-14.6878719443342,-299.859691152684
738533.42094942659605294466,-3.85891293069246,-14.7524948881497,-299.915082247383
738533.42094951705075800419,-3.97892696920682,-14.7986541337321,-299.933545945616
738533.42094960750546306372,-3.98815881832331,-14.7247993408002,-299.942777794732
738533.42094969796016812325,-3.67427594836268,-14.5032349620045,-299.813531907102
738533.42094978841487318277,-3.27730643635365,-14.0324106570635,-299.795068208869
738533.42094987875316292048,-2.7233954893643,-14.04164250618,-299.758140812403
738533.42094996920786798000,-2.26180303353984,-14.5955534531693,-299.878154850917
738533.42095005966257303953,-2.63107699819941,-15.2417828913236,-300.025864436781
738533.42095015011727809906,-3.24961088900418,-15.2694784386731,-300.05355998413
738533.42095024057198315859,-3.72966704306162,-15.0202185125278,-300.072023682363
738533.42095033091027289629,-3.9143040253914,-14.8171178319651,-300.016632587664
738533.42095042136497795582,-3.86814477980895,-14.6786400952177,-299.933545945616
738533.42095051181968301535,-3.831217383343,-14.5493942075869,-299.970473342082
738533.42095060227438807487,-3.80352183599353,-14.494003112888,-299.988937040315
738533.42095069272909313440,-3.82198553422651,-14.494003112888,-300.016632587664
738533.42095078306738287210,-3.78505813776055,-14.4478438673055,-299.878154850917
738533.42095087352208793163,-3.95123142185736,-14.6140171514023,-299.767372661519
738533.42095096397679299116,-3.95123142185736,-14.5863216040529,-299.767372661519
738533.42095105443149805069,-3.87737662892544,-14.5309305093539,-300.099719229713
738533.42095114488620311022,-3.84968108157598,-14.494003112888,-300.404370250557
738533.42095123534090816975,-3.68350779747917,-14.4293801690725,-300.459761345256
738533.42095132567919790745,-3.51733451338237,-14.3462935270241,-300.515152439955
738533.42095141613390296698,-3.51733451338237,-14.475539414655,-300.515152439955
738533.42095150658860802650,-3.53579821161534,-14.6140171514023,-300.524384289071
738533.42095159704331308603,-3.5727256080813,-14.6786400952177,-300.459761345256
738533.42095168749801814556,-3.61888485366375,-14.6694082461013,-300.284356212043
738533.42095177783630788326,-3.70197149571215,-14.6878719443342,-300.118182927946
738533.42095186829101294279,-3.81275368511002,-14.6601763969848,-300.035096285897
738533.42095195874571800232,-3.84044923245949,-14.6232490005188,-299.915082247383
738533.42095204920042306185,-3.81275368511002,-14.5032349620045,-299.887386700034
738533.42095213965512812138,-3.74813074129459,-14.4016846217231,-299.868923001801
738533.42095223010983318090,-3.6558122501297,-14.2539750358592,-299.804300057985
738533.42095232044812291861,-3.60042115543077,-14.2078157902768,-299.748908963286
738533.42095241090282797813,-3.49887081514939,-14.0693380535295,-299.730445265053
738533.42095250135753303766,-3.49887081514939,-14.0508743552965,-299.730445265053
738533.42095259181223809719,-3.56349375896481,-14.1431928464614,-299.656590472121
738533.42095268226694315672,-3.53579821161534,-14.1524246955779,-299.582735679189
738533.42095277260523289442,-3.52656636249886,-14.1893520920438,-299.721213415937
738533.42095286305993795395,-3.53579821161534,-14.2262794885098,-299.730445265053
738533.42095295351464301348,-3.55426190984832,-14.3001342814417,-299.702749717704
738533.42095304396934807301,-3.54503006073183,-14.3185979796747,-299.804300057985
738533.42095313442405313253,-3.60965300454726,-14.3832209234901,-299.822763756218
738533.42095322487875819206,-3.63734855189673,-14.3924527726066,-299.813531907102
738533.42095331521704792976,-3.68350779747917,-14.4293801690725,-299.822763756218
738533.42095340567175298929,-3.68350779747917,-14.4201483199561,-299.859691152684
738533.42095349612645804882,-3.6558122501297,-14.3832209234901,-299.831995605335
738533.42095358658116310835,-3.79428998687704,-14.5309305093539,-299.804300057985
738533.42095367703586816788,-3.81275368511002,-14.5493942075869,-299.850459303568
738533.42095376737415790558,-3.74813074129459,-14.4847712637715,-299.868923001801
738533.42095385782886296511,-3.68350779747917,-14.457075716422,-299.831995605335
738533.42095394828356802464,-3.75736259041108,-14.5586260567034,-299.813531907102
738533.42095403873827308416,-3.81275368511002,-14.5678579058199,-299.841227454451
738533.42095412919297814369,-3.79428998687704,-14.5493942075869,-299.776604510636
738533.42095421953126788139,-3.72043519394513,-14.494003112888,-299.767372661519
738533.42095430998597294092,-3.67427594836268,-14.4663075655385,-299.776604510636
738533.42095440044067800045,-3.66504409924619,-14.438612018189,-299.804300057985
738533.42095449089538305998,-3.66504409924619,-14.457075716422,-299.776604510636
738533.42095458135008811951,-3.69273964659566,-14.4663075655385,-299.767372661519
738533.42095467180479317904,-3.79428998687704,-14.6232490005188,-299.785836359752
738533.42095476214308291674,-3.74813074129459,-14.5586260567034,-299.804300057985
738533.42095485259778797626,-3.74813074129459,-14.5493942075869,-299.785836359752
738533.42095494305249303579,-3.72043519394513,-14.5401623584704,-299.831995605335
738533.42095503350719809532,-3.75736259041108,-14.5770897549364,-299.804300057985
738533.42095512396190315485,-3.70197149571215,-14.5309305093539,-299.841227454451
738533.42095521430019289255,-3.71120334482864,-14.5309305093539,-299.868923001801
738533.42095530475489795208,-3.72043519394513,-14.5401623584704,-299.841227454451
738533.42095539520960301161,-3.79428998687704,-14.5955534531693,-299.841227454451
738533.42095548566430807114,-3.831217383343,-14.6417126987518,-299.868923001801
738533.42095557611901313066,-3.84044923245949,-14.6232490005188,-299.859691152684
738533.42095566657371819019,-3.85891293069246,-14.6324808496353,-299.850459303568
738533.42095575691200792789,-3.78505813776055,-14.5863216040529,-299.868923001801
738533.42095584736671298742,-3.75736259041108,-14.5678579058199,-299.89661854915
738533.42095593782141804695,-3.76659443952757,-14.6047853022858,-299.887386700034
738533.42095602827612310648,-3.68350779747917,-14.5678579058199,-299.831995605335
738533.42095611873082816601,-3.52656636249886,-14.4293801690725,-299.850459303568
738533.42095620906911790371,-3.49887081514939,-14.4293801690725,-299.71198156682
738533.42095629952382296324,-3.61888485366375,-14.5586260567034,-299.850459303568
738533.42095638997852802277,-3.75736259041108,-14.6601763969848,-299.822763756218
738533.42095648043323308229,-3.73889889217811,-14.6971037934507,-299.795068208869
738533.42095657088793814182,-3.76659443952757,-14.7432630390332,-299.748908963286
738533.42095666134264320135,-3.73889889217811,-14.7617267372662,-299.785836359752
738533.42095675168093293905,-3.77582628864406,-14.8632770775475,-299.767372661519
738533.42095684213563799858,-3.79428998687704,-14.854045228431,-299.785836359752
738533.42095693259034305811,-3.73889889217811,-14.854045228431,-299.795068208869
738533.42095702304504811764,-3.73889889217811,-14.872508926664,-299.859691152684
738533.42095711349975317717,-3.76659443952757,-14.8817407757805,-299.841227454451
738533.42095720383804291487,-3.77582628864406,-14.9002044740135,-299.878154850917
738533.42095729429274797440,-3.79428998687704,-14.927900021363,-299.868923001801
738533.42095738474745303392,-3.81275368511002,-14.9740592669454,-299.878154850917
738533.42095747520215809345,-3.93276772362438,-14.9463637195959,-299.841227454451
738533.42095756565686315298,-3.76659443952757,-14.7709585863826,-299.868923001801
738533.42095765599515289068,-3.35116122928556,-14.4478438673055,-299.758140812403
738533.42095774644985795021,-2.84340952787866,-14.1154972991119,-299.582735679189
738533.42095783690456300974,-2.22487563707389,-14.4109164708396,-299.573503830073
738533.42095792735926806927,-2.08639790032655,-14.9925229651784,-299.804300057985
738533.42095801781397312880,-2.32642597735527,-15.1679280983917,-299.878154850917
738533.42095810826867818832,-3.11113315225684,-15.2417828913236,-299.970473342082
738533.42095819860696792603,-3.70197149571215,-15.0386822107608,-299.89661854915
738533.42095828906167298555,-3.73889889217811,-14.7340311899167,-299.868923001801
738533.42095837951637804508,-3.70197149571215,-14.6694082461013,-299.850459303568
738533.42095846997108310461,-3.79428998687704,-14.6232490005188,-299.850459303568
738533.42095856042578816414,-3.82198553422651,-14.6140171514023,-299.850459303568
738533.42095865076407790184,-3.79428998687704,-14.5863216040529,-299.841227454451
738533.42095874121878296137,-3.72966704306162,-14.5770897549364,-299.859691152684
738533.42095883167348802090,-3.71120334482864,-14.6140171514023,-299.767372661519
738533.42095892212819308043,-3.6558122501297,-14.6324808496353,-299.795068208869
738533.42095901258289813995,-3.74813074129459,-14.6601763969848,-299.813531907102
738533.42095910303760319948,-3.69273964659566,-14.6694082461013,-299.813531907102
738533.42095919337589293718,-3.61888485366375,-14.5955534531693,-299.785836359752
738533.42095928383059799671,-3.63734855189673,-14.6047853022858,-299.785836359752
738533.42095937428530305624,-3.72043519394513,-14.7155674916837,-299.850459303568
738533.42095946474000811577,-3.74813074129459,-14.6971037934507,-299.850459303568
738533.42095955519471317530,-3.60042115543077,-14.5863216040529,-299.804300057985
738533.42095964553300291300,-3.70197149571215,-14.5955534531693,-299.656590472121
738533.42095973598770797253,-3.6558122501297,-14.5678579058199,-299.758140812403
738533.42095982644241303205,-3.67427594836268,-14.5216986602374,-299.822763756218
738533.42095991689711809158,-3.69273964659566,-14.494003112888,-299.73967711417
738533.42096000735182315111,-3.56349375896481,-14.3555253761406,-299.785836359752
738533.42096009769011288881,-3.52656636249886,-14.3093661305582,-299.767372661519
738533.42096018814481794834,-3.44347972045045,-14.2539750358592,-299.758140812403
738533.42096027859952300787,-3.48040711691641,-14.2909024323252,-299.776604510636
738533.42096036905422806740,-3.36962492751854,-14.0970336008789,-299.71198156682
738533.42096045950893312693,-3.29577013458663,-14.1431928464614,-299.693517868587
738533.42096054996363818645,-3.38808862575152,-14.3462935270241,-299.730445265053
738533.42096064030192792416,-3.33269753105258,-14.3739890743736,-299.730445265053
738533.42096073075663298368,-3.35116122928556,-14.3832209234901,-299.721213415937
738533.42096082121133804321,-3.45271156956694,-14.5032349620045,-299.758140812403
738533.42096091166604310274,-3.36962492751854,-14.4847712637715,-299.748908963286
738533.42096100212074816227,-3.48040711691641,-14.5770897549364,-299.73967711417
738533.42096109245903789997,-3.59118930631428,-14.5493942075869,-299.702749717704
738533.42096118291374295950,-3.42501602221747,-14.3924527726066,-299.73967711417
738533.42096127336844801903,-3.54503006073183,-14.5032349620045,-299.767372661519
738533.42096136382315307856,-3.64658040101321,-14.5863216040529,-299.767372661519
738533.42096145427785813808,-3.70197149571215,-14.6232490005188,-299.767372661519
738533.42096154473256319761,-3.6558122501297,-14.5493942075869,-299.776604510636
738533.42096163507085293531,-3.61888485366375,-14.5401623584704,-299.748908963286
738533.42096172552555799484,-3.59118930631428,-14.5032349620045,-299.73967711417
738533.42096181598026305437,-3.63734855189673,-14.5493942075869,-299.785836359752
738533.42096190643496811390,-3.52656636249886,-14.5493942075869,-299.748908963286
738533.42096199688967317343,-3.50810266426588,-14.5586260567034,-299.71198156682
738533.42096208722796291113,-3.60965300454726,-14.6786400952177,-299.748908963286
738533.42096217768266797066,-3.63734855189673,-14.7801904354991,-299.804300057985
738533.42096226813737303019,-3.64658040101321,-14.7709585863826,-299.748908963286
738533.42096235859207808971,-3.60965300454726,-14.7524948881497,-299.767372661519
738533.42096244904678314924,-3.61888485366375,-14.7432630390332,-299.730445265053
738533.42096253950148820877,-3.60965300454726,-14.6878719443342,-299.73967711417
738533.42096262983977794647,-3.63734855189673,-14.6786400952177,-299.785836359752
738533.42096272029448300600,-3.53579821161534,-14.6324808496353,-299.776604510636
738533.42096281074918806553,-3.5727256080813,-14.6694082461013,-299.758140812403
738533.42096290120389312506,-3.62811670278024,-14.6601763969848,-299.804300057985
738533.42096299165859818459,-3.59118930631428,-14.6509445478683,-299.813531907102
738533.42096308199688792229,-3.63734855189673,-14.6878719443342,-299.822763756218
738533.42096317245159298182,-3.58195745719779,-14.7432630390332,-299.675054170354
738533.42096326290629804134,-3.63734855189673,-14.7247993408002,-299.693517868587
738533.42096335336100310087,-3.70197149571215,-14.7894222846156,-299.804300057985
738533.42096344381570816040,-3.67427594836268,-14.7709585863826,-299.795068208869
738533.42096353415399789810,-3.68350779747917,-14.7894222846156,-299.859691152684
738533.42096362460870295763,-3.69273964659566,-14.7801904354991,-299.850459303568
738533.42096371506340801716,-3.59118930631428,-14.6971037934507,-299.859691152684
738533.42096380551811307669,-3.55426190984832,-14.6971037934507,-299.785836359752
738533.42096389597281813622,-3.67427594836268,-14.7894222846156,-299.841227454451
738533.42096398642752319574,-3.63734855189673,-14.7524948881497,-299.850459303568
738533.42096407676581293344,-3.54503006073183,-14.7063356425672,-299.767372661519
738533.42096416722051799297,-3.50810266426588,-14.6786400952177,-299.804300057985
738533.42096425767522305250,-3.6558122501297,-14.7432630390332,-299.831995605335
738533.42096434812992811203,-3.58195745719779,-14.7617267372662,-299.850459303568
738533.42096443858463317156,-3.72966704306162,-14.8355815301981,-299.785836359752
738533.42096452892292290926,-3.76659443952757,-14.8817407757805,-299.859691152684
738533.42096461937762796879,-3.72966704306162,-14.8355815301981,-299.850459303568
738533.42096470983233302832,-3.72966704306162,-14.872508926664,-299.813531907102
738533.42096480028703808784,-3.72043519394513,-14.8632770775475,-299.841227454451
738533.42096489074174314737,-3.72966704306162,-14.890972624897,-299.850459303568
738533.42096498119644820690,-3.75736259041108,-14.872508926664,-299.795068208869
738533.42096507153473794460,-3.76659443952757,-14.9002044740135,-299.841227454451
738533.42096516198944300413,-3.75736259041108,-14.9463637195959,-299.859691152684
738533.42096525244414806366,-3.72043519394513,-14.9002044740135,-299.841227454451
738533.42096534289885312319,-3.70197149571215,-14.7986541337321,-299.841227454451
738533.42096543335355818272,-3.77582628864406,-14.8171178319651,-299.859691152684
738533.42096552369184792042,-3.82198553422651,-14.872508926664,-299.785836359752
738533.42096561414655297995,-3.46194341868343,-14.6601763969848,-299.675054170354
738533.42096570460125803947,-2.95419171727653,-14.3278298287912,-299.610431226539
738533.42096579505596309900,-2.40028077028718,-14.5216986602374,-299.573503830073
738533.42096588551066815853,-2.08639790032655,-15.1310007019257,-299.684286019471
738533.42096597584895789623,-2.55722220526749,-15.4079561754204,-299.859691152684
738533.42096606630366295576,-3.38808862575152,-15.5002746665853,-299.868923001801
738533.42096615675836801529,-3.76659443952757,-15.2602465895566,-299.868923001801
738533.42096624721307307482,-3.71120334482864,-15.0479140598773,-299.841227454451
738533.42096633766777813435,-3.64658040101321,-14.8632770775475,-299.795068208869
738533.42096642812248319387,-3.75736259041108,-14.9002044740135,-299.748908963286
738533.42096651846077293158,-3.87737662892544,-14.9463637195959,-299.795068208869
738533.42096660891547799110,-3.74813074129459,-14.7986541337321,-299.785836359752
738533.42096669937018305063,-3.87737662892544,-14.8263496810816,-299.638126773888
738533.42096678982488811016,-3.88660847804193,-14.8171178319651,-299.693517868587
738533.42096688027959316969,-3.93276772362438,-14.8078859828486,-299.776604510636
738533.42096697061788290739,-3.84968108157598,-14.7155674916837,-299.73967711417
738533.42096706107258796692,-3.84968108157598,-14.6601763969848,-299.73967711417
738533.42096715152729302645,-3.84968108157598,-14.6232490005188,-299.721213415937
738533.42096724198199808598,-3.78505813776055,-14.5493942075869,-299.721213415937
738533.42096733243670314550,-3.86814477980895,-14.5770897549364,-299.721213415937
738533.42096742289140820503,-3.89584032715842,-14.6047853022858,-299.748908963286
738533.42096751322969794273,-3.88660847804193,-14.5586260567034,-299.730445265053
738533.42096760368440300226,-3.92353587450789,-14.5955534531693,-299.767372661519
738533.42096769413910806179,-3.93276772362438,-14.5493942075869,-299.776604510636
738533.42096778459381312132,-3.86814477980895,-14.475539414655,-299.665822321238
738533.42096787504851818085,-3.84044923245949,-14.3924527726066,-299.730445265053
738533.42096796538680791855,-3.76659443952757,-14.2909024323252,-299.721213415937
738533.42096805584151297808,-3.68350779747917,-14.1801202429273,-299.693517868587
738533.42096814629621803761,-3.67427594836268,-14.1893520920438,-299.702749717704
738533.42096823675092309713,-3.62811670278024,-14.1524246955779,-299.693517868587
738533.42096832720562815666,-3.74813074129459,-14.2909024323252,-299.638126773888
738533.42096841766033321619,-3.70197149571215,-14.2816705832087,-299.675054170354
738533.42096850799862295389,-3.66504409924619,-14.2724387340922,-299.721213415937
738533.42096859845332801342,-3.59118930631428,-14.2816705832087,-299.693517868587
738533.42096868890803307295,-3.50810266426588,-14.2170476393933,-299.684286019471
738533.42096877936273813248,-3.5727256080813,-14.3370616779077,-299.73967711417
738533.42096886981744319201,-3.5727256080813,-14.3001342814417,-299.758140812403
738533.42096896015573292971,-3.72966704306162,-14.494003112888,-299.702749717704
738533.42096905061043798923,-3.79428998687704,-14.5493942075869,-299.813531907102
738533.42096914106514304876,-3.74813074129459,-14.5124668111209,-299.785836359752
738533.42096923151984810829,-3.74813074129459,-14.494003112888,-299.795068208869
738533.42096932197455316782,-3.81275368511002,-14.5770897549364,-299.767372661519
738533.42096941231284290552,-3.831217383343,-14.6140171514023,-299.776604510636
738533.42096950276754796505,-3.831217383343,-14.6417126987518,-299.831995605335
738533.42096959322225302458,-3.831217383343,-14.6509445478683,-299.730445265053
738533.42096968367695808411,-3.78505813776055,-14.6047853022858,-299.804300057985
738533.42096977413166314363,-3.74813074129459,-14.5863216040529,-299.841227454451
738533.42096986458636820316,-3.82198553422651,-14.6601763969848,-299.758140812403
738533.42096995492465794086,-3.78505813776055,-14.6324808496353,-299.748908963286
738533.42097004537936300039,-3.70197149571215,-14.5124668111209,-299.702749717704
738533.42097013583406805992,-3.78505813776055,-14.5955534531693,-299.71198156682
738533.42097022628877311945,-3.77582628864406,-14.5586260567034,-299.573503830073
738533.42097031674347817898,-3.79428998687704,-14.5955534531693,-299.656590472121
738533.42097040708176791668,-3.76659443952757,-14.5586260567034,-299.785836359752
738533.42097049753647297621,-3.72966704306162,-14.5309305093539,-299.71198156682
738533.42097058799117803574,-3.6558122501297,-14.3924527726066,-299.684286019471
738533.42097067844588309526,-3.79428998687704,-14.5493942075869,-299.785836359752
738533.42097076890058815479,-3.90507217627491,-14.6140171514023,-299.702749717704
738533.42097085935529321432,-3.88660847804193,-14.5955534531693,-299.748908963286
738533.42097094969358295202,-3.88660847804193,-14.5770897549364,-299.748908963286
738533.42097104014828801155,-3.92353587450789,-14.6047853022858,-299.767372661519
738533.42097113060299307108,-3.84044923245949,-14.5216986602374,-299.767372661519
738533.42097122105769813061,-3.9143040253914,-14.5678579058199,-299.730445265053
738533.42097131151240319014,-3.9973906674398,-14.6601763969848,-299.730445265053
738533.42097140185069292784,-3.86814477980895,-14.5124668111209,-299.71198156682
738533.42097149230539798737,-3.78505813776055,-14.4478438673055,-299.693517868587
738533.42097158276010304689,-3.98815881832331,-14.6417126987518,-299.71198156682
738533.42097167321480810642,-3.96046327097385,-14.6232490005188,-299.758140812403
738533.42097176366951316595,-3.87737662892544,-14.5216986602374,-299.748908963286
738533.42097185400780290365,-3.86814477980895,-14.5309305093539,-299.693517868587
738533.42097194446250796318,-3.97892696920682,-14.6324808496353,-299.730445265053
738533.42097203491721302271,-3.9143040253914,-14.5955534531693,-299.785836359752
738533.42097212537191808224,-3.95123142185736,-14.6047853022858,-299.776604510636
738533.42097221582662314177,-3.9143040253914,-14.5863216040529,-299.776604510636
738533.42097230628132820129,-3.831217383343,-14.5032349620045,-299.748908963286
738533.42097239661961793900,-3.86814477980895,-14.5401623584704,-299.73967711417
738533.42097248707432299852,-3.76659443952757,-14.438612018189,-299.748908963286
738533.42097257752902805805,-3.64658040101321,-14.3555253761406,-299.71198156682
738533.42097266798373311758,-3.72043519394513,-14.4016846217231,-299.693517868587
738533.42097275843843817711,-3.89584032715842,-14.5493942075869,-299.758140812403
738533.42097284877672791481,-3.86814477980895,-14.5032349620045,-299.721213415937
738533.42097293923143297434,-3.94199957274087,-14.5216986602374,-299.684286019471
738533.42097302968613803387,-3.95123142185736,-14.5678579058199,-299.684286019471
738533.42097312014084309340,-3.96046327097385,-14.5493942075869,-299.758140812403
738533.42097321059554815292,-3.92353587450789,-14.5493942075869,-299.767372661519
738533.42097330105025321245,-3.88660847804193,-14.4663075655385,-299.71198156682
738533.42097339138854295015,-3.94199957274087,-14.5586260567034,-299.73967711417
738533.42097348184324800968,-3.93276772362438,-14.5401623584704,-299.776604510636
738533.42097357229795306921,-4.07124546037172,-14.6878719443342,-299.71198156682
738533.42097366275265812874,-4.03431806390576,-14.6509445478683,-299.73967711417
738533.42097375320736318827,-4.00662251655629,-14.6232490005188,-299.638126773888
738533.42097384354565292597,-4.01585436567278,-14.5586260567034,-299.656590472121
738533.42097393400035798550,-3.96969512009033,-14.4847712637715,-299.610431226539
738533.42097402445506304502,-3.75736259041108,-14.4016846217231,-299.619663075655
738533.42097411490976810455,-3.27730643635365,-14.0324106570635,-299.508880886257
738533.42097420536447316408,-2.70493179113132,-14.023178807947,-299.435026093326
738533.42097429581917822361,-2.37258522293771,-14.6232490005188,-299.545808282723
738533.42097438615746796131,-2.8064821314127,-15.1771599475082,-299.721213415937
738533.42097447661217302084,-3.48040711691641,-15.1679280983917,-299.822763756218
738533.42097456706687808037,-3.80352183599353,-14.9463637195959,-299.813531907102
738533.42097465752158313990,-3.94199957274087,-14.7524948881497,-299.804300057985
738533.42097474797628819942,-3.93276772362438,-14.7247993408002,-299.702749717704
738533.42097483831457793713,-3.97892696920682,-14.6694082461013,-299.665822321238
738533.42097492876928299665,-3.90507217627491,-14.5678579058199,-299.665822321238
738533.42097501922398805618,-3.90507217627491,-14.5401623584704,-299.665822321238
738533.42097510967869311571,-4.05278176213874,-14.6786400952177,-299.665822321238
738533.42097520013339817524,-3.92353587450789,-14.5586260567034,-299.638126773888
738533.42097529047168791294,-3.96046327097385,-14.5955534531693,-299.675054170354
738533.42097538092639297247,-3.97892696920682,-14.6140171514023,-299.702749717704
738533.42097547138109803200,-3.87737662892544,-14.5124668111209,-299.693517868587
738533.42097556183580309153,-3.84044923245949,-14.475539414655,-299.628894924772
738533.42097565229050815105,-3.93276772362438,-14.5586260567034,-299.693517868587
738533.42097574274521321058,-3.93276772362438,-14.5678579058199,-299.721213415937
738533.42097583308350294828,-3.78505813776055,-14.4016846217231,-299.601199377422
738533.42097592353820800781,-3.92353587450789,-14.5401623584704,-299.693517868587
738533.42097601399291306734,-3.96969512009033,-14.5678579058199,-299.675054170354
738533.42097610444761812687,-3.86814477980895,-14.5032349620045,-299.638126773888
738533.42097619490232318640,-3.85891293069246,-14.475539414655,-299.675054170354
738533.42097628524061292410,-3.80352183599353,-14.457075716422,-299.684286019471
738533.42097637569531798363,-3.80352183599353,-14.438612018189,-299.656590472121
738533.42097646615002304316,-3.66504409924619,-14.3185979796747,-299.619663075655
738533.42097655660472810268,-3.61888485366375,-14.2539750358592,-299.591967528306
738533.42097664705943316221,-3.70197149571215,-14.3555253761406,-299.628894924772
738533.42097673751413822174,-3.67427594836268,-14.3370616779077,-299.619663075655
738533.42097682785242795944,-3.71120334482864,-14.3647572252571,-299.545808282723
738533.42097691830713301897,-3.62811670278024,-14.3093661305582,-299.610431226539
738533.42097700876183807850,-3.5727256080813,-14.2632068849757,-299.610431226539
738533.42097709921654313803,-3.60965300454726,-14.3555253761406,-299.601199377422
738533.42097718967124819756,-3.59118930631428,-14.3278298287912,-299.601199377422
738533.42097728000953793526,-3.60042115543077,-14.3739890743736,-299.545808282723
738533.42097737046424299479,-3.5727256080813,-14.3278298287912,-299.536576433607
738533.42097746091894805431,-3.54503006073183,-14.3093661305582,-299.582735679189
738533.42097755137365311384,-3.79428998687704,-14.5124668111209,-299.665822321238
738533.42097764182835817337,-3.80352183599353,-14.5309305093539,-299.665822321238
738533.42097773228306323290,-3.80352183599353,-14.5032349620045,-299.638126773888
738533.42097782262135297060,-3.84968108157598,-14.5493942075869,-299.665822321238
738533.42097791307605803013,-3.84968108157598,-14.5124668111209,-299.675054170354
738533.42097800353076308966,-3.80352183599353,-14.475539414655,-299.665822321238
738533.42097809398546814919,-3.87737662892544,-14.5216986602374,-299.638126773888
738533.42097818444017320871,-3.86814477980895,-14.5586260567034,-299.675054170354
738533.42097827477846294641,-3.72043519394513,-14.3739890743736,-299.665822321238
738533.42097836523316800594,-3.71120334482864,-14.3647572252571,-299.647358623005
738533.42097845568787306547,-3.831217383343,-14.5032349620045,-299.665822321238
738533.42097854614257812500,-3.84968108157598,-14.4847712637715,-299.675054170354
738533.42097863659728318453,-3.86814477980895,-14.5493942075869,-299.684286019471
738533.42097872693557292223,-3.96046327097385,-14.6047853022858,-299.638126773888
738533.42097881739027798176,-3.85891293069246,-14.5309305093539,-299.693517868587
738533.42097890784498304129,-3.86814477980895,-14.5032349620045,-299.675054170354
738533.42097899829968810081,-3.82198553422651,-14.494003112888,-299.601199377422
738533.42097908875439316034,-3.84968108157598,-14.5124668111209,-299.656590472121
738533.42097917920909821987,-3.93276772362438,-14.6232490005188,-299.647358623005
738533.42097926954738795757,-3.89584032715842,-14.5493942075869,-299.647358623005
738533.42097936000209301710,-3.89584032715842,-14.5770897549364,-299.675054170354
738533.42097945045679807663,-3.90507217627491,-14.5309305093539,-299.638126773888
738533.42097954091150313616,-3.88660847804193,-14.5493942075869,-299.610431226539
738533.42097963136620819569,-3.86814477980895,-14.5309305093539,-299.601199377422
738533.42097972170449793339,-3.94199957274087,-14.6140171514023,-299.628894924772
738533.42097981215920299292,-3.84968108157598,-14.5124668111209,-299.610431226539
738533.42097990261390805244,-3.89584032715842,-14.5586260567034,-299.601199377422
738533.42097999306861311197,-3.93276772362438,-14.5863216040529,-299.601199377422
738533.42098008352331817150,-3.9973906674398,-14.6324808496353,-299.628894924772
738533.42098017397802323103,-3.93276772362438,-14.5586260567034,-299.638126773888
738533.42098026431631296873,-3.87737662892544,-14.494003112888,-299.619663075655
738533.42098035477101802826,-3.87737662892544,-14.494003112888,-299.647358623005
738533.42098044522572308779,-3.9143040253914,-14.5216986602374,-299.610431226539
738533.42098053568042814732,-3.79428998687704,-14.4109164708396,-299.628894924772
738533.42098062613513320684,-3.88660847804193,-14.475539414655,-299.665822321238
738533.42098071647342294455,-4.05278176213874,-14.6417126987518,-299.684286019471
738533.42098080692812800407,-3.98815881832331,-14.5493942075869,-299.536576433607
738533.42098089738283306360,-3.96046327097385,-14.5124668111209,-299.591967528306
738533.42098098783753812313,-3.94199957274087,-14.475539414655,-299.693517868587
738533.42098107829224318266,-3.9143040253914,-14.457075716422,-299.730445265053
738533.42098116863053292036,-3.84044923245949,-14.4016846217231,-299.665822321238
738533.42098125908523797989,-3.84968108157598,-14.4016846217231,-299.675054170354
738533.42098134953994303942,-3.77582628864406,-14.3462935270241,-299.665822321238
738533.42098143999464809895,-3.75736259041108,-14.3370616779077,-299.693517868587
738533.42098153044935315847,-3.76659443952757,-14.3278298287912,-299.656590472121
738533.42098162090405821800,-3.831217383343,-14.3278298287912,-299.684286019471
738533.42098171124234795570,-3.79428998687704,-14.2816705832087,-299.684286019471
738533.42098180169705301523,-3.95123142185736,-14.4109164708396,-299.656590472121
738533.42098189215175807476,-3.97892696920682,-14.4847712637715,-299.702749717704
738533.42098198260646313429,-3.95123142185736,-14.4109164708396,-299.721213415937
738533.42098207306116819382,-3.90507217627491,-14.3739890743736,-299.647358623005
738533.42098216339945793152,-3.97892696920682,-14.4663075655385,-299.656590472121
738533.42098225385416299105,-3.9973906674398,-14.475539414655,-299.665822321238
738533.42098234430886805058,-3.96046327097385,-14.438612018189,-299.647358623005
738533.42098243476357311010,-3.96969512009033,-14.4478438673055,-299.628894924772
738533.42098252521827816963,-3.9143040253914,-14.4016846217231,-299.656590472121
738533.42098261567298322916,-3.9143040253914,-14.3555253761406,-299.647358623005
738533.42098270601127296686,-3.97892696920682,-14.3647572252571,-299.591967528306
738533.42098279646597802639,-3.98815881832331,-14.3555253761406,-299.628894924772
738533.42098288692068308592,-3.60965300454726,-14.0693380535295,-299.55504013184
738533.42098297737538814545,-3.19421979430525,-13.7092959379864,-299.37040314951
738533.42098306783009320498,-2.50183111056856,-13.9585558641316,-299.453489791559
738533.42098315816838294268,-2.40951261940367,-14.6694082461013,-299.591967528306
738533.42098324862308800220,-2.89880062257759,-15.0386822107608,-299.748908963286
738533.42098333907779306173,-3.54503006073183,-14.9925229651784,-299.71198156682
738533.42098342953249812126,-3.95123142185736,-14.8632770775475,-299.73967711417
738533.42098351998720318079,-3.87737662892544,-14.5678579058199,-299.693517868587
738533.42098361044190824032,-3.82198553422651,-14.4201483199561,-299.656590472121
738533.42098370078019797802,-3.9143040253914,-14.4663075655385,-299.55504013184
738533.42098379123490303755,-4.04354991302225,-14.6047853022858,-299.628894924772
738533.42098388168960809708,-3.96046327097385,-14.4847712637715,-299.610431226539
738533.42098397214431315660,-3.93276772362438,-14.4663075655385,-299.564271980956
738533.42098406259901821613,-3.93276772362438,-14.4478438673055,-299.564271980956
738533.42098415293730795383,-4.00662251655629,-14.5124668111209,-299.573503830073
738533.42098424339201301336,-3.96046327097385,-14.457075716422,-299.564271980956
738533.42098433384671807289,-3.9143040253914,-14.4109164708396,-299.545808282723
738533.42098442430142313242,-3.84968108157598,-14.3924527726066,-299.545808282723
738533.42098451475612819195,-3.80352183599353,-14.3185979796747,-299.573503830073
738533.42098460509441792965,-3.90507217627491,-14.457075716422,-299.656590472121
738533.42098469554912298918,-3.94199957274087,-14.5124668111209,-299.647358623005
738533.42098478600382804871,-3.90507217627491,-14.457075716422,-299.628894924772
738533.42098487645853310823,-3.89584032715842,-14.4293801690725,-299.638126773888
738533.42098496691323816776,-3.85891293069246,-14.4016846217231,-299.665822321238
738533.42098505736794322729,-3.80352183599353,-14.3185979796747,-299.647358623005
738533.42098514770623296499,-3.81275368511002,-14.3647572252571,-299.573503830073
738533.42098523816093802452,-3.75736259041108,-14.2909024323252,-299.647358623005
738533.42098532861564308405,-3.72043519394513,-14.2262794885098,-299.638126773888
738533.42098541907034814358,-3.64658040101321,-14.1708883938108,-299.564271980956
738533.42098550952505320311,-3.70197149571215,-14.2447431867428,-299.628894924772
738533.42098559986334294081,-3.70197149571215,-14.2355113376263,-299.638126773888
738533.42098569031804800034,-3.58195745719779,-14.1431928464614,-299.536576433607
738533.42098578077275305986,-3.5727256080813,-14.1431928464614,-299.55504013184
738533.42098587122745811939,-3.60965300454726,-14.2262794885098,-299.55504013184
738533.42098596168216317892,-3.56349375896481,-14.2078157902768,-299.573503830073
738533.42098605213686823845,-3.50810266426588,-14.1985839411603,-299.55504013184
738533.42098614247515797615,-3.5727256080813,-14.3370616779077,-299.601199377422
738533.42098623292986303568,-3.56349375896481,-14.2909024323252,-299.601199377422
738533.42098632338456809521,-3.66504409924619,-14.4109164708396,-299.564271980956
738533.42098641383927315474,-3.72966704306162,-14.457075716422,-299.573503830073
738533.42098650429397821426,-3.73889889217811,-14.4847712637715,-299.55504013184
738533.42098659463226795197,-3.80352183599353,-14.5216986602374,-299.573503830073
738533.42098668508697301149,-3.81275368511002,-14.5309305093539,-299.610431226539
738533.42098677554167807102,-3.78505813776055,-14.4847712637715,-299.591967528306
738533.42098686599638313055,-3.86814477980895,-14.5770897549364,-299.656590472121
738533.42098695645108819008,-3.81275368511002,-14.5216986602374,-299.656590472121
738533.42098704678937792778,-3.69273964659566,-14.4201483199561,-299.675054170354
738533.42098713724408298731,-3.74813074129459,-14.494003112888,-299.647358623005
738533.42098722769878804684,-3.831217383343,-14.5493942075869,-299.619663075655
738533.42098731815349310637,-3.85891293069246,-14.5863216040529,-299.610431226539
738533.42098740860819816589,-3.831217383343,-14.5401623584704,-299.647358623005
738533.42098749906290322542,-3.75736259041108,-14.4663075655385,-299.601199377422
738533.42098758940119296312,-3.74813074129459,-14.475539414655,-299.610431226539
738533.42098767985589802265,-3.80352183599353,-14.5401623584704,-299.591967528306
738533.42098777031060308218,-3.85891293069246,-14.5678579058199,-299.610431226539
738533.42098786076530814171,-3.831217383343,-14.5216986602374,-299.591967528306
738533.42098795122001320124,-3.84968108157598,-14.5493942075869,-299.481185338908
738533.42098804155830293894,-3.86814477980895,-14.5770897549364,-299.582735679189
738533.42098813201300799847,-3.86814477980895,-14.5863216040529,-299.564271980956
738533.42098822246771305799,-3.85891293069246,-14.5678579058199,-299.619663075655
738533.42098831292241811752,-3.76659443952757,-14.4847712637715,-299.601199377422
738533.42098840337712317705,-3.82198553422651,-14.5678579058199,-299.610431226539
738533.42098849383182823658,-3.85891293069246,-14.6324808496353,-299.601199377422
738533.42098858417011797428,-3.86814477980895,-14.6232490005188,-299.665822321238
738533.42098867462482303381,-3.81275368511002,-14.6047853022858,-299.647358623005
738533.42098876507952809334,-3.9143040253914,-14.6694082461013,-299.675054170354
738533.42098885553423315287,-3.9143040253914,-14.6878719443342,-299.665822321238
738533.42098894598893821239,-3.84968108157598,-14.6232490005188,-299.675054170354
738533.42098903632722795010,-3.81275368511002,-14.5770897549364,-299.601199377422
738533.42098912678193300962,-3.82198553422651,-14.5770897549364,-299.684286019471
738533.42098921723663806915,-3.84968108157598,-14.6232490005188,-299.693517868587
738533.42098930769134312868,-3.87737662892544,-14.6417126987518,-299.693517868587
738533.42098939814604818821,-3.85891293069246,-14.6786400952177,-299.693517868587
738533.42098948860075324774,-3.85891293069246,-14.7063356425672,-299.71198156682
738533.42098957893904298544,-3.84044923245949,-14.6786400952177,-299.71198156682
738533.42098966939374804497,-3.75736259041108,-14.5216986602374,-299.684286019471
738533.42098975984845310450,-3.80352183599353,-14.5586260567034,-299.647358623005
738533.42098985030315816402,-3.74813074129459,-14.5216986602374,-299.675054170354
738533.42098994075786322355,-3.78505813776055,-14.5124668111209,-299.693517868587
738533.42099003109615296125,-3.77582628864406,-14.5216986602374,-299.675054170354
738533.42099012155085802078,-3.90507217627491,-14.6140171514023,-299.591967528306
738533.42099021200556308031,-3.85891293069246,-14.5770897549364,-299.684286019471
738533.42099030246026813984,-3.84044923245949,-14.5309305093539,-299.702749717704
738533.42099039291497319937,-3.96046327097385,-14.6509445478683,-299.693517868587
738533.42099048325326293707,-3.92353587450789,-14.5678579058199,-299.665822321238
738533.42099057370796799660,-3.85891293069246,-14.5124668111209,-299.748908963286
738533.42099066416267305613,-3.95123142185736,-14.5586260567034,-299.721213415937
738533.42099075461737811565,-3.93276772362438,-14.5309305093539,-299.684286019471
738533.42099084507208317518,-3.90507217627491,-14.4663075655385,-299.693517868587
738533.42099093552678823471,-3.9143040253914,-14.4293801690725,-299.675054170354
738533.42099102586507797241,-3.97892696920682,-14.3832209234901,-299.656590472121
738533.42099111631978303194,-3.84968108157598,-14.2447431867428,-299.656590472121
738533.42099120677448809147,-3.58195745719779,-14.0324106570635,-299.591967528306
738533.42099129722919315100,-3.28653828547014,-13.7369914853359,-299.518112735374
738533.42099138768389821053,-3.07420575579089,-13.7277596362194,-299.39809869686
738533.42099147802218794823,-2.52952665791803,-14.1985839411603,-299.361171300394
738533.42099156847689300776,-2.40951261940367,-14.8355815301981,-299.619663075655
738533.42099165893159806728,-3.05574205755791,-15.1310007019257,-299.71198156682
738533.42099174938630312681,-3.60965300454726,-15.0109866634114,-299.73967711417
738533.42099183984100818634,-3.831217383343,-14.6694082461013,-299.693517868587
738533.42099193029571324587,-3.77582628864406,-14.494003112888,-299.656590472121
738533.42099202063400298357,-3.831217383343,-14.438612018189,-299.665822321238
738533.42099211108870804310,-3.84968108157598,-14.4663075655385,-299.665822321238
738533.42099220154341310263,-3.88660847804193,-14.4663075655385,-299.628894924772
738533.42099229199811816216,-3.96046327097385,-14.5586260567034,-299.684286019471
738533.42099238245282322168,-3.88660847804193,-14.4847712637715,-299.610431226539
738533.42099247279111295938,-3.831217383343,-14.4478438673055,-299.619663075655
738533.42099256324581801891,-3.87737662892544,-14.494003112888,-299.573503830073
738533.42099265370052307844,-3.90507217627491,-14.5401623584704,-299.665822321238
738533.42099274415522813797,-3.82198553422651,-14.457075716422,-299.628894924772
738533.42099283460993319750,-3.9143040253914,-14.5309305093539,-299.610431226539
738533.42099292494822293520,-3.84044923245949,-14.4663075655385,-299.610431226539
738533.42099301540292799473,-3.79428998687704,-14.4016846217231,-299.610431226539
738533.42099310585763305426,-3.79428998687704,-14.4293801690725,-299.647358623005
738533.42099319631233811378,-3.80352183599353,-14.438612018189,-299.647358623005
738533.42099328676704317331,-3.84044923245949,-14.475539414655,-299.628894924772
738533.42099337722174823284,-3.81275368511002,-14.438612018189,-299.610431226539
738533.42099346756003797054,-3.82198553422651,-14.438612018189,-299.675054170354
738533.42099355801474303007,-3.71120334482864,-14.3462935270241,-299.656590472121
738533.42099364846944808960,-3.70197149571215,-14.3278298287912,-299.628894924772
738533.42099373892415314913,-3.61888485366375,-14.2170476393933,-299.656590472121
738533.42099382937885820866,-3.56349375896481,-14.1524246955779,-299.656590472121
738533.42099391971714794636,-3.59118930631428,-14.1801202429273,-299.656590472121
738533.42099401017185300589,-3.60042115543077,-14.1801202429273,-299.601199377422
738533.42099410062655806541,-3.49887081514939,-14.0878017517624,-299.647358623005
738533.42099419108126312494,-3.54503006073183,-14.1708883938108,-299.647358623005
738533.42099428153596818447,-3.51733451338237,-14.1985839411603,-299.582735679189
738533.42099437199067324400,-3.49887081514939,-14.1893520920438,-299.656590472121
738533.42099446232896298170,-3.54503006073183,-14.2724387340922,-299.610431226539
738533.42099455278366804123,-3.54503006073183,-14.2909024323252,-299.628894924772
738533.42099464323837310076,-3.5727256080813,-14.3278298287912,-299.591967528306
738533.42099473369307816029,-3.61888485366375,-14.3462935270241,-299.647358623005
738533.42099482414778321981,-3.68350779747917,-14.4201483199561,-299.610431226539
738533.42099491448607295752,-3.68350779747917,-14.3832209234901,-299.416562395093
738533.42099500494077801704,-3.60042115543077,-14.3278298287912,-299.462721640675
738533.42099509539548307657,-3.61888485366375,-14.3185979796747,-299.591967528306
738533.42099518585018813610,-3.79428998687704,-14.4663075655385,-299.610431226539
738533.42099527630489319563,-3.79428998687704,-14.457075716422,-299.628894924772
738533.42099536675959825516,-3.72966704306162,-14.4016846217231,-299.665822321238
738533.42099545709788799286,-3.67427594836268,-14.3462935270241,-299.656590472121
738533.42099554755259305239,-3.66504409924619,-14.3093661305582,-299.647358623005
738533.42099563800729811192,-3.74813074129459,-14.3924527726066,-299.656590472121
738533.42099572846200317144,-3.77582628864406,-14.4109164708396,-299.536576433607
738533.42099581891670823097,-3.72043519394513,-14.3832209234901,-299.582735679189
738533.42099590925499796867,-3.68350779747917,-14.3370616779077,-299.619663075655
738533.42099599970970302820,-3.71120334482864,-14.3832209234901,-299.573503830073
738533.42099609016440808773,-3.70197149571215,-14.3555253761406,-299.619663075655
738533.42099618061911314726,-3.68350779747917,-14.3647572252571,-299.628894924772
738533.42099627107381820679,-3.72966704306162,-14.4016846217231,-299.628894924772
738533.42099636141210794449,-3.84968108157598,-14.5216986602374,-299.647358623005
738533.42099645186681300402,-3.79428998687704,-14.438612018189,-299.628894924772
738533.42099654232151806355,-3.77582628864406,-14.4478438673055,-299.628894924772
738533.42099663277622312307,-3.72966704306162,-14.3832209234901,-299.619663075655
738533.42099672323092818260,-3.72043519394513,-14.4016846217231,-299.647358623005
738533.42099681368563324213,-3.76659443952757,-14.4109164708396,-299.638126773888
738533.42099690402392297983,-3.75736259041108,-14.4016846217231,-299.647358623005
738533.42099699447862803936,-3.68350779747917,-14.3462935270241,-299.610431226539
738533.42099708493333309889,-3.85891293069246,-14.5032349620045,-299.638126773888
738533.42099717538803815842,-3.82198553422651,-14.4663075655385,-299.675054170354
738533.42099726584274321795,-3.831217383343,-14.4663075655385,-299.693517868587
738533.42099735618103295565,-3.77582628864406,-14.4293801690725,-299.684286019471
738533.42099744663573801517,-3.75736259041108,-14.4016846217231,-299.693517868587
738533.42099753709044307470,-3.831217383343,-14.4663075655385,-299.665822321238
738533.42099762754514813423,-3.74813074129459,-14.3647572252571,-299.610431226539
738533.42099771799985319376,-3.69273964659566,-14.3278298287912,-299.675054170354
738533.42099780845455825329,-3.82198553422651,-14.4663075655385,-299.684286019471
738533.42099789879284799099,-3.71120334482864,-14.3739890743736,-299.693517868587
738533.42099798924755305052,-3.67427594836268,-14.3278298287912,-299.675054170354
738533.42099807970225811005,-3.74813074129459,-14.4293801690725,-299.693517868587
738533.42099817015696316957,-3.64658040101321,-14.3370616779077,-299.656590472121
738533.42099826061166822910,-3.73889889217811,-14.4293801690725,-299.638126773888
738533.42099835094995796680,-3.73889889217811,-14.4109164708396,-299.693517868587
738533.42099844140466302633,-3.74813074129459,-14.4201483199561,-299.536576433607
738533.42099853185936808586,-3.84044923245949,-14.5216986602374,-299.564271980956
738533.42099862231407314539,-3.84044923245949,-14.5216986602374,-299.702749717704
738533.42099871276877820492,-3.80352183599353,-14.494003112888,-299.73967711417
738533.42099880322348326445,-3.81275368511002,-14.475539414655,-299.693517868587
738533.42099889356177300215,-3.84044923245949,-14.5216986602374,-299.675054170354
738533.42099898401647806168,-3.85891293069246,-14.5216986602374,-299.71198156682
738533.42099907447118312120,-3.84044923245949,-14.5124668111209,-299.730445265053
738533.42099916492588818073,-3.85891293069246,-14.5124668111209,-299.647358623005
738533.42099925538059324026,-3.78505813776055,-14.4478438673055,-299.610431226539
738533.42099934571888297796,-3.87737662892544,-14.494003112888,-299.610431226539
738533.42099943617358803749,-3.97892696920682,-14.5216986602374,-299.693517868587
738533.42099952662829309702,-3.70197149571215,-14.2909024323252,-299.665822321238
738533.42099961708299815655,-3.28653828547014,-13.9308603167821,-299.52734458449
738533.42099970753770321608,-2.90803247169408,-13.7739188818018,-299.462721640675
738533.42099979787599295378,-2.51106295968505,-14.4201483199561,-299.55504013184
738533.42099988833069801331,-2.60338145084994,-15.1217688528092,-299.730445265053
738533.42099997878540307283,-3.1480605487228,-15.287942136906,-299.776604510636
738533.42100006924010813236,-3.64658040101321,-15.1033051545762,-299.831995605335
738533.42100015969481319189,-3.89584032715842,-14.8448133793146,-299.776604510636
738533.42100025014951825142,-3.74813074129459,-14.5586260567034,-299.675054170354
738533.42100034048780798912,-3.79428998687704,-14.4847712637715,-299.702749717704
738533.42100043094251304865,-3.79428998687704,-14.4663075655385,-299.693517868587
738533.42100052139721810818,-3.90507217627491,-14.5216986602374,-299.647358623005
738533.42100061185192316771,-3.88660847804193,-14.5124668111209,-299.665822321238
738533.42100070230662822723,-3.831217383343,-14.438612018189,-299.71198156682
738533.42100079264491796494,-3.86814477980895,-14.4663075655385,-299.73967711417
738533.42100088309962302446,-3.831217383343,-14.4293801690725,-299.647358623005
738533.42100097355432808399,-3.79428998687704,-14.3832209234901,-299.647358623005
738533.42100106400903314352,-3.73889889217811,-14.3278298287912,-299.601199377422
738533.42100115446373820305,-3.75736259041108,-14.3462935270241,-299.610431226539
738533.42100124491844326258,-3.84968108157598,-14.4201483199561,-299.610431226539
738533.42100133525673300028,-3.84044923245949,-14.4016846217231,-299.656590472121
738533.42100142571143805981,-3.87737662892544,-14.4478438673055,-299.638126773888
738533.42100151616614311934,-3.90507217627491,-14.494003112888,-299.684286019471
738533.42100160662084817886,-3.831217383343,-14.438612018189,-299.628894924772
738533.42100169707555323839,-3.76659443952757,-14.3832209234901,-299.71198156682
738533.42100178741384297609,-3.62811670278024,-14.2909024323252,-299.684286019471
738533.42100187786854803562,-3.71120334482864,-14.3832209234901,-299.601199377422
738533.42100196832325309515,-3.62811670278024,-14.3185979796747,-299.444257942442
738533.42100205877795815468,-3.55426190984832,-14.1893520920438,-299.508880886257
738533.42100214923266321421,-3.58195745719779,-14.2170476393933,-299.564271980956
738533.42100223957095295191,-3.60042115543077,-14.1893520920438,-299.55504013184
738533.42100233002565801144,-3.5727256080813,-14.1708883938108,-299.619663075655
738533.42100242048036307096,-3.38808862575152,-13.9770195623646,-299.610431226539
738533.42100251093506813049,-3.39732047486801,-13.9954832605976,-299.601199377422
738533.42100260138977319002,-3.55426190984832,-14.1708883938108,-299.601199377422
738533.42100269184447824955,-3.52656636249886,-14.1801202429273,-299.638126773888
738533.42100278218276798725,-3.52656636249886,-14.2170476393933,-299.665822321238
738533.42100287263747304678,-3.53579821161534,-14.2262794885098,-299.619663075655
738533.42100296309217810631,-3.54503006073183,-14.2724387340922,-299.684286019471
738533.42100305354688316584,-3.60042115543077,-14.3278298287912,-299.693517868587
738533.42100314400158822536,-3.56349375896481,-14.3370616779077,-299.638126773888
738533.42100323433987796307,-3.61888485366375,-14.3739890743736,-299.702749717704
738533.42100332479458302259,-3.72043519394513,-14.494003112888,-299.730445265053
738533.42100341524928808212,-3.77582628864406,-14.5124668111209,-299.647358623005
738533.42100350570399314165,-3.75736259041108,-14.5032349620045,-299.702749717704
738533.42100359615869820118,-3.76659443952757,-14.475539414655,-299.665822321238
738533.42100368661340326071,-3.77582628864406,-14.494003112888,-299.573503830073
738533.42100377695169299841,-3.77582628864406,-14.457075716422,-299.610431226539
738533.42100386740639805794,-3.72966704306162,-14.4293801690725,-299.656590472121
738533.42100395786110311747,-3.75736259041108,-14.4201483199561,-299.628894924772
738533.42100404831580817699,-3.68350779747917,-14.3647572252571,-299.647358623005
738533.42100413877051323652,-3.72966704306162,-14.4016846217231,-299.610431226539
738533.42100422910880297422,-3.74813074129459,-14.4201483199561,-299.628894924772
738533.42100431956350803375,-3.70197149571215,-14.3739890743736,-299.619663075655
738533.42100441001821309328,-3.78505813776055,-14.457075716422,-299.619663075655
738533.42100450047291815281,-3.80352183599353,-14.494003112888,-299.638126773888
738533.42100459092762321234,-3.75736259041108,-14.438612018189,-299.619663075655
738533.42100468138232827187,-3.68350779747917,-14.4016846217231,-299.675054170354
738533.42100477172061800957,-3.67427594836268,-14.3924527726066,-299.675054170354
738533.42100486217532306910,-3.77582628864406,-14.5216986602374,-299.656590472121
738533.42100495263002812862,-3.84968108157598,-14.5678579058199,-299.628894924772
738533.42100504308473318815,-3.76659443952757,-14.494003112888,-299.656590472121
738533.42100513353943824768,-3.82198553422651,-14.5216986602374,-299.656590472121
738533.42100522387772798538,-3.85891293069246,-14.5493942075869,-299.665822321238
738533.42100531433243304491,-3.77582628864406,-14.4663075655385,-299.638126773888
738533.42100540478713810444,-3.74813074129459,-14.4478438673055,-299.693517868587
738533.42100549524184316397,-3.77582628864406,-14.438612018189,-299.536576433607
738533.42100558569654822350,-3.75736259041108,-14.4293801690725,-299.545808282723
738533.42100567603483796120,-3.72043519394513,-14.3832209234901,-299.628894924772
738533.42100576648954302073,-3.81275368511002,-14.4663075655385,-299.638126773888
738533.42100585694424808025,-3.64658040101321,-14.3001342814417,-299.647358623005
738533.42100594739895313978,-3.72043519394513,-14.3739890743736,-299.628894924772
738533.42100603785365819931,-3.74813074129459,-14.3924527726066,-299.601199377422
738533.42100612830836325884,-3.66504409924619,-14.3001342814417,-299.591967528306
738533.42100621864665299654,-3.5727256080813,-14.2355113376263,-299.582735679189
738533.42100630910135805607,-3.55426190984832,-14.1985839411603,-299.55504013184
738533.42100639955606311560,-3.71120334482864,-14.3647572252571,-299.591967528306
738533.42100649001076817513,-3.80352183599353,-14.438612018189,-299.619663075655
738533.42100658046547323465,-3.95123142185736,-14.6047853022858,-299.619663075655
738533.42100667080376297235,-3.9143040253914,-14.5678579058199,-299.702749717704
738533.42100676125846803188,-3.85891293069246,-14.5401623584704,-299.684286019471
738533.42100685171317309141,-3.82198553422651,-14.5032349620045,-299.684286019471
738533.42100694216787815094,-3.84044923245949,-14.5216986602374,-299.675054170354
738533.42100703262258321047,-3.81275368511002,-14.4847712637715,-299.665822321238
738533.42100712307728827000,-3.81275368511002,-14.5032349620045,-299.684286019471
738533.42100721341557800770,-3.80352183599353,-14.475539414655,-299.684286019471
738533.42100730387028306723,-3.55426190984832,-14.2355113376263,-299.628894924772
738533.42100739432498812675,-3.84044923245949,-14.5032349620045,-299.684286019471
738533.42100748477969318628,-3.90507217627491,-14.457075716422,-299.721213415937
738533.42100757523439824581,-3.88660847804193,-14.438612018189,-299.684286019471
738533.42100766557268798351,-3.5727256080813,-14.1616565446944,-299.55504013184
738533.42100775602739304304,-3.15729239783929,-13.7646870326853,-299.471953489792
738533.42100784648209810257,-2.54799035615101,-13.9770195623646,-299.499649037141
738533.42100793693680316210,-2.44644001586962,-14.8263496810816,-299.55504013184
738533.42100802739150822163,-2.68646809289834,-15.1217688528092,-299.684286019471
738533.42100811772979795933,-3.30500198370312,-15.306405835139,-299.813531907102
738533.42100820818450301886,-3.62811670278024,-14.9648274178289,-299.730445265053
738533.42100829863920807838,-3.76659443952757,-14.6694082461013,-299.656590472121
738533.42100838909391313791,-3.74813074129459,-14.494003112888,-299.601199377422
738533.42100847954861819744,-3.78505813776055,-14.438612018189,-299.647358623005
738533.42100857000332325697,-3.75736259041108,-14.3924527726066,-299.656590472121
738533.42100866034161299467,-3.80352183599353,-14.4109164708396,-299.582735679189
738533.42100875079631805420,-3.89584032715842,-14.494003112888,-299.601199377422
738533.42100884125102311373,-3.89584032715842,-14.475539414655,-299.601199377422
738533.42100893170572817326,-3.84968108157598,-14.4293801690725,-299.638126773888
738533.42100902216043323278,-3.79428998687704,-14.3739890743736,-299.545808282723
738533.42100911249872297049,-3.87737662892544,-14.457075716422,-299.582735679189
738533.42100920295342803001,-3.81275368511002,-14.3647572252571,-299.638126773888
738533.42100929340813308954,-3.79428998687704,-14.3739890743736,-299.665822321238
738533.42100938386283814907,-3.77582628864406,-14.3370616779077,-299.638126773888
738533.42100947431754320860,-3.86814477980895,-14.438612018189,-299.573503830073
738533.42100956477224826813,-3.77582628864406,-14.3278298287912,-299.573503830073
738533.42100965511053800583,-3.69273964659566,-14.2632068849757,-299.536576433607
738533.42100974556524306536,-3.71120334482864,-14.2447431867428,-299.55504013184
738533.42100983601994812489,-3.72043519394513,-14.2539750358592,-299.55504013184
738533.42100992647465318441,-3.77582628864406,-14.2909024323252,-299.591967528306
738533.42101001692935824394,-3.64658040101321,-14.1524246955779,-299.601199377422
738533.42101010726764798164,-3.55426190984832,-14.078569902646,-299.545808282723
738533.42101019772235304117,-3.60965300454726,-14.0878017517624,-299.545808282723
738533.42101028817705810070,-3.67427594836268,-14.1524246955779,-299.536576433607
738533.42101037863176316023,-3.60965300454726,-14.078569902646,-299.52734458449
738533.42101046908646821976,-3.52656636249886,-14.023178807947,-299.499649037141
738533.42101055954117327929,-3.51733451338237,-14.0139469588305,-299.453489791559
738533.42101064987946301699,-3.43424787133396,-13.9677877132481,-299.499649037141
738533.42101074033416807652,-3.41578417310099,-13.9677877132481,-299.490417188025
738533.42101083078887313604,-3.52656636249886,-14.1247291482284,-299.55504013184
738533.42101092124357819557,-3.66504409924619,-14.2724387340922,-299.55504013184
738533.42101101169828325510,-3.5727256080813,-14.2170476393933,-299.591967528306
738533.42101110203657299280,-3.61888485366375,-14.2355113376263,-299.628894924772
738533.42101119249127805233,-3.69273964659566,-14.3370616779077,-299.591967528306
738533.42101128294598311186,-3.69273964659566,-14.3278298287912,-299.647358623005
738533.42101137340068817139,-3.60042115543077,-14.2447431867428,-299.619663075655
738533.42101146385539323092,-3.71120334482864,-14.3462935270241,-299.582735679189
738533.42101155419368296862,-3.84044923245949,-14.475539414655,-299.647358623005
738533.42101164464838802814,-3.72966704306162,-14.3647572252571,-299.647358623005
738533.42101173510309308767,-3.74813074129459,-14.3647572252571,-299.628894924772
738533.42101182555779814720,-3.73889889217811,-14.3739890743736,-299.591967528306
738533.42101191601250320673,-3.831217383343,-14.438612018189,-299.656590472121
738533.42101200646720826626,-3.68350779747917,-14.3185979796747,-299.638126773888
738533.42101209680549800396,-3.76659443952757,-14.3739890743736,-299.536576433607
738533.42101218726020306349,-3.69273964659566,-14.3278298287912,-299.582735679189
738533.42101227771490812302,-3.831217383343,-14.4293801690725,-299.573503830073
738533.42101236816961318254,-3.74813074129459,-14.3832209234901,-299.591967528306
738533.42101245862431824207,-3.84044923245949,-14.4478438673055,-299.564271980956
738533.42101254896260797977,-3.831217383343,-14.4663075655385,-299.481185338908
738533.42101263941731303930,-3.79428998687704,-14.4293801690725,-299.518112735374
738533.42101272987201809883,-3.74813074129459,-14.4109164708396,-299.601199377422
738533.42101282032672315836,-3.6558122501297,-14.3370616779077,-299.536576433607
738533.42101291078142821789,-3.77582628864406,-14.4663075655385,-299.591967528306
738533.42101300123613327742,-3.77582628864406,-14.4663075655385,-299.601199377422
738533.42101309157442301512,-3.79428998687704,-14.4847712637715,-299.619663075655
738533.42101318202912807465,-3.86814477980895,-14.5401623584704,-299.638126773888
738533.42101327248383313417,-3.80352183599353,-14.457075716422,-299.647358623005
738533.42101336293853819370,-3.88660847804193,-14.5309305093539,-299.601199377422
738533.42101345339324325323,-3.81275368511002,-14.438612018189,-299.638126773888
738533.42101354373153299093,-3.77582628864406,-14.4109164708396,-299.665822321238
738533.42101363418623805046,-3.68350779747917,-14.3093661305582,-299.564271980956
738533.42101372464094310999,-3.78505813776055,-14.4109164708396,-299.545808282723
738533.42101381509564816952,-3.84044923245949,-14.4478438673055,-299.55504013184
738533.42101390555035322905,-3.69273964659566,-14.3278298287912,-299.52734458449
738533.42101399588864296675,-3.74813074129459,-14.3832209234901,-299.582735679189
738533.42101408634334802628,-3.82198553422651,-14.438612018189,-299.536576433607
738533.42101417679805308580,-3.69273964659566,-14.3185979796747,-299.518112735374
738533.42101426725275814533,-3.73889889217811,-14.3647572252571,-299.518112735374
738533.42101435770746320486,-3.67427594836268,-14.3093661305582,-299.52734458449
738533.42101444816216826439,-3.72966704306162,-14.3647572252571,-299.582735679189
738533.42101453850045800209,-3.86814477980895,-14.494003112888,-299.564271980956
738533.42101462895516306162,-3.84044923245949,-14.4478438673055,-299.610431226539
738533.42101471940986812115,-3.81275368511002,-14.457075716422,-299.628894924772
738533.42101480986457318068,-3.86814477980895,-14.4847712637715,-299.628894924772
738533.42101490031927824020,-3.76659443952757,-14.4109164708396,-299.610431226539
738533.42101499065756797791,-3.84968108157598,-14.4847712637715,-299.665822321238
738533.42101508111227303743,-3.87737662892544,-14.5124668111209,-299.619663075655
738533.42101517156697809696,-3.74813074129459,-14.3739890743736,-299.601199377422
738533.42101526202168315649,-3.81275368511002,-14.4478438673055,-299.628894924772
738533.42101535247638821602,-3.831217383343,-14.457075716422,-299.628894924772
738533.42101544293109327555,-3.88660847804193,-14.494003112888,-299.601199377422
738533.42101553326938301325,-3.93276772362438,-14.457075716422,-299.628894924772
738533.42101562372408807278,-3.831217383343,-14.3555253761406,-299.638126773888
738533.42101571417879313231,-3.51733451338237,-14.0878017517624,-299.508880886257
738533.42101580463349819183,-3.2311471907712,-13.7831507309183,-299.342707602161
738533.42101589508820325136,-2.59414960173345,-14.0324106570635,-299.453489791559
738533.42101598542649298906,-2.45567186498611,-14.7894222846156,-299.610431226539
738533.42101607588119804859,-3.04651020844142,-15.287942136906,-299.647358623005
738533.42101616633590310812,-3.48040711691641,-15.1217688528092,-299.619663075655
738533.42101625679060816765,-3.74813074129459,-14.7894222846156,-299.684286019471
738533.42101634724531322718,-3.86814477980895,-14.6694082461013,-299.628894924772
738533.42101643770001828671,-3.86814477980895,-14.5678579058199,-299.628894924772
738533.42101652803830802441,-3.831217383343,-14.4663075655385,-299.638126773888
738533.42101661849301308393,-3.87737662892544,-14.5124668111209,-299.675054170354
738533.42101670894771814346,-3.81275368511002,-14.4016846217231,-299.610431226539
738533.42101679940242320299,-3.88660847804193,-14.4663075655385,-299.582735679189
738533.42101688985712826252,-3.831217383343,-14.4109164708396,-299.582735679189
738533.42101698019541800022,-3.87737662892544,-14.4478438673055,-299.647358623005
738533.42101707065012305975,-3.75736259041108,-14.3093661305582,-299.55504013184
738533.42101716110482811928,-3.82198553422651,-14.4016846217231,-299.619663075655
738533.42101725155953317881,-3.87737662892544,-14.438612018189,-299.638126773888
738533.42101734201423823833,-3.85891293069246,-14.4016846217231,-299.564271980956
738533.42101743235252797604,-3.85891293069246,-14.4109164708396,-299.573503830073
738533.42101752280723303556,-3.86814477980895,-14.4016846217231,-299.481185338908
738533.42101761326193809509,-3.73889889217811,-14.2816705832087,-299.499649037141
738533.42101770371664315462,-3.79428998687704,-14.3093661305582,-299.481185338908
738533.42101779417134821415,-3.79428998687704,-14.3185979796747,-299.462721640675
738533.42101788462605327368,-3.77582628864406,-14.2724387340922,-299.462721640675
738533.42101797496434301138,-3.67427594836268,-14.1801202429273,-299.453489791559
738533.42101806541904807091,-3.64658040101321,-14.1154972991119,-299.435026093326
738533.42101815587375313044,-3.69273964659566,-14.1524246955779,-299.462721640675
738533.42101824632845818996,-3.70197149571215,-14.1339609973449,-299.453489791559
738533.42101833678316324949,-3.62811670278024,-14.0693380535295,-299.490417188025
738533.42101842712145298719,-3.52656636249886,-13.9493240150151,-299.481185338908
738533.42101851757615804672,-3.5727256080813,-14.023178807947,-299.462721640675
738533.42101860803086310625,-3.59118930631428,-14.0693380535295,-299.471953489792
738533.42101869848556816578,-3.55426190984832,-14.060106204413,-299.481185338908
738533.42101878894027322531,-3.4896389660329,-14.023178807947,-299.490417188025
738533.42101887939497828484,-3.54503006073183,-14.1339609973449,-299.435026093326
738533.42101896973326802254,-3.60965300454726,-14.2078157902768,-299.508880886257
738533.42101906018797308207,-3.55426190984832,-14.1801202429273,-299.545808282723
738533.42101915064267814159,-3.5727256080813,-14.2078157902768,-299.55504013184
738533.42101924109738320112,-3.71120334482864,-14.3462935270241,-299.55504013184
738533.42101933155208826065,-3.72966704306162,-14.3832209234901,-299.610431226539
738533.42101942189037799835,-3.72043519394513,-14.3647572252571,-299.601199377422
738533.42101951234508305788,-3.74813074129459,-14.4016846217231,-299.536576433607
738533.42101960279978811741,-3.77582628864406,-14.4201483199561,-299.518112735374
738533.42101969325449317694,-3.80352183599353,-14.4478438673055,-299.490417188025
738533.42101978370919823647,-3.68350779747917,-14.3370616779077,-299.536576433607
738533.42101987416390329599,-3.74813074129459,-14.4109164708396,-299.610431226539
738533.42101996450219303370,-3.78505813776055,-14.4201483199561,-299.591967528306
738533.42102005495689809322,-3.69273964659566,-14.3462935270241,-299.518112735374
738533.42102014541160315275,-3.76659443952757,-14.4109164708396,-299.545808282723
738533.42102023586630821228,-3.81275368511002,-14.4478438673055,-299.545808282723
738533.42102032632101327181,-3.81275368511002,-14.438612018189,-299.536576433607
738533.42102041665930300951,-3.76659443952757,-14.3924527726066,-299.536576433607
738533.42102050711400806904,-3.70197149571215,-14.3370616779077,-299.536576433607
738533.42102059756871312857,-3.72043519394513,-14.3462935270241,-299.545808282723
738533.42102068802341818810,-3.81275368511002,-14.457075716422,-299.508880886257
738533.42102077847812324762,-3.81275368511002,-14.438612018189,-299.545808282723
738533.42102086881641298532,-3.79428998687704,-14.438612018189,-299.536576433607
738533.42102095927111804485,-3.76659443952757,-14.3924527726066,-299.481185338908
738533.42102104972582310438,-3.82198553422651,-14.4663075655385,-299.490417188025
738533.42102114018052816391,-3.80352183599353,-14.438612018189,-299.453489791559
738533.42102123063523322344,-3.77582628864406,-14.4201483199561,-299.481185338908
738533.42102132108993828297,-3.80352183599353,-14.4293801690725,-299.453489791559
738533.42102141142822802067,-3.73889889217811,-14.3739890743736,-299.462721640675
738533.42102150188293308020,-3.69273964659566,-14.3278298287912,-299.462721640675
738533.42102159233763813972,-3.79428998687704,-14.4293801690725,-299.490417188025
738533.42102168279234319925,-3.84968108157598,-14.475539414655,-299.499649037141
738533.42102177324704825878,-3.831217383343,-14.4478438673055,-299.508880886257
738533.42102186358533799648,-3.77582628864406,-14.4201483199561,-299.536576433607
738533.42102195404004305601,-3.831217383343,-14.457075716422,-299.499649037141
738533.42102204449474811554,-3.74813074129459,-14.3832209234901,-299.518112735374
738533.42102213494945317507,-3.71120334482864,-14.3370616779077,-299.471953489792
738533.42102222540415823460,-3.64658040101321,-14.2909024323252,-299.508880886257
738533.42102231585886329412,-3.69273964659566,-14.3185979796747,-299.471953489792
738533.42102240619715303183,-3.70197149571215,-14.3555253761406,-299.564271980956
738533.42102249665185809135,-3.71120334482864,-14.3370616779077,-299.462721640675
738533.42102258710656315088,-3.72966704306162,-14.3555253761406,-299.536576433607
738533.42102267756126821041,-3.831217383343,-14.4478438673055,-299.564271980956
738533.42102276801597326994,-3.89584032715842,-14.5401623584704,-299.573503830073
738533.42102285835426300764,-3.88660847804193,-14.5216986602374,-299.536576433607
738533.42102294880896806717,-3.831217383343,-14.4478438673055,-299.573503830073
738533.42102303926367312670,-3.72966704306162,-14.3647572252571,-299.601199377422
738533.42102312971837818623,-3.88660847804193,-14.494003112888,-299.453489791559
738533.42102322017308324575,-3.87737662892544,-14.494003112888,-299.471953489792
738533.42102331051137298346,-3.78505813776055,-14.4016846217231,-299.564271980956
738533.42102340096607804298,-3.76659443952757,-14.3739890743736,-299.545808282723
738533.42102349142078310251,-3.93276772362438,-14.475539414655,-299.582735679189
738533.42102358187548816204,-4.01585436567278,-14.5032349620045,-299.601199377422
738533.42102367233019322157,-3.71120334482864,-14.2447431867428,-299.536576433607
738533.42102376278489828110,-3.41578417310099,-13.9216284676656,-299.435026093326
738533.42102385312318801880,-2.97265541550951,-13.7923825800348,-299.407330545976
738533.42102394357789307833,-2.45567186498611,-14.3647572252571,-299.471953489792
738533.42102403403259813786,-2.62184514908292,-15.0109866634114,-299.638126773888
738533.42102412448730319738,-3.24961088900418,-15.2602465895566,-299.748908963286
738533.42102421494200825691,-3.6558122501297,-15.0109866634114,-299.71198156682
738533.42102430528029799461,-3.72966704306162,-14.6417126987518,-299.601199377422
738533.42102439573500305414,-3.72966704306162,-14.475539414655,-299.564271980956
738533.42102448618970811367,-3.831217383343,-14.5032349620045,-299.573503830073
738533.42102457664441317320,-3.81275368511002,-14.4478438673055,-299.52734458449
738533.42102466709911823273,-3.82198553422651,-14.4293801690725,-299.55504013184
738533.42102475755382329226,-3.9143040253914,-14.5309305093539,-299.564271980956
738533.42102484789211302996,-3.87737662892544,-14.457075716422,-299.55504013184
738533.42102493834681808949,-3.85891293069246,-14.4478438673055,-299.52734458449
738533.42102502880152314901,-3.79428998687704,-14.3647572252571,-299.536576433607
738533.42102511925622820854,-3.78505813776055,-14.3832209234901,-299.55504013184
738533.42102520971093326807,-3.84968108157598,-14.4293801690725,-299.425794244209
738533.42102530004922300577,-3.78505813776055,-14.3739890743736,-299.536576433607
738533.42102539050392806530,-3.73889889217811,-14.3001342814417,-299.52734458449
738533.42102548095863312483,-3.84044923245949,-14.4016846217231,-299.52734458449
738533.42102557141333818436,-3.78505813776055,-14.3370616779077,-299.490417188025
738533.42102566186804324389,-3.71120334482864,-14.2724387340922,-299.508880886257
738533.42102575232274830341,-3.76659443952757,-14.3001342814417,-299.508880886257
738533.42102584266103804111,-3.79428998687704,-14.3185979796747,-299.453489791559
738533.42102593311574310064,-3.73889889217811,-14.2355113376263,-299.499649037141
738533.42102602357044816017,-3.70197149571215,-14.1893520920438,-299.444257942442
738533.42102611402515321970,-3.61888485366375,-14.0970336008789,-299.407330545976
738533.42102620447985827923,-3.58195745719779,-14.04164250618,-299.416562395093
738533.42102629481814801693,-3.44347972045045,-13.8939329203162,-299.39809869686
738533.42102638527285307646,-3.5727256080813,-14.023178807947,-299.444257942442
738533.42102647572755813599,-3.60965300454726,-14.0693380535295,-299.444257942442
738533.42102656618226319551,-3.58195745719779,-14.04164250618,-299.388866847743
738533.42102665663696825504,-3.55426190984832,-14.0508743552965,-299.39809869686
738533.42102674697525799274,-3.50810266426588,-14.0139469588305,-299.250389110996
738533.42102683742996305227,-3.49887081514939,-14.060106204413,-299.435026093326
738533.42102692788466811180,-3.51733451338237,-14.078569902646,-299.471953489792
738533.42102701833937317133,-3.52656636249886,-14.1247291482284,-299.444257942442
738533.42102710879407823086,-3.54503006073183,-14.1616565446944,-299.435026093326
738533.42102719924878329039,-3.51733451338237,-14.1524246955779,-299.444257942442
738533.42102728958707302809,-3.60042115543077,-14.2355113376263,-299.490417188025
738533.42102738004177808762,-3.67427594836268,-14.3093661305582,-299.453489791559
738533.42102747049648314714,-3.75736259041108,-14.3924527726066,-299.545808282723
738533.42102756095118820667,-3.77582628864406,-14.4109164708396,-299.545808282723
738533.42102765140589326620,-3.76659443952757,-14.4201483199561,-299.536576433607
738533.42102774174418300390,-3.73889889217811,-14.3924527726066,-299.55504013184
738533.42102783219888806343,-3.77582628864406,-14.4109164708396,-299.508880886257
738533.42102792265359312296,-3.77582628864406,-14.4016846217231,-299.471953489792
738533.42102801310829818249,-3.73889889217811,-14.3832209234901,-299.462721640675
738533.42102810356300324202,-3.70197149571215,-14.3278298287912,-299.481185338908
738533.42102819401770830154,-3.60965300454726,-14.2724387340922,-299.471953489792
738533.42102828435599803925,-3.69273964659566,-14.3370616779077,-299.564271980956
738533.42102837481070309877,-3.76659443952757,-14.4293801690725,-299.564271980956
738533.42102846526540815830,-3.73889889217811,-14.4016846217231,-299.545808282723
738533.42102855572011321783,-3.78505813776055,-14.438612018189,-299.610431226539
738533.42102864617481827736,-3.76659443952757,-14.4201483199561,-299.564271980956
738533.42102873651310801506,-3.70197149571215,-14.3555253761406,-299.55504013184
738533.42102882696781307459,-3.72966704306162,-14.3739890743736,-299.573503830073
738533.42102891742251813412,-3.72043519394513,-14.3462935270241,-299.435026093326
738533.42102900787722319365,-3.71120334482864,-14.3647572252571,-299.52734458449
738533.42102909833192825317,-3.74813074129459,-14.3832209234901,-299.518112735374
738533.42102918867021799088,-3.79428998687704,-14.4478438673055,-299.499649037141
738533.42102927912492305040,-3.82198553422651,-14.438612018189,-299.52734458449
738533.42102936957962810993,-3.73889889217811,-14.3832209234901,-299.536576433607
738533.42102946003433316946,-3.72043519394513,-14.3370616779077,-299.508880886257
738533.42102955048903822899,-3.76659443952757,-14.3924527726066,-299.490417188025
738533.42102964094374328852,-3.76659443952757,-14.3739890743736,-299.499649037141
738533.42102973128203302622,-3.79428998687704,-14.4201483199561,-299.55504013184
738533.42102982173673808575,-3.80352183599353,-14.4109164708396,-299.490417188025
738533.42102991219144314528,-3.73889889217811,-14.3739890743736,-299.490417188025
738533.42103000264614820480,-3.72966704306162,-14.3278298287912,-299.481185338908
738533.42103009310085326433,-3.67427594836268,-14.3093661305582,-299.508880886257
738533.42103018343914300203,-3.60042115543077,-14.2170476393933,-299.462721640675
738533.42103027389384806156,-3.56349375896481,-14.1893520920438,-299.333475753044
738533.42103036434855312109,-3.60042115543077,-14.2447431867428,-299.481185338908
738533.42103045480325818062,-3.70197149571215,-14.3462935270241,-299.55504013184
738533.42103054525796324015,-3.71120334482864,-14.3739890743736,-299.545808282723
738533.42103063571266829967,-3.76659443952757,-14.4016846217231,-299.55504013184
738533.42103072605095803738,-3.81275368511002,-14.4663075655385,-299.55504013184
738533.42103081650566309690,-3.79428998687704,-14.4293801690725,-299.545808282723
738533.42103090696036815643,-3.76659443952757,-14.438612018189,-299.591967528306
738533.42103099741507321596,-3.76659443952757,-14.4109164708396,-299.490417188025
738533.42103108786977827549,-3.81275368511002,-14.4663075655385,-299.545808282723
738533.42103117820806801319,-3.76659443952757,-14.4201483199561,-299.545808282723
738533.42103126866277307272,-3.75736259041108,-14.4293801690725,-299.582735679189
738533.42103135911747813225,-3.80352183599353,-14.4478438673055,-299.610431226539
738533.42103144957218319178,-3.84968108157598,-14.457075716422,-299.582735679189
738533.42103154002688825130,-3.86814477980895,-14.3924527726066,-299.536576433607
738533.42103163048159331083,-3.70197149571215,-14.2816705832087,-299.545808282723
738533.42103172081988304853,-3.32346568193609,-13.9031647694327,-299.462721640675
738533.42103181127458810806,-2.91726432081057,-13.607745597705,-299.37040314951
738533.42103190172929316759,-2.50183111056856,-14.1985839411603,-299.471953489792
738533.42103199218399822712,-2.54799035615101,-14.9555955687124,-299.508880886257
738533.42103208263870328665,-2.79725028229621,-15.1494644001587,-299.675054170354
738533.42103217297699302435,-3.33269753105258,-15.1679280983917,-299.665822321238
738533.42103226343169808388,-3.69273964659566,-14.90943632313,-299.665822321238
738533.42103235388640314341,-3.76659443952757,-14.6232490005188,-299.647358623005
738533.42103244434110820293,-3.74813074129459,-14.4847712637715,-299.573503830073
738533.42103253479581326246,-3.74813074129459,-14.4109164708396,-299.573503830073
738533.42103262513410300016,-3.74813074129459,-14.4016846217231,-299.610431226539
738533.42103271558880805969,-3.77582628864406,-14.3924527726066,-299.573503830073
738533.42103280604351311922,-3.75736259041108,-14.3739890743736,-299.573503830073
738533.42103289649821817875,-3.77582628864406,-14.3555253761406,-299.573503830073
738533.42103298695292323828,-3.81275368511002,-14.3924527726066,-299.628894924772
738533.42103307740762829781,-3.76659443952757,-14.3370616779077,-299.536576433607
738533.42103316774591803551,-3.78505813776055,-14.3555253761406,-299.610431226539
738533.42103325820062309504,-3.76659443952757,-14.3278298287912,-299.573503830073
738533.42103334865532815456,-3.74813074129459,-14.3001342814417,-299.536576433607
738533.42103343911003321409,-3.69273964659566,-14.2539750358592,-299.582735679189
738533.42103352956473827362,-3.70197149571215,-14.2447431867428,-299.518112735374
738533.42103361990302801132,-3.68350779747917,-14.2447431867428,-299.462721640675
738533.42103371035773307085,-3.72966704306162,-14.2539750358592,-299.278084658345
738533.42103380081243813038,-3.68350779747917,-14.2078157902768,-299.37040314951
738533.42103389126714318991,-3.67427594836268,-14.1801202429273,-299.444257942442
738533.42103398172184824944,-3.64658040101321,-14.1524246955779,-299.444257942442
738533.42103407217655330896,-3.60042115543077,-14.078569902646,-299.435026093326
738533.42103416251484304667,-3.51733451338237,-13.9862514114811,-299.444257942442
738533.42103425296954810619,-3.56349375896481,-14.004715109714,-299.471953489792
738533.42103434342425316572,-3.60042115543077,-14.04164250618,-299.444257942442
738533.42103443387895822525,-3.50810266426588,-13.9585558641316,-299.481185338908
738533.42103452433366328478,-3.45271156956694,-13.9216284676656,-299.444257942442
738533.42103461467195302248,-3.45271156956694,-13.9308603167821,-299.407330545976
738533.42103470512665808201,-3.46194341868343,-13.9585558641316,-299.444257942442
738533.42103479558136314154,-3.44347972045045,-13.9862514114811,-299.462721640675
738533.42103488603606820107,-3.45271156956694,-14.0324106570635,-299.462721640675
738533.42103497649077326059,-3.47117526779992,-14.078569902646,-299.481185338908
738533.42103506682906299829,-3.51733451338237,-14.1339609973449,-299.453489791559
738533.42103515728376805782,-3.55426190984832,-14.1893520920438,-299.490417188025
738533.42103524773847311735,-3.59118930631428,-14.2170476393933,-299.52734458449
738533.42103533819317817688,-3.59118930631428,-14.2539750358592,-299.518112735374
738533.42103542864788323641,-3.59118930631428,-14.2355113376263,-299.536576433607
738533.42103551910258829594,-3.6558122501297,-14.3093661305582,-299.564271980956
738533.42103560944087803364,-3.6558122501297,-14.2909024323252,-299.536576433607
738533.42103569989558309317,-3.64658040101321,-14.3185979796747,-299.481185338908
738533.42103579035028815269,-3.62811670278024,-14.3001342814417,-299.573503830073
738533.42103588080499321222,-3.61888485366375,-14.3001342814417,-299.545808282723
738533.42103597125969827175,-3.63734855189673,-14.3278298287912,-299.545808282723
738533.42103606159798800945,-3.68350779747917,-14.3832209234901,-299.619663075655
738533.42103615205269306898,-3.67427594836268,-14.3832209234901,-299.564271980956
738533.42103624250739812851,-3.66504409924619,-14.3832209234901,-299.545808282723
738533.42103633296210318804,-3.64658040101321,-14.3832209234901,-299.573503830073
738533.42103642341680824757,-3.6558122501297,-14.3739890743736,-299.582735679189
738533.42103651387151330709,-3.66504409924619,-14.4016846217231,-299.545808282723
738533.42103660420980304480,-3.6558122501297,-14.3739890743736,-299.573503830073
738533.42103669466450810432,-3.66504409924619,-14.4016846217231,-299.591967528306
738533.42103678511921316385,-3.6558122501297,-14.3739890743736,-299.52734458449
738533.42103687557391822338,-3.64658040101321,-14.3924527726066,-299.582735679189
738533.42103696602862328291,-3.67427594836268,-14.4109164708396,-299.591967528306
738533.42103705636691302061,-3.72043519394513,-14.457075716422,-299.536576433607
738533.42103714682161808014,-3.71120334482864,-14.4201483199561,-299.573503830073
738533.42103723727632313967,-3.71120334482864,-14.4293801690725,-299.416562395093
738533.42103732773102819920,-3.69273964659566,-14.3924527726066,-299.471953489792
738533.42103741818573325872,-3.69273964659566,-14.4109164708396,-299.573503830073
738533.42103750864043831825,-3.67427594836268,-14.3739890743736,-299.591967528306
738533.42103759897872805595,-3.67427594836268,-14.3739890743736,-299.610431226539
738533.42103768943343311548,-3.64658040101321,-14.3555253761406,-299.545808282723
738533.42103777988813817501,-3.66504409924619,-14.3462935270241,-299.591967528306
738533.42103787034284323454,-3.69273964659566,-14.3924527726066,-299.610431226539
738533.42103796079754829407,-3.68350779747917,-14.3555253761406,-299.545808282723
738533.42103805113583803177,-3.67427594836268,-14.3647572252571,-299.573503830073
738533.42103814159054309130,-3.58195745719779,-14.2539750358592,-299.582735679189
738533.42103823204524815083,-3.53579821161534,-14.2355113376263,-299.462721640675
738533.42103832249995321035,-3.5727256080813,-14.2262794885098,-299.52734458449
738533.42103841295465826988,-3.61888485366375,-14.3001342814417,-299.518112735374
738533.42103850329294800758,-3.68350779747917,-14.3462935270241,-299.462721640675
738533.42103859374765306711,-3.72043519394513,-14.3924527726066,-299.499649037141
738533.42103868420235812664,-3.71120334482864,-14.4016846217231,-299.499649037141
738533.42103877465706318617,-3.72966704306162,-14.438612018189,-299.508880886257
738533.42103886511176824570,-3.73889889217811,-14.4201483199561,-299.499649037141
738533.42103895556647330523,-3.75736259041108,-14.4016846217231,-299.564271980956
738533.42103904590476304293,-3.72043519394513,-14.3832209234901,-299.55504013184
738533.42103913635946810246,-3.75736259041108,-14.4109164708396,-299.518112735374
738533.42103922681417316198,-3.72966704306162,-14.4016846217231,-299.536576433607
738533.42103931726887822151,-3.73889889217811,-14.4109164708396,-299.490417188025
738533.42103940772358328104,-3.73889889217811,-14.3647572252571,-299.490417188025
738533.42103949806187301874,-3.74813074129459,-14.3462935270241,-299.508880886257
738533.42103958851657807827,-3.79428998687704,-14.3370616779077,-299.518112735374
738533.42103967897128313780,-3.61888485366375,-14.2078157902768,-299.490417188025
738533.42103976942598819733,-3.33269753105258,-13.8939329203162,-299.416562395093
738533.42103985988069325686,-2.8895687734611,-13.7369914853359,-299.315012054811
738533.42103995033539831638,-2.43720816675314,-14.3739890743736,-299.435026093326
738533.42104004067368805408,-2.61261329996643,-15.0386822107608,-299.582735679189
738533.42104013112839311361,-3.17575609607227,-15.2417828913236,-299.628894924772
738533.42104022158309817314,-3.54503006073183,-14.9648274178289,-299.693517868587
738533.42104031203780323267,-3.71120334482864,-14.6694082461013,-299.638126773888
738533.42104040249250829220,-3.70197149571215,-14.475539414655,-299.564271980956
738533.42104049283079802990,-3.75736259041108,-14.4478438673055,-299.55504013184
738533.42104058328550308943,-3.74813074129459,-14.4201483199561,-299.573503830073
738533.42104067374020814896,-3.76659443952757,-14.3924527726066,-299.55504013184
738533.42104076419491320848,-3.70197149571215,-14.3278298287912,-299.379634998627
738533.42104085464961826801,-3.72966704306162,-14.3278298287912,-299.490417188025
738533.42104094510432332754,-3.74813074129459,-14.3739890743736,-299.573503830073
738533.42104103544261306524,-3.79428998687704,-14.3832209234901,-299.508880886257
738533.42104112589731812477,-3.74813074129459,-14.3462935270241,-299.573503830073
738533.42104121635202318430,-3.73889889217811,-14.3093661305582,-299.582735679189
738533.42104130680672824383,-3.73889889217811,-14.3278298287912,-299.573503830073
738533.42104139726143330336,-3.70197149571215,-14.2816705832087,-299.518112735374
738533.42104148759972304106,-3.72966704306162,-14.3093661305582,-299.564271980956
738533.42104157805442810059,-3.71120334482864,-14.3001342814417,-299.564271980956
738533.42104166850913316011,-3.69273964659566,-14.2724387340922,-299.490417188025
738533.42104175896383821964,-3.6558122501297,-14.2355113376263,-299.536576433607
738533.42104184941854327917,-3.6558122501297,-14.2078157902768,-299.564271980956
738533.42104193975683301687,-3.62811670278024,-14.1616565446944,-299.435026093326
738533.42104203021153807640,-3.62811670278024,-14.1431928464614,-299.490417188025
738533.42104212066624313593,-3.59118930631428,-14.0970336008789,-299.518112735374
738533.42104221112094819546,-3.55426190984832,-14.0508743552965,-299.471953489792
738533.42104230157565325499,-3.50810266426588,-13.9954832605976,-299.435026093326
738533.42104239203035831451,-3.4896389660329,-13.9493240150151,-299.407330545976
738533.42104248236864805222,-3.45271156956694,-13.9585558641316,-299.416562395093
738533.42104257282335311174,-3.47117526779992,-13.9400921658986,-299.416562395093
738533.42104266327805817127,-3.4065523239845,-13.9216284676656,-299.425794244209
738533.42104275373276323080,-3.42501602221747,-13.9493240150151,-299.425794244209
738533.42104284418746829033,-3.41578417310099,-13.9954832605976,-299.425794244209
738533.42104293452575802803,-3.45271156956694,-14.060106204413,-299.416562395093
738533.42104302498046308756,-3.52656636249886,-14.1524246955779,-299.425794244209
738533.42104311543516814709,-3.54503006073183,-14.1708883938108,-299.407330545976
738533.42104320588987320662,-3.5727256080813,-14.2078157902768,-299.407330545976
738533.42104329634457826614,-3.60042115543077,-14.2447431867428,-299.416562395093
738533.42104338679928332567,-3.63734855189673,-14.2539750358592,-299.435026093326
738533.42104347713757306337,-3.60965300454726,-14.2816705832087,-299.462721640675
738533.42104356759227812290,-3.62811670278024,-14.2632068849757,-299.462721640675
738533.42104365804698318243,-3.64658040101321,-14.3093661305582,-299.490417188025
738533.42104374850168824196,-3.67427594836268,-14.3185979796747,-299.444257942442
738533.42104383895639330149,-3.67427594836268,-14.3370616779077,-299.518112735374
738533.42104392929468303919,-3.67427594836268,-14.3093661305582,-299.545808282723
738533.42104401974938809872,-3.66504409924619,-14.3278298287912,-299.462721640675
738533.42104411020409315825,-3.6558122501297,-14.2909024323252,-299.52734458449
738533.42104420065879821777,-3.61888485366375,-14.2816705832087,-299.490417188025
738533.42104429111350327730,-3.62811670278024,-14.2632068849757,-299.37040314951
738533.42104438145179301500,-3.71120334482864,-14.3739890743736,-299.416562395093
738533.42104447190649807453,-3.69273964659566,-14.3370616779077,-299.508880886257
738533.42104456236120313406,-3.69273964659566,-14.3555253761406,-299.55504013184
738533.42104465281590819359,-3.6558122501297,-14.3093661305582,-299.518112735374
738533.42104474327061325312,-3.67427594836268,-14.3370616779077,-299.490417188025
738533.42104483372531831264,-3.64658040101321,-14.3093661305582,-299.536576433607
738533.42104492406360805035,-3.69273964659566,-14.3555253761406,-299.536576433607
738533.42104501451831310987,-3.69273964659566,-14.3555253761406,-299.545808282723
738533.42104510497301816940,-3.70197149571215,-14.3370616779077,-299.518112735374
738533.42104519542772322893,-3.66504409924619,-14.3370616779077,-299.52734458449
738533.42104528588242828846,-3.66504409924619,-14.3185979796747,-299.518112735374
738533.42104537622071802616,-3.67427594836268,-14.3555253761406,-299.508880886257
738533.42104546667542308569,-3.68350779747917,-14.3462935270241,-299.536576433607
738533.42104555713012814522,-3.69273964659566,-14.3555253761406,-299.564271980956
738533.42104564758483320475,-3.68350779747917,-14.3370616779077,-299.481185338908
738533.42104573803953826427,-3.69273964659566,-14.3739890743736,-299.545808282723
738533.42104582849424332380,-3.68350779747917,-14.3370616779077,-299.536576433607
738533.42104591883253306150,-3.66504409924619,-14.3370616779077,-299.518112735374
738533.42104600928723812103,-3.61888485366375,-14.3001342814417,-299.499649037141
738533.42104609974194318056,-3.63734855189673,-14.3001342814417,-299.518112735374
738533.42104619019664824009,-3.5727256080813,-14.2355113376263,-299.481185338908
738533.42104628065135329962,-3.54503006073183,-14.2078157902768,-299.471953489792
738533.42104637098964303732,-3.5727256080813,-14.2262794885098,-299.508880886257
738533.42104646144434809685,-3.62811670278024,-14.2816705832087,-299.435026093326
738533.42104655189905315638,-3.64658040101321,-14.3093661305582,-299.435026093326
738533.42104664235375821590,-3.72043519394513,-14.3462935270241,-299.39809869686
738533.42104673280846327543,-3.69273964659566,-14.3555253761406,-299.416562395093
738533.42104682326316833496,-3.72043519394513,-14.3832209234901,-299.416562395093
738533.42104691360145807266,-3.74813074129459,-14.4109164708396,-299.444257942442
738533.42104700405616313219,-3.72966704306162,-14.3647572252571,-299.444257942442
738533.42104709451086819172,-3.74813074129459,-14.3924527726066,-299.462721640675
738533.42104718496557325125,-3.72966704306162,-14.3647572252571,-299.471953489792
738533.42104727542027831078,-3.72966704306162,-14.3739890743736,-299.499649037141
738533.42104736575856804848,-3.72043519394513,-14.3647572252571,-299.462721640675
738533.42104745621327310801,-3.73889889217811,-14.3739890743736,-299.481185338908
738533.42104754666797816753,-3.77582628864406,-14.3462935270241,-299.490417188025
738533.42104763712268322706,-3.72966704306162,-14.2447431867428,-299.536576433607
738533.42104772757738828659,-3.47117526779992,-14.04164250618,-299.462721640675
738533.42104781791567802429,-3.21268349253822,-13.6816003906369,-299.241157261879
738533.42104790837038308382,-2.7233954893643,-13.8570055238502,-299.250389110996
738533.42104799882508814335,-2.39104892117069,-14.5863216040529,-299.518112735374
738533.42104808927979320288,-2.76955473494675,-15.1402325510422,-299.638126773888
738533.42104817973449826241,-3.27730643635365,-15.1494644001587,-299.591967528306
738533.42104827018920332193,-3.61888485366375,-14.8448133793146,-299.582735679189
738533.42104836052749305964,-3.6558122501297,-14.5309305093539,-299.499649037141
738533.42104845098219811916,-3.67427594836268,-14.4109164708396,-299.490417188025
738533.42104854143690317869,-3.71120334482864,-14.3647572252571,-299.490417188025
738533.42104863189160823822,-3.71120334482864,-14.3555253761406,-299.490417188025
