time_dn,ecg_projection_ll_ra_mV,ecg_projection_la_ra_mV,ecg_projection_vx_rl_mV
738533.38851414527744054794,-2.34488967558824,-14.8448133793146,-301.022904141362
738533.38851423573214560747,-2.30796227912229,-14.8171178319651,-301.032135990478
738533.38851432618685066700,-2.32642597735527,-14.8632770775475,-300.939817499313
738533.38851441664155572653,-2.33565782647175,-14.872508926664,-300.995208594012
738533.38851450709626078606,-2.33565782647175,-14.8817407757805,-301.10599078341
738533.38851459755096584558,-2.32642597735527,-14.8817407757805,-301.10599078341
738533.38851468800567090511,-2.34488967558824,-14.9002044740135,-301.069063386944
738533.38851477834396064281,-2.31719412823878,-14.890972624897,-301.124454481643
738533.38851486879866570234,-2.36335337382122,-14.8817407757805,-301.124454481643
738533.38851495925337076187,-2.33565782647175,-14.8632770775475,-301.069063386944
738533.38851504970807582140,-2.35412152470473,-14.854045228431,-301.087527085177
738533.38851514016278088093,-2.37258522293771,-14.8817407757805,-301.096758934294
738533.38851523061748594046,-2.34488967558824,-14.854045228431,-301.069063386944
738533.38851532107219099998,-2.3818170720542,-14.8817407757805,-301.022904141362
738533.38851541141048073769,-2.35412152470473,-14.8448133793146,-301.013672292245
738533.38851550186518579721,-2.34488967558824,-14.872508926664,-301.032135990478
738533.38851559231989085674,-2.34488967558824,-14.8448133793146,-301.004440443129
738533.38851568277459591627,-2.37258522293771,-14.872508926664,-301.059831537828
738533.38851577322930097580,-2.35412152470473,-14.854045228431,-301.078295236061
738533.38851586368400603533,-2.34488967558824,-14.854045228431,-301.087527085177
738533.38851595413871109486,-2.37258522293771,-14.8632770775475,-301.069063386944
738533.38851604459341615438,-2.36335337382122,-14.8448133793146,-301.078295236061
738533.38851613493170589209,-2.34488967558824,-14.8632770775475,-301.087527085177
738533.38851622538641095161,-2.35412152470473,-14.854045228431,-301.059831537828
738533.38851631584111601114,-2.35412152470473,-14.872508926664,-301.096758934294
738533.38851640629582107067,-2.34488967558824,-14.8632770775475,-301.124454481643
738533.38851649675052613020,-2.34488967558824,-14.8632770775475,-301.004440443129
738533.38851658720523118973,-2.31719412823878,-14.8355815301981,-301.032135990478
738533.38851667765993624926,-2.28949858088931,-14.8355815301981,-301.059831537828
738533.38851676811464130878,-2.25257118442335,-14.7986541337321,-301.032135990478
738533.38851685845293104649,-2.20641193884091,-14.7617267372662,-301.022904141362
738533.38851694890763610601,-2.18794824060793,-14.7432630390332,-301.013672292245
738533.38851703936234116554,-2.25257118442335,-14.7709585863826,-301.013672292245
738533.38851712981704622507,-2.27103488265633,-14.7801904354991,-300.985976744896
738533.38851722027175128460,-2.32642597735527,-14.8171178319651,-301.004440443129
738533.38851731072645634413,-2.34488967558824,-14.8355815301981,-301.004440443129
738533.38851740118116140366,-2.36335337382122,-14.854045228431,-301.022904141362
738533.38851749151945114136,-2.35412152470473,-14.8632770775475,-301.059831537828
738533.38851758197415620089,-2.40028077028718,-14.8632770775475,-301.022904141362
738533.38851767242886126041,-2.36335337382122,-14.8632770775475,-301.050599688711
738533.38851776288356631994,-2.35412152470473,-14.8448133793146,-301.032135990478
738533.38851785333827137947,-2.35412152470473,-14.872508926664,-300.930585650197
738533.38851794379297643900,-2.37258522293771,-14.854045228431,-300.995208594012
738533.38851803424768149853,-2.37258522293771,-14.872508926664,-301.069063386944
738533.38851812470238655806,-2.43720816675314,-14.854045228431,-300.995208594012
738533.38851821504067629576,-2.4649037141026,-14.8078859828486,-301.032135990478
738533.38851830549538135529,-2.23410748619037,-14.6324808496353,-300.976744895779
738533.38851839595008641481,-1.83713797418134,-14.2539750358592,-300.939817499313
738533.38851848640479147434,-1.33861812189093,-14.1893520920438,-300.782876064333
738533.38851857685949653387,-0.812402722251045,-14.7617267372662,-300.902890102847
738533.38851866731420159340,-0.960112308114872,-15.3802606280709,-301.087527085177
738533.38851875776890665293,-1.6155735953856,-15.5464339121677,-301.142918179876
738533.38851884822361171246,-1.8740653706473,-15.4633472701193,-301.161381878109
738533.38851893856190145016,-2.24333933530686,-15.1771599475082,-301.142918179876
738533.38851902901660650969,-2.27103488265633,-15.0109866634114,-301.142918179876
738533.38851911947131156921,-2.32642597735527,-14.9002044740135,-301.087527085177
738533.38851920992601662874,-2.32642597735527,-14.9002044740135,-301.078295236061
738533.38851930038072168827,-2.3818170720542,-14.872508926664,-301.087527085177
738533.38851939083542674780,-2.35412152470473,-14.8632770775475,-301.078295236061
738533.38851948129013180733,-2.34488967558824,-14.8263496810816,-301.022904141362
738533.38851957162842154503,-2.35412152470473,-14.872508926664,-301.096758934294
738533.38851966208312660456,-2.35412152470473,-14.8078859828486,-301.069063386944
738533.38851975253783166409,-2.35412152470473,-14.8263496810816,-301.032135990478
738533.38851984299253672361,-2.33565782647175,-14.8078859828486,-301.069063386944
738533.38851993344724178314,-2.33565782647175,-14.8263496810816,-301.078295236061
738533.38852002390194684267,-2.32642597735527,-14.7894222846156,-301.069063386944
738533.38852011435665190220,-2.31719412823878,-14.7894222846156,-301.050599688711
738533.38852020481135696173,-2.30796227912229,-14.7709585863826,-301.050599688711
738533.38852029514964669943,-2.2987304300058,-14.7894222846156,-301.069063386944
738533.38852038560435175896,-2.27103488265633,-14.7524948881497,-300.976744895779
738533.38852047605905681849,-2.28026673177282,-14.7247993408002,-301.013672292245
738533.38852056651376187801,-2.2156437879574,-14.6694082461013,-300.985976744896
738533.38852065696846693754,-2.20641193884091,-14.6417126987518,-300.958281197546
738533.38852074742317199707,-2.19718008972442,-14.6509445478683,-300.94904934843
738533.38852083787787705660,-2.16948454237495,-14.5770897549364,-300.94904934843
738533.38852092833258211613,-2.13255714590899,-14.5678579058199,-300.939817499313
738533.38852101867087185383,-2.08639790032655,-14.5216986602374,-300.912121951964
738533.38852110912557691336,-2.05870235297708,-14.5124668111209,-300.976744895779
738533.38852119958028197289,-2.02177495651112,-14.494003112888,-300.985976744896
738533.38852129003498703241,-2.01254310739463,-14.5032349620045,-301.032135990478
738533.38852138048969209194,-1.97561571092868,-14.5124668111209,-300.856730857265
738533.38852147094439715147,-1.98484756004517,-14.5401623584704,-300.902890102847
738533.38852156139910221100,-1.98484756004517,-14.5863216040529,-301.022904141362
738533.38852165173739194870,-2.0402386547441,-14.6417126987518,-300.94904934843
738533.38852174219209700823,-2.07716605121006,-14.6878719443342,-300.94904934843
738533.38852183264680206776,-2.1233252967925,-14.7247993408002,-300.985976744896
738533.38852192310150712729,-2.15102084414197,-14.7524948881497,-300.985976744896
738533.38852201355621218681,-2.18794824060793,-14.7801904354991,-301.022904141362
738533.38852210401091724634,-2.18794824060793,-14.7986541337321,-301.013672292245
738533.38852219446562230587,-2.2156437879574,-14.8078859828486,-301.032135990478
738533.38852228492032736540,-2.22487563707389,-14.8263496810816,-301.013672292245
738533.38852237525861710310,-2.23410748619037,-14.8263496810816,-301.022904141362
738533.38852246571332216263,-2.22487563707389,-14.8263496810816,-301.059831537828
738533.38852255616802722216,-2.23410748619037,-14.8171178319651,-301.022904141362
738533.38852264662273228168,-2.22487563707389,-14.8448133793146,-301.004440443129
738533.38852273707743734121,-2.22487563707389,-14.8263496810816,-301.013672292245
738533.38852282753214240074,-2.22487563707389,-14.8355815301981,-301.041367839595
738533.38852291798684746027,-2.23410748619037,-14.8448133793146,-301.004440443129
738533.38852300844155251980,-2.2156437879574,-14.8448133793146,-301.041367839595
738533.38852309877984225750,-2.20641193884091,-14.8355815301981,-301.013672292245
738533.38852318923454731703,-2.23410748619037,-14.8632770775475,-301.078295236061
738533.38852327968925237656,-2.20641193884091,-14.8448133793146,-301.050599688711
738533.38852337014395743608,-2.23410748619037,-14.8355815301981,-301.041367839595
738533.38852346059866249561,-2.2156437879574,-14.8448133793146,-301.032135990478
738533.38852355105336755514,-2.2156437879574,-14.854045228431,-301.069063386944
738533.38852364150807261467,-2.23410748619037,-14.8632770775475,-301.087527085177
738533.38852373196277767420,-2.26180303353984,-14.854045228431,-301.059831537828
738533.38852382230106741190,-2.24333933530686,-14.854045228431,-301.078295236061
738533.38852391275577247143,-2.25257118442335,-14.8355815301981,-301.059831537828
738533.38852400321047753096,-2.23410748619037,-14.8355815301981,-301.050599688711
738533.38852409366518259048,-2.24333933530686,-14.8355815301981,-301.050599688711
738533.38852418411988765001,-2.23410748619037,-14.8632770775475,-301.087527085177
738533.38852427457459270954,-2.24333933530686,-14.8448133793146,-300.976744895779
738533.38852436502929776907,-2.26180303353984,-14.872508926664,-301.022904141362
738533.38852445536758750677,-2.23410748619037,-14.8448133793146,-301.069063386944
738533.38852454582229256630,-2.24333933530686,-14.8448133793146,-301.078295236061
738533.38852463627699762583,-2.24333933530686,-14.854045228431,-300.995208594012
738533.38852472673170268536,-2.25257118442335,-14.8448133793146,-301.041367839595
738533.38852481718640774488,-2.23410748619037,-14.8632770775475,-301.087527085177
738533.38852490764111280441,-2.24333933530686,-14.872508926664,-300.995208594012
738533.38852499809581786394,-2.23410748619037,-14.8817407757805,-300.94904934843
738533.38852508855052292347,-2.24333933530686,-14.872508926664,-301.078295236061
738533.38852517888881266117,-2.23410748619037,-14.8817407757805,-301.059831537828
738533.38852526934351772070,-2.22487563707389,-14.8632770775475,-301.004440443129
738533.38852535979822278023,-2.2156437879574,-14.872508926664,-301.022904141362
738533.38852545025292783976,-2.19718008972442,-14.854045228431,-301.032135990478
738533.38852554070763289928,-2.14178899502548,-14.8355815301981,-300.995208594012
738533.38852563116233795881,-2.09562974944304,-14.7894222846156,-300.985976744896
738533.38852572161704301834,-2.1233252967925,-14.8355815301981,-301.013672292245
738533.38852581207174807787,-2.16025269325846,-14.854045228431,-300.976744895779
738533.38852590241003781557,-2.20641193884091,-14.9002044740135,-300.94904934843
738533.38852599286474287510,-2.22487563707389,-14.9186681722465,-300.985976744896
738533.38852608331944793463,-2.25257118442335,-14.9648274178289,-300.995208594012
738533.38852617377415299416,-2.26180303353984,-14.9648274178289,-301.013672292245
738533.38852626422885805368,-2.28949858088931,-15.0017548142949,-300.995208594012
738533.38852635468356311321,-2.28026673177282,-15.0109866634114,-301.013672292245
738533.38852644513826817274,-2.28026673177282,-14.9925229651784,-301.013672292245
738533.38852653547655791044,-2.26180303353984,-15.0017548142949,-300.995208594012
738533.38852662593126296997,-2.26180303353984,-15.0109866634114,-301.032135990478
738533.38852671638596802950,-2.28026673177282,-15.0294503616443,-301.032135990478
738533.38852680684067308903,-2.27103488265633,-15.0109866634114,-301.087527085177
738533.38852689729537814856,-2.35412152470473,-15.0386822107608,-301.124454481643
738533.38852698775008320808,-2.32642597735527,-14.9648274178289,-301.087527085177
738533.38852707820478826761,-2.10486159855953,-14.8171178319651,-301.022904141362
738533.38852716865949332714,-1.68942838831751,-14.3555253761406,-300.902890102847
738533.38852725899778306484,-1.22783593249306,-14.494003112888,-300.875194555498
738533.38852734945248812437,-0.729316080202643,-15.1033051545762,-300.958281197546
738533.38852743990719318390,-0.97857600634785,-15.703375347148,-301.10599078341
738533.38852753036189824343,-1.59710989715262,-15.721839045381,-301.207541123691
738533.38852762081660330296,-2.02177495651112,-15.4356517227699,-301.179845576342
738533.38852771127130836248,-2.09562974944304,-15.1586962492752,-301.087527085177
738533.38852780172601342201,-2.17871639149144,-15.0571459089938,-301.087527085177
738533.38852789218071848154,-2.2156437879574,-15.0202185125278,-301.096758934294
738533.38852798251900821924,-2.25257118442335,-14.9740592669454,-301.10599078341
738533.38852807297371327877,-2.24333933530686,-14.9463637195959,-301.004440443129
738533.38852816342841833830,-2.24333933530686,-14.927900021363,-300.958281197546
738533.38852825388312339783,-2.24333933530686,-14.9463637195959,-301.087527085177
738533.38852834433782845736,-2.25257118442335,-14.90943632313,-301.050599688711
738533.38852843479253351688,-2.25257118442335,-14.927900021363,-301.041367839595
738533.38852852524723857641,-2.2156437879574,-14.890972624897,-300.92135380108
738533.38852861558552831411,-2.24333933530686,-14.890972624897,-301.078295236061
738533.38852870604023337364,-2.22487563707389,-14.8632770775475,-301.078295236061
738533.38852879649493843317,-2.22487563707389,-14.8632770775475,-300.995208594012
738533.38852888694964349270,-2.2156437879574,-14.8448133793146,-301.022904141362
738533.38852897740434855223,-2.2156437879574,-14.8263496810816,-301.022904141362
738533.38852906785905361176,-2.17871639149144,-14.7986541337321,-301.004440443129
738533.38852915831375867128,-2.16025269325846,-14.7709585863826,-300.967513046663
738533.38852924876846373081,-2.16025269325846,-14.7432630390332,-300.995208594012
738533.38852933910675346851,-2.13255714590899,-14.6971037934507,-300.995208594012
738533.38852942956145852804,-2.14178899502548,-14.6971037934507,-301.013672292245
738533.38852952001616358757,-2.07716605121006,-14.6417126987518,-300.958281197546
738533.38852961047086864710,-2.0402386547441,-14.6140171514023,-300.958281197546
738533.38852970092557370663,-1.98484756004517,-14.5309305093539,-300.976744895779
738533.38852979138027876616,-1.97561571092868,-14.5124668111209,-300.967513046663
738533.38852988183498382568,-1.92945646534623,-14.4663075655385,-300.939817499313
738533.38852997228968888521,-1.90176091799676,-14.457075716422,-300.967513046663
738533.38853006262797862291,-1.88329721976379,-14.438612018189,-300.958281197546
738533.38853015308268368244,-1.88329721976379,-14.494003112888,-300.958281197546
738533.38853024353738874197,-1.86483352153081,-14.5309305093539,-300.94904934843
738533.38853033399209380150,-1.90176091799676,-14.5863216040529,-300.967513046663
738533.38853042444679886103,-1.92945646534623,-14.6509445478683,-301.013672292245
738533.38853051490150392056,-2.00331125827815,-14.6971037934507,-301.022904141362
738533.38853060535620898008,-2.03100680562761,-14.7432630390332,-301.050599688711
738533.38853069569449871778,-2.05870235297708,-14.7432630390332,-301.022904141362
738533.38853078614920377731,-2.08639790032655,-14.7617267372662,-301.041367839595
738533.38853087660390883684,-2.10486159855953,-14.7986541337321,-301.041367839595
738533.38853096705861389637,-2.13255714590899,-14.8355815301981,-300.995208594012
738533.38853105751331895590,-2.11409344767602,-14.7986541337321,-301.032135990478
738533.38853114796802401543,-2.1233252967925,-14.8355815301981,-301.013672292245
738533.38853123842272907495,-2.14178899502548,-14.8171178319651,-301.069063386944
738533.38853132887743413448,-2.14178899502548,-14.8448133793146,-301.059831537828
738533.38853141921572387218,-2.11409344767602,-14.7986541337321,-301.004440443129
738533.38853150967042893171,-2.1233252967925,-14.8263496810816,-300.995208594012
738533.38853160012513399124,-2.1233252967925,-14.7986541337321,-301.013672292245
738533.38853169057983905077,-2.13255714590899,-14.8355815301981,-300.976744895779
738533.38853178103454411030,-2.1233252967925,-14.8078859828486,-300.985976744896
738533.38853187148924916983,-2.13255714590899,-14.8171178319651,-300.995208594012
738533.38853196194395422935,-2.1233252967925,-14.8171178319651,-300.958281197546
738533.38853205239865928888,-2.13255714590899,-14.8263496810816,-300.875194555498
738533.38853214273694902658,-2.13255714590899,-14.8355815301981,-301.050599688711
738533.38853223319165408611,-2.13255714590899,-14.7986541337321,-301.078295236061
738533.38853232364635914564,-2.13255714590899,-14.8263496810816,-301.069063386944
738533.38853241410106420517,-2.11409344767602,-14.8078859828486,-301.078295236061
738533.38853250455576926470,-2.14178899502548,-14.8263496810816,-301.069063386944
738533.38853259501047432423,-2.13255714590899,-14.8078859828486,-301.041367839595
738533.38853268546517938375,-2.14178899502548,-14.8355815301981,-301.096758934294
738533.38853277580346912146,-2.13255714590899,-14.8171178319651,-301.096758934294
738533.38853286625817418098,-2.14178899502548,-14.8355815301981,-301.059831537828
738533.38853295671287924051,-2.13255714590899,-14.8263496810816,-301.069063386944
738533.38853304716758430004,-2.14178899502548,-14.8355815301981,-301.069063386944
738533.38853313762228935957,-2.15102084414197,-14.8263496810816,-301.004440443129
738533.38853322807699441910,-2.16025269325846,-14.8355815301981,-301.013672292245
738533.38853331853169947863,-2.13255714590899,-14.8171178319651,-300.995208594012
738533.38853340898640453815,-2.16025269325846,-14.8355815301981,-301.013672292245
738533.38853349932469427586,-2.13255714590899,-14.8171178319651,-301.004440443129
738533.38853358977939933538,-2.15102084414197,-14.8171178319651,-301.050599688711
738533.38853368023410439491,-2.15102084414197,-14.8355815301981,-301.013672292245
738533.38853377068880945444,-2.16025269325846,-14.8355815301981,-301.032135990478
738533.38853386114351451397,-2.15102084414197,-14.8448133793146,-301.004440443129
738533.38853395159821957350,-2.11409344767602,-14.8171178319651,-301.022904141362
738533.38853404205292463303,-2.10486159855953,-14.8171178319651,-301.032135990478
738533.38853413250762969255,-2.06793420209357,-14.7709585863826,-301.022904141362
738533.38853422284591943026,-2.01254310739463,-14.7247993408002,-301.050599688711
738533.38853431330062448978,-1.97561571092868,-14.7155674916837,-301.050599688711
738533.38853440375532954931,-2.04947050386059,-14.7709585863826,-301.022904141362
738533.38853449421003460884,-2.08639790032655,-14.7986541337321,-301.078295236061
738533.38853458466473966837,-2.1233252967925,-14.8355815301981,-301.059831537828
738533.38853467511944472790,-2.14178899502548,-14.8448133793146,-301.022904141362
738533.38853476557414978743,-2.16025269325846,-14.8632770775475,-301.050599688711
738533.38853485591243952513,-2.15102084414197,-14.854045228431,-301.013672292245
738533.38853494636714458466,-2.15102084414197,-14.8448133793146,-301.059831537828
738533.38853503682184964418,-2.1233252967925,-14.8355815301981,-301.059831537828
738533.38853512727655470371,-2.16948454237495,-14.8448133793146,-301.013672292245
738533.38853521773125976324,-2.14178899502548,-14.854045228431,-301.059831537828
738533.38853530818596482277,-2.15102084414197,-14.8448133793146,-301.096758934294
738533.38853539864066988230,-2.16948454237495,-14.854045228431,-301.078295236061
738533.38853548909537494183,-2.26180303353984,-14.872508926664,-300.829035309915
738533.38853557943366467953,-2.2156437879574,-14.7986541337321,-300.939817499313
738533.38853566988836973906,-1.92022461622974,-14.5309305093539,-300.976744895779
738533.38853576034307479858,-1.72635578478347,-14.3001342814417,-300.912121951964
738533.38853585079777985811,-1.32015442365795,-14.1708883938108,-300.865962706381
738533.38853594125248491764,-0.701620532853175,-14.6140171514023,-300.958281197546
738533.38853603170718997717,-0.830866420484023,-15.3802606280709,-301.142918179876
738533.38853612216189503670,-1.36631366924039,-15.5741294595172,-301.170613727226
738533.38853621261660009623,-1.81867427594836,-15.3525650807215,-301.170613727226
738533.38853630295488983393,-2.16025269325846,-15.2140873439741,-301.13368633076
738533.38853639340959489346,-2.17871639149144,-15.0294503616443,-301.032135990478
738533.38853648386429995298,-2.17871639149144,-14.927900021363,-301.050599688711
738533.38853657431900501251,-2.17871639149144,-14.90943632313,-301.096758934294
738533.38853666477371007204,-2.05870235297708,-14.7709585863826,-301.041367839595
738533.38853675522841513157,-1.90176091799676,-14.6047853022858,-301.004440443129
738533.38853684568312019110,-1.78174687948241,-14.475539414655,-300.958281197546
738533.38853693602140992880,-2.16025269325846,-14.854045228431,-300.985976744896
738533.38853702647611498833,-2.3818170720542,-15.0479140598773,-300.995208594012
738533.38853711693082004786,-2.32642597735527,-15.0017548142949,-300.995208594012
738533.38853720738552510738,-2.20641193884091,-14.8632770775475,-301.013672292245
738533.38853729784023016691,-2.13255714590899,-14.8078859828486,-301.032135990478
738533.38853738829493522644,-2.13255714590899,-14.7801904354991,-301.041367839595
738533.38853747874964028597,-2.08639790032655,-14.7432630390332,-301.022904141362
738533.38853756920434534550,-2.06793420209357,-14.7155674916837,-301.032135990478
738533.38853765954263508320,-1.9571520126957,-14.5770897549364,-301.041367839595
738533.38853774999734014273,-1.99407940916166,-14.6324808496353,-301.022904141362
738533.38853784045204520226,-2.1233252967925,-14.7340311899167,-301.059831537828
738533.38853793090675026178,-2.19718008972442,-14.8171178319651,-300.958281197546
738533.38853802136145532131,-2.10486159855953,-14.7155674916837,-300.967513046663
738533.38853811181616038084,-2.02177495651112,-14.6694082461013,-300.985976744896
738533.38853820227086544037,-2.0402386547441,-14.6694082461013,-300.967513046663
738533.38853829272557049990,-1.99407940916166,-14.6417126987518,-300.939817499313
738533.38853838306386023760,-1.92945646534623,-14.5678579058199,-300.92135380108
738533.38853847351856529713,-1.86483352153081,-14.4847712637715,-300.958281197546
738533.38853856397327035666,-1.82790612506485,-14.4663075655385,-300.958281197546
738533.38853865442797541618,-1.82790612506485,-14.5032349620045,-300.967513046663
738533.38853874488268047571,-1.72635578478347,-14.438612018189,-300.912121951964
738533.38853883533738553524,-1.84636982329783,-14.6047853022858,-300.967513046663
738533.38853892579209059477,-1.85560167241432,-14.6140171514023,-300.995208594012
738533.38853901613038033247,-1.88329721976379,-14.6694082461013,-300.829035309915
738533.38853910658508539200,-1.89252906888028,-14.6694082461013,-300.912121951964
738533.38853919703979045153,-2.01254310739463,-14.7801904354991,-301.022904141362
738533.38853928749449551105,-1.9571520126957,-14.7155674916837,-301.013672292245
738533.38853937794920057058,-1.78174687948241,-14.5216986602374,-301.022904141362
738533.38853946840390563011,-1.84636982329783,-14.6047853022858,-301.050599688711
738533.38853955885861068964,-1.99407940916166,-14.7155674916837,-301.004440443129
738533.38853964931331574917,-1.9571520126957,-14.6878719443342,-301.041367839595
738533.38853973965160548687,-2.05870235297708,-14.7524948881497,-301.087527085177
738533.38853983010631054640,-2.02177495651112,-14.7340311899167,-301.013672292245
738533.38853992056101560593,-2.07716605121006,-14.7801904354991,-300.985976744896
738533.38854001101572066545,-2.23410748619037,-14.9555955687124,-300.985976744896
738533.38854010147042572498,-2.16025269325846,-14.872508926664,-301.032135990478
738533.38854019192513078451,-2.08639790032655,-14.7986541337321,-301.004440443129
738533.38854028237983584404,-2.0402386547441,-14.7247993408002,-300.995208594012
738533.38854037283454090357,-1.99407940916166,-14.6786400952177,-300.985976744896
738533.38854046317283064127,-2.00331125827815,-14.7155674916837,-301.050599688711
738533.38854055362753570080,-2.10486159855953,-14.8078859828486,-301.059831537828
738533.38854064408224076033,-2.08639790032655,-14.8078859828486,-301.004440443129
738533.38854073453694581985,-2.08639790032655,-14.7986541337321,-301.069063386944
738533.38854082499165087938,-2.07716605121006,-14.7894222846156,-301.059831537828
738533.38854091544635593891,-2.08639790032655,-14.8078859828486,-301.032135990478
738533.38854100590106099844,-2.04947050386059,-14.8448133793146,-301.050599688711
738533.38854109623935073614,-2.14178899502548,-14.872508926664,-301.069063386944
738533.38854118669405579567,-2.13255714590899,-14.854045228431,-301.078295236061
738533.38854127714876085520,-2.10486159855953,-14.7986541337321,-301.041367839595
738533.38854136760346591473,-2.08639790032655,-14.7801904354991,-301.087527085177
738533.38854145805817097425,-2.17871639149144,-14.8632770775475,-301.069063386944
738533.38854154851287603378,-2.18794824060793,-14.890972624897,-301.087527085177
738533.38854163896758109331,-2.11409344767602,-14.8263496810816,-301.069063386944
738533.38854172942228615284,-2.04947050386059,-14.7617267372662,-301.059831537828
738533.38854181976057589054,-2.0402386547441,-14.7340311899167,-301.096758934294
738533.38854191021528095007,-2.17871639149144,-14.8355815301981,-301.13368633076
738533.38854200066998600960,-2.03100680562761,-14.7247993408002,-301.032135990478
738533.38854209112469106913,-2.14178899502548,-14.8355815301981,-301.10599078341
738533.38854218157939612865,-2.1233252967925,-14.8078859828486,-301.10599078341
738533.38854227203410118818,-2.19718008972442,-14.854045228431,-301.050599688711
738533.38854236248880624771,-2.08639790032655,-14.7801904354991,-301.069063386944
738533.38854245294351130724,-2.08639790032655,-14.7709585863826,-301.096758934294
738533.38854254328180104494,-2.03100680562761,-14.7247993408002,-300.912121951964
738533.38854263373650610447,-1.98484756004517,-14.6878719443342,-300.92135380108
738533.38854272419121116400,-1.97561571092868,-14.7155674916837,-301.069063386944
738533.38854281464591622353,-1.92022461622974,-14.6232490005188,-300.92135380108
738533.38854290510062128305,-2.00331125827815,-14.7340311899167,-300.976744895779
738533.38854299555532634258,-2.13255714590899,-14.8263496810816,-300.958281197546
738533.38854308601003140211,-2.18794824060793,-14.927900021363,-300.985976744896
738533.38854317634832113981,-2.2156437879574,-14.9555955687124,-301.050599688711
738533.38854326680302619934,-2.16025269325846,-14.890972624897,-301.050599688711
738533.38854335725773125887,-2.08639790032655,-14.8171178319651,-301.050599688711
738533.38854344771243631840,-2.05870235297708,-14.7617267372662,-301.004440443129
738533.38854353816714137793,-2.15102084414197,-14.854045228431,-301.069063386944
738533.38854362862184643745,-2.1233252967925,-14.8078859828486,-301.041367839595
738533.38854371907655149698,-2.22487563707389,-14.927900021363,-300.995208594012
738533.38854380953125655651,-2.26180303353984,-14.9463637195959,-301.041367839595
738533.38854389986954629421,-2.17871639149144,-14.8355815301981,-301.069063386944
738533.38854399032425135374,-2.19718008972442,-14.7617267372662,-301.050599688711
738533.38854408077895641327,-2.00331125827815,-14.6232490005188,-300.94904934843
738533.38854417123366147280,-1.72635578478347,-14.3093661305582,-300.92135380108
738533.38854426168836653233,-1.38477736747337,-14.1339609973449,-300.865962706381
738533.38854435214307159185,-0.877025666066469,-14.6694082461013,-300.884426404614
738533.38854444259777665138,-0.904721213415937,-15.4725791192358,-301.069063386944
738533.38854453305248171091,-1.46786400952177,-15.7679982909635,-301.216772972808
738533.38854462339077144861,-1.83713797418134,-15.5095065157018,-301.207541123691
738533.38854471384547650814,-2.09562974944304,-15.1956236457411,-301.087527085177
738533.38854480430018156767,-2.08639790032655,-14.9925229651784,-301.078295236061
738533.38854489475488662720,-2.14178899502548,-14.927900021363,-301.124454481643
738533.38854498520959168673,-2.1233252967925,-14.890972624897,-301.069063386944
738533.38854507566429674625,-2.09562974944304,-14.8632770775475,-301.041367839595
738533.38854516611900180578,-2.09562974944304,-14.8078859828486,-301.096758934294
738533.38854525645729154348,-2.01254310739463,-14.7432630390332,-301.096758934294
738533.38854534691199660301,-2.04947050386059,-14.7432630390332,-301.013672292245
738533.38854543736670166254,-2.20641193884091,-14.90943632313,-301.041367839595
738533.38854552782140672207,-2.2156437879574,-14.9002044740135,-301.032135990478
738533.38854561827611178160,-2.16025269325846,-14.8448133793146,-301.041367839595
738533.38854570873081684113,-2.2156437879574,-14.8817407757805,-301.032135990478
738533.38854579918552190065,-2.19718008972442,-14.854045228431,-301.050599688711
738533.38854588964022696018,-2.15102084414197,-14.7801904354991,-301.041367839595
738533.38854597997851669788,-2.07716605121006,-14.7155674916837,-301.032135990478
738533.38854607043322175741,-2.05870235297708,-14.6878719443342,-300.92135380108
738533.38854616088792681694,-2.16025269325846,-14.7801904354991,-300.930585650197
738533.38854625134263187647,-2.09562974944304,-14.6971037934507,-301.004440443129
738533.38854634179733693600,-2.01254310739463,-14.5955534531693,-300.995208594012
738533.38854643225204199553,-1.91099276711325,-14.494003112888,-300.967513046663
738533.38854652270674705505,-2.01254310739463,-14.5955534531693,-300.995208594012
738533.38854661316145211458,-1.92945646534623,-14.5032349620045,-300.967513046663
738533.38854670349974185228,-2.08639790032655,-14.6509445478683,-300.958281197546
738533.38854679395444691181,-1.98484756004517,-14.5863216040529,-300.939817499313
738533.38854688440915197134,-1.89252906888028,-14.475539414655,-300.939817499313
738533.38854697486385703087,-1.91099276711325,-14.5124668111209,-300.94904934843
738533.38854706531856209040,-1.84636982329783,-14.494003112888,-300.930585650197
738533.38854715577326714993,-1.71712393566698,-14.4109164708396,-300.967513046663
738533.38854724622797220945,-1.71712393566698,-14.438612018189,-300.995208594012
738533.38854733656626194715,-1.80944242683187,-14.5586260567034,-300.94904934843
738533.38854742702096700668,-1.92022461622974,-14.6971037934507,-301.004440443129
738533.38854751747567206621,-1.9571520126957,-14.7432630390332,-300.976744895779
738533.38854760793037712574,-2.02177495651112,-14.8078859828486,-300.967513046663
738533.38854769838508218527,-2.03100680562761,-14.8171178319651,-300.995208594012
738533.38854778883978724480,-2.01254310739463,-14.7986541337321,-300.967513046663
738533.38854787929449230433,-1.92945646534623,-14.7063356425672,-300.985976744896
738533.38854796974919736385,-1.91099276711325,-14.7063356425672,-301.032135990478
738533.38854806008748710155,-2.04947050386059,-14.854045228431,-301.022904141362
738533.38854815054219216108,-2.08639790032655,-14.890972624897,-301.004440443129
738533.38854824099689722061,-2.07716605121006,-14.872508926664,-300.939817499313
738533.38854833145160228014,-2.03100680562761,-14.8448133793146,-301.041367839595
738533.38854842190630733967,-2.05870235297708,-14.8355815301981,-301.059831537828
738533.38854851236101239920,-2.03100680562761,-14.8263496810816,-301.013672292245
738533.38854860281571745872,-2.05870235297708,-14.8355815301981,-300.976744895779
738533.38854869327042251825,-2.03100680562761,-14.8355815301981,-300.995208594012
738533.38854878360871225595,-2.0402386547441,-14.8355815301981,-300.985976744896
738533.38854887406341731548,-2.07716605121006,-14.8632770775475,-301.013672292245
738533.38854896451812237501,-2.1233252967925,-14.9186681722465,-301.004440443129
738533.38854905497282743454,-2.08639790032655,-14.890972624897,-301.059831537828
738533.38854914542753249407,-1.99407940916166,-14.8078859828486,-301.059831537828
738533.38854923588223755360,-2.08639790032655,-14.872508926664,-301.096758934294
738533.38854932633694261312,-1.94792016357921,-14.7524948881497,-301.022904141362
738533.38854941679164767265,-2.00331125827815,-14.8078859828486,-301.050599688711
738533.38854950712993741035,-2.0402386547441,-14.854045228431,-301.050599688711
738533.38854959758464246988,-2.07716605121006,-14.854045228431,-300.912121951964
738533.38854968803934752941,-2.16948454237495,-14.9832911160619,-300.958281197546
738533.38854977849405258894,-2.18794824060793,-14.9555955687124,-301.078295236061
738533.38854986894875764847,-2.05870235297708,-14.8632770775475,-301.004440443129
738533.38854995940346270800,-1.96638386181219,-14.7524948881497,-301.013672292245
738533.38855004985816776752,-2.07716605121006,-14.8817407757805,-301.069063386944
738533.38855014019645750523,-1.94792016357921,-14.7340311899167,-301.032135990478
738533.38855023065116256475,-2.04947050386059,-14.854045228431,-301.087527085177
738533.38855032110586762428,-2.04947050386059,-14.8355815301981,-301.022904141362
738533.38855041156057268381,-2.05870235297708,-14.8632770775475,-301.069063386944
738533.38855050201527774334,-2.00331125827815,-14.8263496810816,-301.041367839595
738533.38855059246998280287,-1.97561571092868,-14.7801904354991,-301.013672292245
738533.38855068292468786240,-1.89252906888028,-14.7155674916837,-301.022904141362
738533.38855077337939292192,-1.92945646534623,-14.6971037934507,-301.013672292245
738533.38855086371768265963,-1.88329721976379,-14.6509445478683,-300.976744895779
738533.38855095417238771915,-2.05870235297708,-14.8078859828486,-300.995208594012
738533.38855104462709277868,-2.11409344767602,-14.8817407757805,-301.004440443129
738533.38855113508179783821,-2.11409344767602,-14.8263496810816,-301.004440443129
738533.38855122553650289774,-2.09562974944304,-14.8632770775475,-300.985976744896
738533.38855131599120795727,-2.04947050386059,-14.8817407757805,-300.967513046663
738533.38855140644591301680,-2.08639790032655,-14.927900021363,-300.94904934843
738533.38855149690061807632,-2.0402386547441,-14.9371318704794,-301.032135990478
738533.38855158723890781403,-2.07716605121006,-14.9740592669454,-301.059831537828
738533.38855167769361287355,-1.99407940916166,-14.8632770775475,-301.041367839595
738533.38855176814831793308,-2.05870235297708,-14.9371318704794,-301.050599688711
738533.38855185860302299261,-2.07716605121006,-14.9648274178289,-301.078295236061
738533.38855194905772805214,-2.11409344767602,-14.9648274178289,-301.050599688711
738533.38855203951243311167,-2.0402386547441,-14.8171178319651,-300.995208594012
738533.38855212996713817120,-1.98484756004517,-14.8171178319651,-301.013672292245
738533.38855222030542790890,-1.70789208655049,-14.5032349620045,-300.939817499313
738533.38855231076013296843,-1.28322702719199,-14.2355113376263,-300.801339762566
738533.38855240121483802795,-0.849330118717002,-14.9002044740135,-300.939817499313
738533.38855249166954308748,-0.830866420484023,-15.6295205542161,-301.10599078341
738533.38855258212424814701,-1.08012634662923,-15.8233893856624,-301.170613727226
738533.38855267257895320654,-1.52325510422071,-15.7495345927305,-301.115222632527
738533.38855276303365826607,-1.82790612506485,-15.4356517227699,-301.050599688711
738533.38855285348836332560,-1.8740653706473,-15.0479140598773,-301.078295236061
738533.38855294382665306330,-2.05870235297708,-15.0756096072268,-301.041367839595
738533.38855303428135812283,-2.11409344767602,-15.0386822107608,-301.050599688711
738533.38855312473606318235,-2.1233252967925,-15.0017548142949,-300.985976744896
738533.38855321519076824188,-2.08639790032655,-14.9186681722465,-300.92135380108
738533.38855330564547330141,-2.02177495651112,-14.8355815301981,-301.032135990478
738533.38855339610017836094,-2.03100680562761,-14.8448133793146,-301.032135990478
738533.38855348655488342047,-2.07716605121006,-14.854045228431,-301.041367839595
738533.38855357700958848000,-2.07716605121006,-14.854045228431,-300.995208594012
738533.38855366734787821770,-2.11409344767602,-14.854045228431,-301.050599688711
738533.38855375780258327723,-2.02177495651112,-14.7894222846156,-301.013672292245
738533.38855384825728833675,-1.97561571092868,-14.7432630390332,-300.939817499313
738533.38855393871199339628,-2.00331125827815,-14.7617267372662,-300.985976744896
738533.38855402916669845581,-2.01254310739463,-14.7524948881497,-300.976744895779
738533.38855411962140351534,-2.07716605121006,-14.8078859828486,-300.967513046663
738533.38855421007610857487,-2.07716605121006,-14.7986541337321,-300.967513046663
738533.38855430041439831257,-1.99407940916166,-14.7063356425672,-301.022904141362
738533.38855439086910337210,-1.92022461622974,-14.6140171514023,-301.004440443129
738533.38855448132380843163,-2.01254310739463,-14.6878719443342,-300.967513046663
738533.38855457177851349115,-2.00331125827815,-14.6694082461013,-300.985976744896
738533.38855466223321855068,-1.91099276711325,-14.5678579058199,-300.995208594012
738533.38855475268792361021,-1.89252906888028,-14.5216986602374,-300.939817499313
738533.38855484314262866974,-1.85560167241432,-14.5032349620045,-300.912121951964
738533.38855493359733372927,-1.82790612506485,-14.4663075655385,-300.967513046663
738533.38855502393562346697,-1.82790612506485,-14.5032349620045,-300.958281197546
738533.38855511439032852650,-1.71712393566698,-14.4109164708396,-300.930585650197
738533.38855520484503358603,-1.74481948301645,-14.457075716422,-300.967513046663
738533.38855529529973864555,-1.82790612506485,-14.5955534531693,-300.985976744896
738533.38855538575444370508,-1.76328318124943,-14.5401623584704,-300.995208594012
738533.38855547620914876461,-1.78174687948241,-14.6140171514023,-300.912121951964
738533.38855556666385382414,-1.85560167241432,-14.6786400952177,-301.004440443129
738533.38855565711855888367,-1.77251503036592,-14.6140171514023,-301.013672292245
738533.38855574745684862137,-1.92945646534623,-14.7617267372662,-301.004440443129
738533.38855583791155368090,-1.94792016357921,-14.7894222846156,-301.013672292245
738533.38855592836625874043,-1.98484756004517,-14.8171178319651,-301.022904141362
738533.38855601882096379995,-1.97561571092868,-14.8263496810816,-301.032135990478
738533.38855610927566885948,-1.94792016357921,-14.7801904354991,-300.976744895779
738533.38855619973037391901,-2.04947050386059,-14.890972624897,-301.050599688711
738533.38855629018507897854,-1.97561571092868,-14.8171178319651,-301.041367839595
738533.38855638052336871624,-1.9571520126957,-14.7894222846156,-301.022904141362
738533.38855647097807377577,-1.89252906888028,-14.7709585863826,-301.004440443129
738533.38855656143277883530,-2.02177495651112,-14.872508926664,-301.041367839595
738533.38855665188748389482,-1.92945646534623,-14.7894222846156,-301.032135990478
738533.38855674234218895435,-1.96638386181219,-14.8263496810816,-300.985976744896
738533.38855683279689401388,-2.04947050386059,-14.9186681722465,-301.050599688711
738533.38855692325159907341,-2.02177495651112,-14.854045228431,-301.004440443129
738533.38855701370630413294,-1.9571520126957,-14.8263496810816,-300.995208594012
738533.38855710404459387064,-1.9571520126957,-14.8078859828486,-300.995208594012
738533.38855719449929893017,-1.98484756004517,-14.8355815301981,-301.032135990478
738533.38855728495400398970,-1.94792016357921,-14.7894222846156,-301.078295236061
738533.38855737540870904922,-2.0402386547441,-14.9186681722465,-301.050599688711
738533.38855746586341410875,-2.00331125827815,-14.8355815301981,-301.004440443129
738533.38855755631811916828,-2.10486159855953,-14.9463637195959,-301.041367839595
738533.38855764677282422781,-2.04947050386059,-14.9002044740135,-301.032135990478
738533.38855773722752928734,-1.92945646534623,-14.7986541337321,-301.041367839595
738533.38855782756581902504,-2.03100680562761,-14.8817407757805,-300.967513046663
738533.38855791802052408457,-2.08639790032655,-14.9463637195959,-301.050599688711
738533.38855800847522914410,-1.94792016357921,-14.8263496810816,-301.032135990478
738533.38855809892993420362,-2.02177495651112,-14.8817407757805,-301.050599688711
738533.38855818938463926315,-1.97561571092868,-14.854045228431,-301.022904141362
738533.38855827983934432268,-1.90176091799676,-14.7432630390332,-301.022904141362
738533.38855837029404938221,-1.80021057771538,-14.6971037934507,-301.013672292245
738533.38855846063233911991,-1.92945646534623,-14.7894222846156,-300.995208594012
738533.38855855108704417944,-1.96638386181219,-14.8355815301981,-300.976744895779
738533.38855864154174923897,-1.92022461622974,-14.7617267372662,-300.967513046663
738533.38855873199645429850,-1.99407940916166,-14.8448133793146,-300.985976744896
738533.38855882245115935802,-2.03100680562761,-14.8632770775475,-300.958281197546
738533.38855891290586441755,-2.0402386547441,-14.9002044740135,-300.976744895779
738533.38855900336056947708,-1.99407940916166,-14.8171178319651,-300.967513046663
738533.38855909381527453661,-2.07716605121006,-14.9186681722465,-300.985976744896
738533.38855918415356427431,-2.02177495651112,-14.8632770775475,-300.985976744896
738533.38855927460826933384,-2.10486159855953,-14.9463637195959,-301.004440443129
738533.38855936506297439337,-2.14178899502548,-14.9832911160619,-300.995208594012
738533.38855945551767945290,-2.11409344767602,-14.9555955687124,-300.995208594012
738533.38855954597238451242,-2.0402386547441,-14.8632770775475,-300.985976744896
738533.38855963642708957195,-2.14178899502548,-14.90943632313,-300.967513046663
738533.38855972688179463148,-2.17871639149144,-14.872508926664,-301.022904141362
738533.38855981733649969101,-1.96638386181219,-14.6971037934507,-300.985976744896
738533.38855990767478942871,-1.55095065157018,-14.3185979796747,-300.893658253731
738533.38855999812949448824,-1.23706778160955,-14.1247291482284,-300.819803460799
738533.38856008858419954777,-0.941648609881893,-14.3647572252571,-300.810571611682
738533.38856017903890460730,-0.618533890804773,-15.0848414563433,-300.930585650197
738533.38856026949360966682,-1.05243079927976,-15.6849116489151,-301.004440443129
738533.38856035994831472635,-1.42170476393933,-15.5279702139348,-301.10599078341
738533.38856045040301978588,-1.92022461622974,-15.3802606280709,-301.096758934294
738533.38856054074130952358,-2.09562974944304,-15.1771599475082,-301.041367839595
738533.38856063119601458311,-2.0402386547441,-14.9463637195959,-300.985976744896
738533.38856072165071964264,-2.06793420209357,-14.9186681722465,-300.985976744896
738533.38856081210542470217,-2.15102084414197,-14.9463637195959,-300.995208594012
738533.38856090256012976170,-2.14178899502548,-14.927900021363,-300.985976744896
738533.38856099301483482122,-2.0402386547441,-14.8078859828486,-300.985976744896
738533.38856108346953988075,-1.96638386181219,-14.7432630390332,-300.967513046663
738533.38856117392424494028,-2.08639790032655,-14.8448133793146,-300.995208594012
738533.38856126426253467798,-2.13255714590899,-14.890972624897,-300.976744895779
738533.38856135471723973751,-2.13255714590899,-14.872508926664,-300.995208594012
738533.38856144517194479704,-2.09562974944304,-14.854045228431,-301.013672292245
738533.38856153562664985657,-2.04947050386059,-14.7894222846156,-301.022904141362
738533.38856162608135491610,-2.05870235297708,-14.8078859828486,-301.022904141362
738533.38856171653605997562,-2.02177495651112,-14.7432630390332,-300.985976744896
738533.38856180699076503515,-2.04947050386059,-14.7894222846156,-301.059831537828
738533.38856189744547009468,-1.8740653706473,-14.5863216040529,-301.013672292245
738533.38856198778375983238,-1.9571520126957,-14.6601763969848,-301.004440443129
738533.38856207823846489191,-2.07716605121006,-14.7801904354991,-301.004440443129
738533.38856216869316995144,-2.05870235297708,-14.7432630390332,-301.032135990478
738533.38856225914787501097,-1.91099276711325,-14.5955534531693,-300.985976744896
738533.38856234960258007050,-1.93868831446272,-14.5955534531693,-300.939817499313
738533.38856244005728513002,-1.92945646534623,-14.6047853022858,-301.013672292245
738533.38856253051199018955,-1.8740653706473,-14.5309305093539,-300.985976744896
738533.38856262085027992725,-1.80944242683187,-14.4847712637715,-300.930585650197
738533.38856271130498498678,-1.72635578478347,-14.4109164708396,-300.939817499313
738533.38856280175969004631,-1.82790612506485,-14.5493942075869,-300.958281197546
738533.38856289221439510584,-1.78174687948241,-14.5309305093539,-300.912121951964
738533.38856298266910016537,-1.83713797418134,-14.6232490005188,-300.958281197546
738533.38856307312380522490,-1.78174687948241,-14.5678579058199,-300.902890102847
738533.38856316357851028442,-1.81867427594836,-14.6417126987518,-300.902890102847
738533.38856325403321534395,-1.89252906888028,-14.7063356425672,-300.902890102847
738533.38856334437150508165,-1.80944242683187,-14.6601763969848,-300.912121951964
738533.38856343482621014118,-1.92022461622974,-14.7432630390332,-300.875194555498
738533.38856352528091520071,-1.97561571092868,-14.7986541337321,-300.92135380108
738533.38856361573562026024,-1.94792016357921,-14.7801904354991,-300.94904934843
738533.38856370619032531977,-2.06793420209357,-14.9002044740135,-300.810571611682
738533.38856379664503037930,-2.04947050386059,-14.8817407757805,-300.856730857265
738533.38856388709973543882,-2.08639790032655,-14.90943632313,-301.013672292245
738533.38856397755444049835,-2.0402386547441,-14.8817407757805,-301.050599688711
738533.38856406789273023605,-2.02177495651112,-14.854045228431,-301.032135990478
738533.38856415834743529558,-1.96638386181219,-14.8078859828486,-301.013672292245
738533.38856424880214035511,-1.96638386181219,-14.7801904354991,-300.967513046663
738533.38856433925684541464,-1.98484756004517,-14.8171178319651,-300.958281197546
738533.38856442971155047417,-1.99407940916166,-14.7986541337321,-300.939817499313
738533.38856452016625553370,-2.01254310739463,-14.854045228431,-300.995208594012
738533.38856461062096059322,-2.05870235297708,-14.872508926664,-300.94904934843
738533.38856470095925033092,-2.09562974944304,-14.90943632313,-300.985976744896
738533.38856479141395539045,-1.99407940916166,-14.7894222846156,-300.985976744896
738533.38856488186866044998,-2.02177495651112,-14.8355815301981,-300.958281197546
738533.38856497232336550951,-2.06793420209357,-14.854045228431,-300.94904934843
738533.38856506277807056904,-2.06793420209357,-14.8632770775475,-301.013672292245
738533.38856515323277562857,-2.03100680562761,-14.8355815301981,-301.004440443129
738533.38856524368748068810,-2.07716605121006,-14.8817407757805,-300.958281197546
738533.38856533414218574762,-1.96638386181219,-14.7801904354991,-300.967513046663
738533.38856542448047548532,-2.00331125827815,-14.8171178319651,-300.976744895779
738533.38856551493518054485,-2.06793420209357,-14.890972624897,-300.995208594012
738533.38856560538988560438,-2.06793420209357,-14.8817407757805,-301.004440443129
738533.38856569584459066391,-2.08639790032655,-14.90943632313,-301.004440443129
738533.38856578629929572344,-2.06793420209357,-14.8817407757805,-301.041367839595
738533.38856587675400078297,-2.02177495651112,-14.8355815301981,-301.032135990478
738533.38856596720870584249,-2.03100680562761,-14.8263496810816,-300.967513046663
738533.38856605766341090202,-1.94792016357921,-14.7617267372662,-300.995208594012
738533.38856614800170063972,-1.90176091799676,-14.6971037934507,-300.995208594012
738533.38856623845640569925,-1.94792016357921,-14.7524948881497,-300.995208594012
738533.38856632891111075878,-2.00331125827815,-14.7894222846156,-301.013672292245
738533.38856641936581581831,-2.0402386547441,-14.8171178319651,-301.022904141362
738533.38856650982052087784,-2.05870235297708,-14.8355815301981,-300.995208594012
738533.38856660027522593737,-2.09562974944304,-14.8817407757805,-301.022904141362
738533.38856669072993099689,-2.09562974944304,-14.890972624897,-300.995208594012
738533.38856678106822073460,-2.09562974944304,-14.8632770775475,-301.022904141362
738533.38856687152292579412,-2.17871639149144,-14.9648274178289,-300.985976744896
738533.38856696197763085365,-2.16948454237495,-14.9371318704794,-300.94904934843
738533.38856705243233591318,-2.1233252967925,-14.9002044740135,-300.939817499313
738533.38856714288704097271,-2.11409344767602,-14.8817407757805,-300.939817499313
738533.38856723334174603224,-2.09562974944304,-14.8632770775475,-300.782876064333
738533.38856732379645109177,-2.19718008972442,-14.872508926664,-300.930585650197
738533.38856741425115615129,-2.16948454237495,-14.8263496810816,-300.967513046663
738533.38856750458944588900,-1.92022461622974,-14.5955534531693,-300.976744895779
738533.38856759504415094852,-1.76328318124943,-14.4478438673055,-300.939817499313
738533.38856768549885600805,-1.45863216040529,-14.1985839411603,-300.782876064333
738533.38856777595356106758,-0.932416760765404,-14.6878719443342,-300.829035309915
738533.38856786640826612711,-0.793939024018067,-15.3710287789544,-300.995208594012
738533.38856795686297118664,-1.32015442365795,-15.703375347148,-301.096758934294
738533.38856804731767624617,-1.80021057771538,-15.5741294595172,-301.032135990478
738533.38856813777238130569,-2.10486159855953,-15.2787102877895,-300.985976744896
738533.38856822811067104340,-2.02177495651112,-15.0017548142949,-300.976744895779
738533.38856831856537610292,-2.06793420209357,-14.927900021363,-301.004440443129
738533.38856840902008116245,-2.07716605121006,-14.90943632313,-300.976744895779
738533.38856849947478622198,-2.14178899502548,-14.927900021363,-300.985976744896
738533.38856858992949128151,-2.15102084414197,-14.9463637195959,-300.976744895779
738533.38856868038419634104,-2.22487563707389,-14.9832911160619,-300.976744895779
738533.38856877083890140057,-2.13255714590899,-14.90943632313,-300.94904934843
738533.38856886117719113827,-2.15102084414197,-14.90943632313,-300.976744895779
738533.38856895163189619780,-2.05870235297708,-14.8355815301981,-300.930585650197
738533.38856904208660125732,-2.07716605121006,-14.8355815301981,-300.939817499313
738533.38856913254130631685,-2.16948454237495,-14.927900021363,-300.976744895779
738533.38856922299601137638,-2.14178899502548,-14.8817407757805,-300.930585650197
738533.38856931345071643591,-2.09562974944304,-14.8355815301981,-301.013672292245
738533.38856940390542149544,-2.03100680562761,-14.7524948881497,-301.013672292245
738533.38856949436012655497,-2.07716605121006,-14.7894222846156,-301.004440443129
738533.38856958469841629267,-2.05870235297708,-14.7894222846156,-300.912121951964
738533.38856967515312135220,-2.10486159855953,-14.7894222846156,-300.884426404614
738533.38856976560782641172,-2.02177495651112,-14.7063356425672,-300.939817499313
738533.38856985606253147125,-1.94792016357921,-14.6047853022858,-300.912121951964
738533.38856994651723653078,-2.08639790032655,-14.7340311899167,-300.94904934843
738533.38857003697194159031,-2.00331125827815,-14.6140171514023,-300.94904934843
738533.38857012742664664984,-1.92022461622974,-14.5401623584704,-300.939817499313
738533.38857021788135170937,-1.91099276711325,-14.5124668111209,-300.912121951964
738533.38857030821964144707,-1.7909787285989,-14.438612018189,-300.810571611682
738533.38857039867434650660,-1.81867427594836,-14.4478438673055,-300.912121951964
738533.38857048912905156612,-1.88329721976379,-14.5586260567034,-300.94904934843
738533.38857057958375662565,-1.82790612506485,-14.5124668111209,-300.856730857265
738533.38857067003846168518,-1.81867427594836,-14.5678579058199,-300.92135380108
738533.38857076049316674471,-1.8740653706473,-14.6140171514023,-300.782876064333
738533.38857085094787180424,-1.91099276711325,-14.6786400952177,-300.829035309915
738533.38857094128616154194,-1.91099276711325,-14.6509445478683,-300.939817499313
738533.38857103174086660147,-1.92945646534623,-14.6971037934507,-300.94904934843
738533.38857112219557166100,-1.92022461622974,-14.6601763969848,-300.94904934843
738533.38857121265027672052,-1.91099276711325,-14.6694082461013,-300.92135380108
738533.38857130310498178005,-1.96638386181219,-14.7247993408002,-300.939817499313
738533.38857139355968683958,-2.04947050386059,-14.7986541337321,-300.875194555498
738533.38857148401439189911,-2.10486159855953,-14.854045228431,-300.884426404614
738533.38857157446909695864,-2.09562974944304,-14.8355815301981,-300.865962706381
738533.38857166480738669634,-2.08639790032655,-14.8448133793146,-300.893658253731
738533.38857175526209175587,-2.02177495651112,-14.7801904354991,-300.912121951964
738533.38857184571679681540,-2.02177495651112,-14.7986541337321,-300.92135380108
738533.38857193617150187492,-1.9571520126957,-14.7432630390332,-300.967513046663
738533.38857202662620693445,-1.90176091799676,-14.6878719443342,-300.94904934843
738533.38857211708091199398,-1.98484756004517,-14.7709585863826,-300.902890102847
738533.38857220753561705351,-2.11409344767602,-14.9371318704794,-300.902890102847
738533.38857229799032211304,-1.99407940916166,-14.8078859828486,-300.94904934843
738533.38857238832861185074,-2.11409344767602,-14.9463637195959,-300.985976744896
738533.38857247878331691027,-2.1233252967925,-14.9463637195959,-300.884426404614
738533.38857256923802196980,-2.02177495651112,-14.8448133793146,-300.94904934843
738533.38857265969272702932,-2.03100680562761,-14.872508926664,-300.92135380108
738533.38857275014743208885,-2.15102084414197,-14.9740592669454,-300.893658253731
738533.38857284060213714838,-2.03100680562761,-14.8817407757805,-300.884426404614
738533.38857293105684220791,-2.08639790032655,-14.9371318704794,-300.958281197546
738533.38857302139513194561,-2.05870235297708,-14.90943632313,-300.985976744896
738533.38857311184983700514,-1.96638386181219,-14.7986541337321,-300.958281197546
738533.38857320230454206467,-1.99407940916166,-14.8448133793146,-300.930585650197
738533.38857329275924712420,-1.99407940916166,-14.854045228431,-300.958281197546
738533.38857338321395218372,-2.08639790032655,-14.9463637195959,-300.985976744896
738533.38857347366865724325,-2.04947050386059,-14.890972624897,-300.94904934843
738533.38857356412336230278,-1.97561571092868,-14.7986541337321,-300.912121951964
738533.38857365457806736231,-1.85560167241432,-14.6878719443342,-300.967513046663
738533.38857374491635710001,-1.98484756004517,-14.8078859828486,-300.94904934843
738533.38857383537106215954,-1.97561571092868,-14.7709585863826,-300.865962706381
738533.38857392582576721907,-1.97561571092868,-14.7432630390332,-300.930585650197
738533.38857401628047227859,-2.03100680562761,-14.8078859828486,-300.967513046663
738533.38857410673517733812,-2.11409344767602,-14.90943632313,-300.92135380108
738533.38857419718988239765,-2.13255714590899,-14.9463637195959,-300.967513046663
738533.38857428764458745718,-2.08639790032655,-14.8632770775475,-300.856730857265
738533.38857437809929251671,-1.94792016357921,-14.7709585863826,-300.884426404614
738533.38857446843758225441,-2.15102084414197,-14.9463637195959,-300.930585650197
738533.38857455889228731394,-2.13255714590899,-14.9463637195959,-300.976744895779
738533.38857464934699237347,-2.10486159855953,-14.9186681722465,-300.985976744896
738533.38857473980169743299,-2.16025269325846,-15.0109866634114,-300.985976744896
738533.38857483025640249252,-2.18794824060793,-14.9925229651784,-300.985976744896
738533.38857492071110755205,-2.1233252967925,-14.854045228431,-301.004440443129
738533.38857501116581261158,-2.13255714590899,-14.8078859828486,-300.995208594012
738533.38857510162051767111,-1.97561571092868,-14.6786400952177,-300.930585650197
738533.38857519195880740881,-1.56941434980316,-14.2632068849757,-300.79210791345
738533.38857528241351246834,-1.33861812189093,-14.2447431867428,-300.782876064333
738533.38857537286821752787,-0.747779778435621,-14.7617267372662,-300.856730857265
738533.38857546332292258739,-0.886257515182958,-15.4818109683523,-300.967513046663
738533.38857555377762764692,-1.46786400952177,-15.721839045381,-301.069063386944
738533.38857564423233270645,-1.86483352153081,-15.4818109683523,-301.013672292245
738533.38857573468703776598,-2.03100680562761,-15.1679280983917,-300.985976744896
738533.38857582502532750368,-2.03100680562761,-14.9925229651784,-300.939817499313
738533.38857591548003256321,-2.07716605121006,-14.9740592669454,-300.930585650197
738533.38857600593473762274,-2.14178899502548,-14.9925229651784,-300.92135380108
738533.38857609638944268227,-2.1233252967925,-14.9740592669454,-300.92135380108
738533.38857618684414774179,-2.09562974944304,-14.90943632313,-300.902890102847
738533.38857627729885280132,-2.15102084414197,-14.9555955687124,-300.912121951964
738533.38857636775355786085,-2.13255714590899,-14.890972624897,-300.893658253731
738533.38857645820826292038,-2.1233252967925,-14.8817407757805,-300.939817499313
738533.38857654854655265808,-2.06793420209357,-14.7894222846156,-300.875194555498
738533.38857663900125771761,-2.09562974944304,-14.8355815301981,-300.893658253731
738533.38857672945596277714,-2.07716605121006,-14.7894222846156,-300.92135380108
738533.38857681991066783667,-2.02177495651112,-14.7524948881497,-300.92135380108
738533.38857691036537289619,-2.02177495651112,-14.7524948881497,-300.893658253731
738533.38857700082007795572,-2.06793420209357,-14.7894222846156,-300.865962706381
738533.38857709127478301525,-2.14178899502548,-14.8817407757805,-300.902890102847
738533.38857718172948807478,-2.13255714590899,-14.8448133793146,-300.92135380108
738533.38857727206777781248,-2.03100680562761,-14.7709585863826,-300.912121951964
738533.38857736252248287201,-2.00331125827815,-14.6878719443342,-300.893658253731
738533.38857745297718793154,-1.99407940916166,-14.6694082461013,-300.893658253731
738533.38857754343189299107,-1.90176091799676,-14.5401623584704,-300.884426404614
738533.38857763388659805059,-1.94792016357921,-14.5770897549364,-300.902890102847
738533.38857772434130311012,-1.92022461622974,-14.5401623584704,-300.838267159032
738533.38857781479600816965,-1.97561571092868,-14.6140171514023,-300.709021271401
738533.38857790513429790735,-1.8740653706473,-14.5216986602374,-300.727484969634
738533.38857799558900296688,-1.81867427594836,-14.494003112888,-300.838267159032
738533.38857808604370802641,-1.84636982329783,-14.5586260567034,-300.847499008148
738533.38857817649841308594,-1.78174687948241,-14.5401623584704,-300.884426404614
738533.38857826695311814547,-1.77251503036592,-14.5586260567034,-300.893658253731
738533.38857835740782320499,-1.81867427594836,-14.6324808496353,-300.856730857265
738533.38857844786252826452,-1.80021057771538,-14.6324808496353,-300.856730857265
738533.38857853831723332405,-1.94792016357921,-14.7709585863826,-300.930585650197
738533.38857862865552306175,-2.00331125827815,-14.8263496810816,-300.930585650197
738533.38857871911022812128,-1.9571520126957,-14.7801904354991,-300.967513046663
738533.38857880956493318081,-1.98484756004517,-14.7986541337321,-300.902890102847
738533.38857890001963824034,-1.9571520126957,-14.7617267372662,-300.958281197546
738533.38857899047434329987,-2.04947050386059,-14.872508926664,-300.958281197546
738533.38857908092904835939,-2.02177495651112,-14.8355815301981,-300.939817499313
738533.38857917138375341892,-1.99407940916166,-14.8171178319651,-300.94904934843
738533.38857926183845847845,-1.99407940916166,-14.8078859828486,-300.930585650197
738533.38857935217674821615,-2.08639790032655,-14.9186681722465,-300.958281197546
738533.38857944263145327568,-2.09562974944304,-14.90943632313,-300.92135380108
738533.38857953308615833521,-2.00331125827815,-14.8171178319651,-300.939817499313
738533.38857962354086339474,-2.00331125827815,-14.8263496810816,-300.939817499313
738533.38857971399556845427,-2.07716605121006,-14.890972624897,-300.912121951964
738533.38857980445027351379,-1.92945646534623,-14.7524948881497,-300.94904934843
738533.38857989490497857332,-2.00331125827815,-14.8263496810816,-300.94904934843
738533.38857998524326831102,-1.99407940916166,-14.8171178319651,-300.958281197546
738533.38858007569797337055,-2.09562974944304,-14.890972624897,-300.912121951964
738533.38858016615267843008,-1.99407940916166,-14.8171178319651,-300.856730857265
738533.38858025660738348961,-2.07716605121006,-14.890972624897,-300.865962706381
738533.38858034706208854914,-2.04947050386059,-14.872508926664,-300.875194555498
738533.38858043751679360867,-2.09562974944304,-14.9002044740135,-300.819803460799
738533.38858052797149866819,-2.05870235297708,-14.9002044740135,-300.829035309915
738533.38858061842620372772,-1.98484756004517,-14.8355815301981,-300.829035309915
738533.38858070876449346542,-2.06793420209357,-14.9186681722465,-300.847499008148
738533.38858079921919852495,-2.08639790032655,-14.927900021363,-300.884426404614
738533.38858088967390358448,-2.00331125827815,-14.8448133793146,-300.912121951964
738533.38858098012860864401,-1.97561571092868,-14.8263496810816,-300.912121951964
738533.38858107058331370354,-2.0402386547441,-14.8632770775475,-300.884426404614
738533.38858116103801876307,-1.89252906888028,-14.7432630390332,-300.856730857265
738533.38858125149272382259,-1.92022461622974,-14.7617267372662,-300.865962706381
738533.38858134194742888212,-1.92945646534623,-14.7617267372662,-300.810571611682
738533.38858143228571861982,-2.03100680562761,-14.8355815301981,-300.801339762566
738533.38858152274042367935,-2.06793420209357,-14.90943632313,-300.930585650197
738533.38858161319512873888,-2.07716605121006,-14.9002044740135,-300.939817499313
738533.38858170364983379841,-2.06793420209357,-14.90943632313,-300.94904934843
738533.38858179410453885794,-2.09562974944304,-14.9186681722465,-300.94904934843
738533.38858188455924391747,-2.07716605121006,-14.90943632313,-300.893658253731
738533.38858197501394897699,-2.05870235297708,-14.872508926664,-300.930585650197
738533.38858206535223871469,-2.06793420209357,-14.9002044740135,-300.865962706381
738533.38858215580694377422,-2.15102084414197,-14.9555955687124,-300.92135380108
738533.38858224626164883375,-2.14178899502548,-14.9832911160619,-300.930585650197
738533.38858233671635389328,-2.09562974944304,-14.9186681722465,-300.912121951964
738533.38858242717105895281,-2.1233252967925,-14.927900021363,-300.985976744896
738533.38858251762576401234,-2.23410748619037,-14.9186681722465,-300.94904934843
738533.38858260808046907187,-2.22487563707389,-14.890972624897,-300.939817499313
738533.38858269853517413139,-1.9571520126957,-14.6971037934507,-300.782876064333
738533.38858278887346386909,-1.64326914273507,-14.3093661305582,-300.819803460799
738533.38858287932816892862,-1.20014038514359,-14.1616565446944,-300.79210791345
738533.38858296978287398815,-0.701620532853175,-14.7247993408002,-300.829035309915
738533.38858306023757904768,-0.86779381694998,-15.4818109683523,-301.004440443129
738533.38858315069228410721,-1.46786400952177,-15.7310708944975,-301.10599078341
738533.38858324114698916674,-1.89252906888028,-15.5187383648183,-301.059831537828
738533.38858333160169422626,-2.10486159855953,-15.2140873439741,-301.004440443129
738533.38858342205639928579,-2.05870235297708,-15.0109866634114,-301.004440443129
738533.38858351239468902349,-2.09562974944304,-14.9371318704794,-300.995208594012
738533.38858360284939408302,-2.11409344767602,-14.927900021363,-300.92135380108
738533.38858369330409914255,-2.05870235297708,-14.8355815301981,-300.967513046663
738533.38858378375880420208,-2.08639790032655,-14.854045228431,-300.94904934843
738533.38858387421350926161,-2.14178899502548,-14.9002044740135,-300.912121951964
738533.38858396466821432114,-2.16948454237495,-14.9186681722465,-300.958281197546
738533.38858405512291938066,-2.0402386547441,-14.7894222846156,-300.939817499313
738533.38858414546120911837,-2.07716605121006,-14.8263496810816,-300.976744895779
738533.38858423591591417789,-2.1233252967925,-14.8632770775475,-300.930585650197
738533.38858432637061923742,-2.16025269325846,-14.872508926664,-300.94904934843
738533.38858441682532429695,-2.15102084414197,-14.8632770775475,-300.94904934843
738533.38858450728002935648,-2.1233252967925,-14.8263496810816,-300.94904934843
738533.38858459773473441601,-2.0402386547441,-14.7709585863826,-300.930585650197
738533.38858468818943947554,-2.08639790032655,-14.7801904354991,-300.939817499313
738533.38858477864414453506,-2.01254310739463,-14.7340311899167,-300.967513046663
738533.38858486898243427277,-2.07716605121006,-14.7709585863826,-300.810571611682
738533.38858495943713933229,-2.08639790032655,-14.7709585863826,-300.810571611682
738533.38858504989184439182,-1.93868831446272,-14.6047853022858,-300.912121951964
738533.38858514034654945135,-1.92022461622974,-14.5863216040529,-300.865962706381
738533.38858523080125451088,-2.0402386547441,-14.6878719443342,-300.893658253731
738533.38858532125595957041,-1.92945646534623,-14.5770897549364,-300.865962706381
738533.38858541171066462994,-1.80944242683187,-14.4663075655385,-300.801339762566
738533.38858550216536968946,-1.86483352153081,-14.5216986602374,-300.856730857265
738533.38858559250365942717,-1.85560167241432,-14.5493942075869,-300.875194555498
738533.38858568295836448669,-1.76328318124943,-14.475539414655,-300.810571611682
738533.38858577341306954622,-1.81867427594836,-14.5770897549364,-300.819803460799
738533.38858586386777460575,-1.8740653706473,-14.6417126987518,-300.819803460799
738533.38858595432247966528,-1.80944242683187,-14.6324808496353,-300.819803460799
738533.38858604477718472481,-1.80944242683187,-14.6232490005188,-300.782876064333
738533.38858613523188978434,-1.88329721976379,-14.7155674916837,-300.847499008148
738533.38858622557017952204,-1.96638386181219,-14.7709585863826,-300.847499008148
738533.38858631602488458157,-1.97561571092868,-14.8078859828486,-300.884426404614
738533.38858640647958964109,-1.98484756004517,-14.7986541337321,-300.865962706381
738533.38858649693429470062,-2.01254310739463,-14.8355815301981,-300.912121951964
738533.38858658738899976015,-1.97561571092868,-14.7894222846156,-300.939817499313
738533.38858667784370481968,-2.00331125827815,-14.8171178319651,-300.847499008148
738533.38858676829840987921,-2.01254310739463,-14.8448133793146,-300.902890102847
738533.38858685875311493874,-1.9571520126957,-14.7801904354991,-300.939817499313
738533.38858694909140467644,-2.01254310739463,-14.8355815301981,-300.847499008148
738533.38858703954610973597,-2.05870235297708,-14.8632770775475,-300.912121951964
738533.38858713000081479549,-2.0402386547441,-14.8632770775475,-300.902890102847
738533.38858722045551985502,-2.00331125827815,-14.8263496810816,-300.893658253731
738533.38858731091022491455,-1.9571520126957,-14.7894222846156,-300.912121951964
738533.38858740136492997408,-2.07716605121006,-14.9002044740135,-300.92135380108
738533.38858749181963503361,-2.05870235297708,-14.890972624897,-300.92135380108
738533.38858758227434009314,-2.03100680562761,-14.8448133793146,-300.884426404614
738533.38858767261262983084,-1.9571520126957,-14.7894222846156,-300.930585650197
738533.38858776306733489037,-1.99407940916166,-14.7986541337321,-300.912121951964
738533.38858785352203994989,-2.00331125827815,-14.8448133793146,-300.865962706381
738533.38858794397674500942,-2.08639790032655,-14.890972624897,-300.92135380108
738533.38858803443145006895,-2.0402386547441,-14.8632770775475,-300.92135380108
738533.38858812488615512848,-2.07716605121006,-14.890972624897,-300.875194555498
738533.38858821534086018801,-2.10486159855953,-14.927900021363,-300.875194555498
738533.38858830567914992571,-2.03100680562761,-14.872508926664,-300.92135380108
738533.38858839613385498524,-1.98484756004517,-14.8171178319651,-300.875194555498
738533.38858848658856004477,-2.03100680562761,-14.8632770775475,-300.782876064333
738533.38858857704326510429,-2.04947050386059,-14.854045228431,-300.930585650197
738533.38858866749797016382,-1.92945646534623,-14.7801904354991,-300.92135380108
738533.38858875795267522335,-2.0402386547441,-14.872508926664,-300.912121951964
738533.38858884840738028288,-2.02177495651112,-14.8632770775475,-300.912121951964
738533.38858893886208534241,-1.96638386181219,-14.8078859828486,-300.893658253731
738533.38858902920037508011,-1.8740653706473,-14.7247993408002,-300.875194555498
738533.38858911965508013964,-1.9571520126957,-14.7709585863826,-300.865962706381
738533.38858921010978519917,-1.96638386181219,-14.8078859828486,-300.912121951964
738533.38858930056449025869,-1.99407940916166,-14.8171178319651,-300.893658253731
738533.38858939101919531822,-1.93868831446272,-14.7617267372662,-300.838267159032
738533.38858948147390037775,-1.97561571092868,-14.8078859828486,-300.902890102847
738533.38858957192860543728,-2.13255714590899,-14.9648274178289,-300.92135380108
738533.38858966238331049681,-2.16025269325846,-14.9740592669454,-300.856730857265
738533.38858975272160023451,-2.14178899502548,-14.9648274178289,-300.930585650197
738533.38858984317630529404,-2.09562974944304,-14.9186681722465,-300.912121951964
738533.38858993363101035357,-2.11409344767602,-14.9463637195959,-300.902890102847
738533.38859002408571541309,-2.02177495651112,-14.8448133793146,-300.856730857265
738533.38859011454042047262,-2.03100680562761,-14.8632770775475,-300.912121951964
738533.38859020499512553215,-2.13255714590899,-14.9555955687124,-300.856730857265
738533.38859029544983059168,-2.1233252967925,-14.8448133793146,-300.847499008148
738533.38859038578812032938,-2.03100680562761,-14.7801904354991,-300.856730857265
738533.38859047624282538891,-1.84636982329783,-14.5955534531693,-300.782876064333
738533.38859056669753044844,-1.45863216040529,-14.1524246955779,-300.699789422285
738533.38859065715223550797,-0.987807855464339,-14.4016846217231,-300.699789422285
738533.38859074760694056749,-0.729316080202643,-15.1956236457411,-300.838267159032
738533.38859083806164562702,-0.987807855464339,-15.5372020630512,-300.958281197546
738533.38859092851635068655,-1.58787804803613,-15.5925931577502,-301.032135990478
738533.38859101897105574608,-2.00331125827815,-15.343333231605,-300.995208594012
738533.38859110930934548378,-2.03100680562761,-15.0848414563433,-300.995208594012
738533.38859119976405054331,-1.9571520126957,-14.8817407757805,-300.847499008148
738533.38859129021875560284,-2.05870235297708,-14.90943632313,-300.912121951964
738533.38859138067346066236,-2.07716605121006,-14.9002044740135,-300.939817499313
738533.38859147112816572189,-2.11409344767602,-14.90943632313,-300.912121951964
738533.38859156158287078142,-1.96638386181219,-14.7801904354991,-300.902890102847
738533.38859165203757584095,-2.00331125827815,-14.7894222846156,-300.912121951964
738533.38859174249228090048,-2.07716605121006,-14.8448133793146,-300.912121951964
738533.38859183283057063818,-2.16948454237495,-14.9371318704794,-300.893658253731
738533.38859192328527569771,-2.13255714590899,-14.90943632313,-300.902890102847
738533.38859201373998075724,-2.07716605121006,-14.8448133793146,-300.782876064333
738533.38859210419468581676,-2.04947050386059,-14.8263496810816,-300.884426404614
738533.38859219464939087629,-2.0402386547441,-14.7986541337321,-300.912121951964
738533.38859228510409593582,-2.05870235297708,-14.8171178319651,-300.92135380108
738533.38859237555880099535,-1.99407940916166,-14.7432630390332,-300.893658253731
738533.38859246589709073305,-1.99407940916166,-14.7432630390332,-300.865962706381
738533.38859255635179579258,-1.98484756004517,-14.7063356425672,-300.893658253731
738533.38859264680650085211,-1.93868831446272,-14.6417126987518,-300.884426404614
738533.38859273726120591164,-1.91099276711325,-14.6324808496353,-300.801339762566
738533.38859282771591097116,-2.00331125827815,-14.6786400952177,-300.884426404614
738533.38859291817061603069,-1.97561571092868,-14.6601763969848,-300.875194555498
738533.38859300862532109022,-1.92022461622974,-14.6047853022858,-300.819803460799
738533.38859309908002614975,-1.82790612506485,-14.5216986602374,-300.847499008148
738533.38859318941831588745,-1.75405133213294,-14.4293801690725,-300.838267159032
738533.38859327987302094698,-1.76328318124943,-14.4663075655385,-300.838267159032
738533.38859337032772600651,-1.64326914273507,-14.3739890743736,-300.819803460799
738533.38859346078243106604,-1.76328318124943,-14.5401623584704,-300.847499008148
738533.38859355123713612556,-1.80944242683187,-14.5955534531693,-300.847499008148
738533.38859364169184118509,-1.80944242683187,-14.6509445478683,-300.819803460799
738533.38859373214654624462,-1.86483352153081,-14.6971037934507,-300.875194555498
738533.38859382260125130415,-1.86483352153081,-14.7247993408002,-300.875194555498
738533.38859391293954104185,-1.83713797418134,-14.7063356425672,-300.865962706381
738533.38859400339424610138,-1.83713797418134,-14.6971037934507,-300.865962706381
738533.38859409384895116091,-1.88329721976379,-14.7617267372662,-300.893658253731
738533.38859418430365622044,-1.88329721976379,-14.7524948881497,-300.893658253731
738533.38859427475836127996,-1.86483352153081,-14.7340311899167,-300.847499008148
738533.38859436521306633949,-1.91099276711325,-14.7709585863826,-300.893658253731
738533.38859445566777139902,-1.99407940916166,-14.872508926664,-300.847499008148
738533.38859454600606113672,-2.06793420209357,-14.927900021363,-300.847499008148
738533.38859463646076619625,-1.92945646534623,-14.8171178319651,-300.865962706381
738533.38859472691547125578,-1.88329721976379,-14.7340311899167,-300.856730857265
738533.38859481737017631531,-1.99407940916166,-14.8632770775475,-300.902890102847
738533.38859490782488137484,-2.02177495651112,-14.872508926664,-300.912121951964
738533.38859499827958643436,-1.98484756004517,-14.8632770775475,-300.875194555498
738533.38859508873429149389,-1.92022461622974,-14.7801904354991,-300.865962706381
738533.38859517918899655342,-1.94792016357921,-14.8355815301981,-300.865962706381
738533.38859526952728629112,-2.00331125827815,-14.8632770775475,-300.875194555498
738533.38859535998199135065,-2.01254310739463,-14.9002044740135,-300.884426404614
738533.38859545043669641018,-1.90176091799676,-14.7709585863826,-300.690557573168
738533.38859554089140146971,-1.96638386181219,-14.8448133793146,-300.801339762566
738533.38859563134610652924,-1.93868831446272,-14.8171178319651,-300.847499008148
738533.38859572180081158876,-1.94792016357921,-14.8171178319651,-300.847499008148
738533.38859581225551664829,-1.97561571092868,-14.872508926664,-300.819803460799
738533.38859590271022170782,-1.89252906888028,-14.7524948881497,-300.838267159032
738533.38859599304851144552,-1.98484756004517,-14.872508926664,-300.912121951964
738533.38859608350321650505,-2.03100680562761,-14.9002044740135,-300.902890102847
738533.38859617395792156458,-2.00331125827815,-14.9002044740135,-300.912121951964
738533.38859626441262662411,-1.93868831446272,-14.7986541337321,-300.930585650197
738533.38859635486733168364,-2.01254310739463,-14.890972624897,-300.958281197546
738533.38859644532203674316,-2.02177495651112,-14.890972624897,-300.884426404614
738533.38859653577674180269,-2.01254310739463,-14.890972624897,-300.930585650197
738533.38859662611503154039,-1.93868831446272,-14.8078859828486,-300.902890102847
738533.38859671656973659992,-1.82790612506485,-14.7247993408002,-300.847499008148
738533.38859680702444165945,-1.91099276711325,-14.7986541337321,-300.939817499313
738533.38859689747914671898,-1.96638386181219,-14.8448133793146,-300.92135380108
738533.38859698793385177851,-1.91099276711325,-14.7709585863826,-300.829035309915
738533.38859707838855683804,-1.89252906888028,-14.7801904354991,-300.884426404614
738533.38859716884326189756,-1.83713797418134,-14.7155674916837,-300.884426404614
738533.38859725929796695709,-1.92022461622974,-14.7894222846156,-300.838267159032
738533.38859734963625669479,-1.97561571092868,-14.8355815301981,-300.847499008148
738533.38859744009096175432,-1.92022461622974,-14.7801904354991,-300.865962706381
738533.38859753054566681385,-1.96638386181219,-14.8355815301981,-300.884426404614
738533.38859762100037187338,-2.01254310739463,-14.872508926664,-300.865962706381
738533.38859771145507693291,-2.1233252967925,-14.9925229651784,-300.884426404614
738533.38859780190978199244,-2.05870235297708,-14.90943632313,-300.893658253731
738533.38859789236448705196,-2.0402386547441,-14.90943632313,-300.884426404614
738533.38859798281919211149,-1.99407940916166,-14.854045228431,-300.856730857265
738533.38859807315748184919,-2.0402386547441,-14.9186681722465,-300.912121951964
738533.38859816361218690872,-1.98484756004517,-14.8355815301981,-300.939817499313
738533.38859825406689196825,-2.05870235297708,-14.9186681722465,-300.92135380108
738533.38859834452159702778,-2.10486159855953,-14.9002044740135,-300.884426404614
738533.38859843497630208731,-2.10486159855953,-14.8448133793146,-300.939817499313
738533.38859852543100714684,-1.84636982329783,-14.6324808496353,-300.884426404614
738533.38859861588571220636,-1.50479140598773,-14.2078157902768,-300.699789422285
738533.38859870622400194407,-0.997039704580828,-14.2724387340922,-300.745948667867
738533.38859879667870700359,-0.636997589037751,-15.0109866634114,-300.865962706381
738533.38859888713341206312,-0.913953062532426,-15.5833613086337,-300.976744895779
738533.38859897758811712265,-1.5324869533372,-15.6941434980316,-300.884426404614
738533.38859906804282218218,-1.89252906888028,-15.4171880245369,-300.912121951964
738533.38859915849752724171,-1.97561571092868,-15.1125370036927,-300.92135380108
738533.38859924895223230124,-1.91099276711325,-14.890972624897,-300.865962706381
738533.38859933940693736076,-2.02177495651112,-14.9186681722465,-300.884426404614
738533.38859942974522709846,-2.03100680562761,-14.9186681722465,-300.930585650197
738533.38859952019993215799,-1.98484756004517,-14.8448133793146,-300.875194555498
738533.38859961065463721752,-2.03100680562761,-14.8632770775475,-300.884426404614
738533.38859970110934227705,-2.00331125827815,-14.8355815301981,-300.930585650197
738533.38859979156404733658,-2.02177495651112,-14.8448133793146,-300.94904934843
738533.38859988201875239611,-1.93868831446272,-14.7617267372662,-300.92135380108
738533.38859997247345745564,-1.97561571092868,-14.7801904354991,-300.939817499313
738533.38860006292816251516,-2.13255714590899,-14.9463637195959,-300.856730857265
738533.38860015326645225286,-2.07716605121006,-14.872508926664,-300.875194555498
738533.38860024372115731239,-2.00331125827815,-14.8078859828486,-300.856730857265
738533.38860033417586237192,-1.96638386181219,-14.7432630390332,-300.829035309915
738533.38860042463056743145,-1.84636982329783,-14.6509445478683,-300.838267159032
738533.38860051508527249098,-2.04947050386059,-14.8078859828486,-300.902890102847
738533.38860060553997755051,-1.93868831446272,-14.7155674916837,-300.847499008148
738533.38860069599468261003,-1.98484756004517,-14.7340311899167,-300.884426404614
738533.38860078644938766956,-1.94792016357921,-14.7063356425672,-300.902890102847
738533.38860087678767740726,-1.89252906888028,-14.6140171514023,-300.856730857265
738533.38860096724238246679,-1.80944242683187,-14.5216986602374,-300.829035309915
738533.38860105769708752632,-1.80944242683187,-14.494003112888,-300.912121951964
738533.38860114815179258585,-1.78174687948241,-14.4847712637715,-300.902890102847
738533.38860123860649764538,-1.78174687948241,-14.4663075655385,-300.838267159032
738533.38860132906120270491,-1.7909787285989,-14.475539414655,-300.829035309915
738533.38860141951590776443,-1.75405133213294,-14.475539414655,-300.865962706381
738533.38860150985419750214,-1.67096469008454,-14.4109164708396,-300.893658253731
738533.38860160030890256166,-1.60634174626911,-14.3832209234901,-300.810571611682
738533.38860169076360762119,-1.70789208655049,-14.5124668111209,-300.875194555498
738533.38860178121831268072,-1.80944242683187,-14.6509445478683,-300.92135380108
738533.38860187167301774025,-1.75405133213294,-14.6047853022858,-300.829035309915
738533.38860196212772279978,-1.83713797418134,-14.7247993408002,-300.884426404614
738533.38860205258242785931,-1.80944242683187,-14.6878719443342,-300.893658253731
738533.38860214303713291883,-1.82790612506485,-14.7247993408002,-300.884426404614
738533.38860223337542265654,-1.75405133213294,-14.6417126987518,-300.875194555498
738533.38860232383012771606,-1.8740653706473,-14.7894222846156,-300.875194555498
738533.38860241428483277559,-1.94792016357921,-14.8355815301981,-300.893658253731
738533.38860250473953783512,-1.85560167241432,-14.7340311899167,-300.727484969634
738533.38860259519424289465,-1.92945646534623,-14.7986541337321,-300.745948667867
738533.38860268564894795418,-1.98484756004517,-14.872508926664,-300.912121951964
738533.38860277610365301371,-1.91099276711325,-14.7986541337321,-300.930585650197
738533.38860286655835807323,-1.84636982329783,-14.7524948881497,-300.92135380108
738533.38860295689664781094,-1.92945646534623,-14.8263496810816,-300.884426404614
738533.38860304735135287046,-1.8740653706473,-14.7432630390332,-300.92135380108
738533.38860313780605792999,-1.91099276711325,-14.7986541337321,-300.958281197546
738533.38860322826076298952,-1.91099276711325,-14.7986541337321,-300.902890102847
738533.38860331871546804905,-1.92945646534623,-14.8263496810816,-300.912121951964
738533.38860340917017310858,-2.00331125827815,-14.8817407757805,-300.94904934843
738533.38860349962487816811,-1.88329721976379,-14.7986541337321,-300.958281197546
738533.38860358996316790581,-1.92945646534623,-14.8171178319651,-300.884426404614
738533.38860368041787296534,-1.82790612506485,-14.7247993408002,-300.912121951964
738533.38860377087257802486,-1.93868831446272,-14.8448133793146,-300.976744895779
738533.38860386132728308439,-2.0402386547441,-14.9463637195959,-300.865962706381
738533.38860395178198814392,-1.9571520126957,-14.854045228431,-300.92135380108
738533.38860404223669320345,-1.91099276711325,-14.8263496810816,-300.92135380108
738533.38860413269139826298,-1.90176091799676,-14.8078859828486,-300.902890102847
738533.38860422314610332251,-1.86483352153081,-14.7617267372662,-300.865962706381
738533.38860431348439306021,-1.93868831446272,-14.8448133793146,-300.92135380108
738533.38860440393909811974,-1.97561571092868,-14.8817407757805,-300.92135380108
738533.38860449439380317926,-1.91099276711325,-14.8263496810816,-300.847499008148
738533.38860458484850823879,-2.01254310739463,-14.90943632313,-300.92135380108
738533.38860467530321329832,-1.91099276711325,-14.8078859828486,-300.912121951964
738533.38860476575791835785,-1.92945646534623,-14.8355815301981,-300.912121951964
738533.38860485621262341738,-1.93868831446272,-14.8632770775475,-300.884426404614
738533.38860494666732847691,-1.98484756004517,-14.8817407757805,-300.912121951964
738533.38860503700561821461,-1.7909787285989,-14.7340311899167,-300.912121951964
738533.38860512746032327414,-1.78174687948241,-14.7063356425672,-300.893658253731
738533.38860521791502833366,-1.92022461622974,-14.8448133793146,-300.875194555498
738533.38860530836973339319,-1.92022461622974,-14.8263496810816,-300.893658253731
738533.38860539882443845272,-1.84636982329783,-14.7617267372662,-300.893658253731
738533.38860548927914351225,-1.7909787285989,-14.7155674916837,-300.819803460799
738533.38860557973384857178,-1.8740653706473,-14.7894222846156,-300.838267159032
738533.38860567007213830948,-1.93868831446272,-14.8448133793146,-300.755180516984
738533.38860576052684336901,-1.92022461622974,-14.8171178319651,-300.801339762566
738533.38860585098154842854,-1.77251503036592,-14.6694082461013,-300.801339762566
738533.38860594143625348806,-1.96638386181219,-14.8817407757805,-300.856730857265
738533.38860603189095854759,-2.03100680562761,-14.9463637195959,-300.782876064333
738533.38860612234566360712,-1.9571520126957,-14.8632770775475,-300.755180516984
738533.38860621280036866665,-1.93868831446272,-14.8632770775475,-300.865962706381
738533.38860630325507372618,-2.01254310739463,-14.90943632313,-300.856730857265
738533.38860639359336346388,-1.99407940916166,-14.9186681722465,-300.912121951964
738533.38860648404806852341,-1.96638386181219,-14.8632770775475,-300.865962706381
738533.38860657450277358294,-1.93868831446272,-14.854045228431,-300.856730857265
738533.38860666495747864246,-1.97561571092868,-14.7986541337321,-300.875194555498
738533.38860675541218370199,-2.02177495651112,-14.8078859828486,-300.884426404614
738533.38860684586688876152,-1.85560167241432,-14.6601763969848,-300.838267159032
738533.38860693632159382105,-1.51402325510422,-14.2632068849757,-300.801339762566
738533.38860702677629888058,-1.32015442365795,-14.1154972991119,-300.718253120518
738533.38860711711458861828,-0.840098269600513,-14.5124668111209,-300.7644123661
738533.38860720756929367781,-0.627765739921262,-15.287942136906,-300.884426404614
738533.38860729802399873734,-1.08012634662923,-15.6849116489151,-300.976744895779
738533.38860738847870379686,-1.46786400952177,-15.5095065157018,-301.013672292245
738533.38860747893340885639,-1.78174687948241,-15.1586962492752,-300.976744895779
738533.38860756938811391592,-1.73558763389996,-14.872508926664,-300.958281197546
738533.38860765984281897545,-1.92945646534623,-14.90943632313,-300.865962706381
738533.38860775018110871315,-2.02177495651112,-14.9740592669454,-300.930585650197
738533.38860784063581377268,-1.97561571092868,-14.8817407757805,-300.884426404614
738533.38860793109051883221,-2.00331125827815,-14.90943632313,-300.875194555498
738533.38860802154522389174,-2.03100680562761,-14.890972624897,-300.875194555498
738533.38860811199992895126,-1.96638386181219,-14.8355815301981,-300.930585650197
738533.38860820245463401079,-1.92022461622974,-14.7709585863826,-300.902890102847
738533.38860829290933907032,-1.89252906888028,-14.7617267372662,-300.930585650197
738533.38860838336404412985,-1.88329721976379,-14.7340311899167,-300.893658253731
738533.38860847370233386755,-1.97561571092868,-14.8171178319651,-300.94904934843
738533.38860856415703892708,-1.89252906888028,-14.7340311899167,-300.912121951964
738533.38860865461174398661,-1.97561571092868,-14.8171178319651,-300.884426404614
738533.38860874506644904613,-1.93868831446272,-14.7617267372662,-300.884426404614
738533.38860883552115410566,-1.9571520126957,-14.7709585863826,-300.902890102847
738533.38860892597585916519,-1.97561571092868,-14.7986541337321,-300.912121951964
738533.38860901643056422472,-1.92945646534623,-14.7155674916837,-300.829035309915
738533.38860910688526928425,-1.86483352153081,-14.6601763969848,-300.912121951964
738533.38860919722355902195,-1.78174687948241,-14.5493942075869,-300.912121951964
738533.38860928767826408148,-1.81867427594836,-14.5770897549364,-300.865962706381
738533.38860937813296914101,-1.7909787285989,-14.5216986602374,-300.829035309915
738533.38860946858767420053,-1.73558763389996,-14.4847712637715,-300.856730857265
738533.38860955904237926006,-1.74481948301645,-14.4847712637715,-300.7644123661
738533.38860964949708431959,-1.77251503036592,-14.5401623584704,-300.699789422285
738533.38860973995178937912,-1.68019653920103,-14.4478438673055,-300.856730857265
738533.38860983029007911682,-1.6155735953856,-14.438612018189,-300.838267159032
738533.38860992074478417635,-1.56941434980316,-14.4016846217231,-300.755180516984
738533.38861001119948923588,-1.65250099185156,-14.5401623584704,-300.856730857265
738533.38861010165419429541,-1.67096469008454,-14.5863216040529,-300.865962706381
738533.38861019210889935493,-1.59710989715262,-14.5493942075869,-300.819803460799
738533.38861028256360441446,-1.68942838831751,-14.6417126987518,-300.875194555498
738533.38861037301830947399,-1.7909787285989,-14.7524948881497,-300.902890102847
738533.38861046347301453352,-1.70789208655049,-14.6694082461013,-300.875194555498
738533.38861055381130427122,-1.74481948301645,-14.7155674916837,-300.865962706381
738533.38861064426600933075,-1.86483352153081,-14.8448133793146,-300.893658253731
738533.38861073472071439028,-1.85560167241432,-14.8263496810816,-300.893658253731
738533.38861082517541944981,-1.78174687948241,-14.7617267372662,-300.893658253731
738533.38861091563012450933,-1.68019653920103,-14.6694082461013,-300.865962706381
738533.38861100608482956886,-1.88329721976379,-14.8632770775475,-300.912121951964
738533.38861109653953462839,-1.84636982329783,-14.8171178319651,-300.884426404614
738533.38861118699423968792,-1.75405133213294,-14.7340311899167,-300.865962706381
738533.38861127733252942562,-1.83713797418134,-14.8078859828486,-300.838267159032
738533.38861136778723448515,-1.8740653706473,-14.872508926664,-300.819803460799
738533.38861145824193954468,-1.85560167241432,-14.8448133793146,-300.838267159032
738533.38861154869664460421,-1.82790612506485,-14.8171178319651,-300.875194555498
738533.38861163915134966373,-1.75405133213294,-14.7524948881497,-300.856730857265
738533.38861172960605472326,-1.90176091799676,-14.8632770775475,-300.838267159032
738533.38861182006075978279,-1.80944242683187,-14.7986541337321,-300.819803460799
738533.38861191039904952049,-1.78174687948241,-14.7709585863826,-300.847499008148
738533.38861200085375458002,-1.82790612506485,-14.8263496810816,-300.865962706381
738533.38861209130845963955,-1.92945646534623,-14.9002044740135,-300.884426404614
738533.38861218176316469908,-1.86483352153081,-14.872508926664,-300.847499008148
738533.38861227221786975861,-1.82790612506485,-14.8078859828486,-300.902890102847
738533.38861236267257481813,-1.78174687948241,-14.7801904354991,-300.875194555498
738533.38861245312727987766,-1.76328318124943,-14.7524948881497,-300.856730857265
738533.38861254358198493719,-1.68019653920103,-14.6786400952177,-300.893658253731
738533.38861263392027467489,-1.72635578478347,-14.7063356425672,-300.902890102847
738533.38861272437497973442,-1.9571520126957,-14.9371318704794,-300.893658253731
738533.38861281482968479395,-1.89252906888028,-14.8817407757805,-300.865962706381
738533.38861290528438985348,-1.9571520126957,-14.9371318704794,-300.912121951964
738533.38861299573909491301,-1.85560167241432,-14.854045228431,-300.829035309915
738533.38861308619379997253,-1.77251503036592,-14.7617267372662,-300.745948667867
738533.38861317664850503206,-1.82790612506485,-14.8355815301981,-300.745948667867
738533.38861326710321009159,-1.84636982329783,-14.8355815301981,-300.829035309915
738533.38861335744149982929,-1.76328318124943,-14.7709585863826,-300.838267159032
738533.38861344789620488882,-1.84636982329783,-14.8355815301981,-300.884426404614
738533.38861353835090994835,-1.93868831446272,-14.9371318704794,-300.912121951964
738533.38861362880561500788,-1.92022461622974,-14.90943632313,-300.865962706381
738533.38861371926032006741,-1.74481948301645,-14.7617267372662,-300.884426404614
738533.38861380971502512693,-1.70789208655049,-14.6786400952177,-300.902890102847
738533.38861390016973018646,-1.70789208655049,-14.7247993408002,-300.847499008148
738533.38861399050801992416,-1.71712393566698,-14.6971037934507,-300.884426404614
738533.38861408096272498369,-1.62480544450209,-14.6140171514023,-300.875194555498
738533.38861417141743004322,-1.8740653706473,-14.8355815301981,-300.884426404614
738533.38861426187213510275,-1.93868831446272,-14.9002044740135,-300.875194555498
738533.38861435232684016228,-1.86483352153081,-14.8171178319651,-300.930585650197
738533.38861444278154522181,-1.80944242683187,-14.7986541337321,-300.912121951964
738533.38861453323625028133,-1.7909787285989,-14.7801904354991,-300.902890102847
738533.38861462369095534086,-1.88329721976379,-14.854045228431,-300.856730857265
738533.38861471402924507856,-1.85560167241432,-14.8632770775475,-300.856730857265
738533.38861480448395013809,-1.94792016357921,-14.927900021363,-300.930585650197
738533.38861489493865519762,-1.86483352153081,-14.8632770775475,-300.912121951964
738533.38861498539336025715,-1.77251503036592,-14.7801904354991,-300.829035309915
738533.38861507584806531668,-1.99407940916166,-15.0109866634114,-300.912121951964
738533.38861516630277037621,-1.93868831446272,-14.90943632313,-300.92135380108
738533.38861525675747543573,-1.85560167241432,-14.7801904354991,-300.884426404614
738533.38861534721218049526,-1.89252906888028,-14.7801904354991,-300.856730857265
738533.38861543755047023296,-1.62480544450209,-14.5493942075869,-300.829035309915
738533.38861552800517529249,-1.20014038514359,-14.04164250618,-300.755180516984
738533.38861561845988035202,-0.766243476668599,-14.4847712637715,-300.681325724052
738533.38861570891458541155,-0.553910946989349,-15.2787102877895,-300.884426404614
738533.38861579936929047108,-0.969344157231361,-15.7126071962645,-301.022904141362
738533.38861588982399553061,-1.40324106570635,-15.5648976104007,-301.069063386944
738533.38861598027870059013,-1.80021057771538,-15.343333231605,-300.958281197546
738533.38861607061699032784,-1.74481948301645,-14.9925229651784,-300.939817499313
738533.38861616107169538736,-1.84636982329783,-14.9463637195959,-300.930585650197
738533.38861625152640044689,-1.85560167241432,-14.890972624897,-300.884426404614
738533.38861634198110550642,-1.82790612506485,-14.8355815301981,-300.884426404614
738533.38861643243581056595,-1.88329721976379,-14.890972624897,-300.829035309915
738533.38861652289051562548,-1.85560167241432,-14.8355815301981,-300.865962706381
738533.38861661334522068501,-1.92945646534623,-14.9186681722465,-300.801339762566
738533.38861670379992574453,-1.84636982329783,-14.7986541337321,-300.709021271401
738533.38861679413821548223,-1.90176091799676,-14.854045228431,-300.847499008148
738533.38861688459292054176,-1.81867427594836,-14.7709585863826,-300.810571611682
738533.38861697504762560129,-1.85560167241432,-14.8263496810816,-300.847499008148
738533.38861706550233066082,-1.7909787285989,-14.7432630390332,-300.810571611682
738533.38861715595703572035,-1.83713797418134,-14.7894222846156,-300.829035309915
738533.38861724641174077988,-1.9571520126957,-14.890972624897,-300.884426404614
738533.38861733686644583941,-1.83713797418134,-14.7801904354991,-300.847499008148
738533.38861742732115089893,-1.76328318124943,-14.7063356425672,-300.902890102847
738533.38861751765944063663,-1.84636982329783,-14.7709585863826,-300.893658253731
738533.38861760811414569616,-1.83713797418134,-14.7524948881497,-300.893658253731
738533.38861769856885075569,-1.74481948301645,-14.6601763969848,-300.875194555498
738533.38861778902355581522,-1.64326914273507,-14.5493942075869,-300.875194555498
738533.38861787947826087475,-1.70789208655049,-14.6140171514023,-300.847499008148
738533.38861796993296593428,-1.71712393566698,-14.6232490005188,-300.810571611682
738533.38861806038767099380,-1.68942838831751,-14.5863216040529,-300.875194555498
738533.38861815072596073151,-1.60634174626911,-14.5216986602374,-300.7644123661
738533.38861824118066579103,-1.62480544450209,-14.5309305093539,-300.745948667867
738533.38861833163537085056,-1.60634174626911,-14.5586260567034,-300.782876064333
738533.38861842209007591009,-1.49555955687124,-14.457075716422,-300.718253120518
738533.38861851254478096962,-1.57864619891964,-14.5770897549364,-300.773644215217
738533.38861860299948602915,-1.51402325510422,-14.5770897549364,-300.773644215217
738533.38861869345419108868,-1.57864619891964,-14.6694082461013,-300.7644123661
738533.38861878390889614820,-1.58787804803613,-14.6878719443342,-300.865962706381
738533.38861887424718588591,-1.67096469008454,-14.7894222846156,-300.810571611682
738533.38861896470189094543,-1.59710989715262,-14.7432630390332,-300.847499008148
738533.38861905515659600496,-1.63403729361858,-14.7524948881497,-300.847499008148
738533.38861914561130106449,-1.71712393566698,-14.8355815301981,-300.810571611682
738533.38861923606600612402,-1.77251503036592,-14.890972624897,-300.819803460799
738533.38861932652071118355,-1.75405133213294,-14.872508926664,-300.838267159032
738533.38861941697541624308,-1.76328318124943,-14.872508926664,-300.865962706381
738533.38861950743012130260,-1.72635578478347,-14.8448133793146,-300.865962706381
738533.38861959776841104031,-1.76328318124943,-14.8632770775475,-300.847499008148
738533.38861968822311609983,-1.68019653920103,-14.8078859828486,-300.838267159032
738533.38861977867782115936,-1.72635578478347,-14.8263496810816,-300.856730857265
738533.38861986913252621889,-1.76328318124943,-14.872508926664,-300.829035309915
738533.38861995958723127842,-1.75405133213294,-14.8355815301981,-300.884426404614
738533.38862005004193633795,-1.75405133213294,-14.8632770775475,-300.875194555498
738533.38862014049664139748,-1.73558763389996,-14.8263496810816,-300.829035309915
738533.38862023083493113518,-1.78174687948241,-14.8632770775475,-300.7644123661
738533.38862032128963619471,-1.74481948301645,-14.8355815301981,-300.838267159032
738533.38862041174434125423,-1.73558763389996,-14.8171178319651,-300.856730857265
738533.38862050219904631376,-1.76328318124943,-14.8448133793146,-300.847499008148
738533.38862059265375137329,-1.71712393566698,-14.7894222846156,-300.884426404614
738533.38862068310845643282,-1.77251503036592,-14.854045228431,-300.893658253731
738533.38862077356316149235,-1.7909787285989,-14.8632770775475,-300.902890102847
738533.38862086401786655188,-1.75405133213294,-14.872508926664,-300.865962706381
738533.38862095435615628958,-1.78174687948241,-14.8632770775475,-300.875194555498
738533.38862104481086134911,-1.71712393566698,-14.8263496810816,-300.847499008148
738533.38862113526556640863,-1.73558763389996,-14.8171178319651,-300.902890102847
738533.38862122572027146816,-1.78174687948241,-14.8817407757805,-300.92135380108
738533.38862131617497652769,-1.80021057771538,-14.890972624897,-300.875194555498
738533.38862140662968158722,-1.80944242683187,-14.90943632313,-300.865962706381
738533.38862149708438664675,-1.83713797418134,-14.90943632313,-300.829035309915
738533.38862158753909170628,-1.70789208655049,-14.8078859828486,-300.801339762566
738533.38862167787738144398,-1.73558763389996,-14.8171178319651,-300.819803460799
738533.38862176833208650351,-1.78174687948241,-14.872508926664,-300.847499008148
738533.38862185878679156303,-1.75405133213294,-14.8355815301981,-300.865962706381
738533.38862194924149662256,-1.75405133213294,-14.8355815301981,-300.875194555498
738533.38862203969620168209,-1.74481948301645,-14.8263496810816,-300.912121951964
738533.38862213015090674162,-1.67096469008454,-14.7340311899167,-300.884426404614
738533.38862222060561180115,-1.83713797418134,-14.9371318704794,-300.856730857265
738533.38862231094390153885,-1.74481948301645,-14.8078859828486,-300.893658253731
738533.38862240139860659838,-1.62480544450209,-14.7340311899167,-300.912121951964
738533.38862249185331165791,-1.65250099185156,-14.7247993408002,-300.902890102847
738533.38862258230801671743,-1.71712393566698,-14.8171178319651,-300.902890102847
738533.38862267276272177696,-1.74481948301645,-14.8263496810816,-300.893658253731
738533.38862276321742683649,-1.71712393566698,-14.8263496810816,-300.893658253731
738533.38862285367213189602,-1.68942838831751,-14.7617267372662,-300.847499008148
738533.38862294412683695555,-1.76328318124943,-14.8632770775475,-300.847499008148
738533.38862303446512669325,-1.7909787285989,-14.872508926664,-300.865962706381
738533.38862312491983175278,-1.82790612506485,-14.9002044740135,-300.912121951964
738533.38862321537453681231,-1.83713797418134,-14.9002044740135,-300.930585650197
738533.38862330582924187183,-1.7909787285989,-14.8817407757805,-300.912121951964
738533.38862339628394693136,-1.70789208655049,-14.7894222846156,-300.912121951964
738533.38862348673865199089,-1.85560167241432,-14.9463637195959,-300.847499008148
738533.38862357719335705042,-1.83713797418134,-14.9186681722465,-300.838267159032
738533.38862366764806210995,-1.84636982329783,-14.872508926664,-300.681325724052
738533.38862375798635184765,-1.83713797418134,-14.7894222846156,-300.755180516984
738533.38862384844105690718,-1.78174687948241,-14.7432630390332,-300.838267159032
738533.38862393889576196671,-1.51402325510422,-14.5401623584704,-300.782876064333
738533.38862402935046702623,-1.12628559221168,-14.0878017517624,-300.699789422285
738533.38862411980517208576,-0.553910946989349,-14.494003112888,-300.681325724052
738533.38862421025987714529,-0.332346568193609,-15.2048554948576,-300.801339762566
738533.38862430071458220482,-0.747779778435621,-15.5648976104007,-300.958281197546
738533.38862439105287194252,-1.31092257454146,-15.5279702139348,-300.976744895779
738533.38862448150757700205,-1.72635578478347,-15.2971739860225,-300.94904934843
738533.38862457196228206158,-1.72635578478347,-15.0202185125278,-300.875194555498
738533.38862466241698712111,-1.71712393566698,-14.854045228431,-300.875194555498
738533.38862475287169218063,-1.86483352153081,-14.9555955687124,-300.884426404614
738533.38862484332639724016,-1.84636982329783,-14.9002044740135,-300.902890102847
738533.38862493378110229969,-1.77251503036592,-14.7986541337321,-300.865962706381
738533.38862502423580735922,-1.70789208655049,-14.7340311899167,-300.838267159032
738533.38862511457409709692,-1.81867427594836,-14.8355815301981,-300.875194555498
738533.38862520502880215645,-1.84636982329783,-14.8632770775475,-300.865962706381
738533.38862529548350721598,-1.74481948301645,-14.7709585863826,-300.838267159032
738533.38862538593821227551,-1.76328318124943,-14.7617267372662,-300.829035309915
738533.38862547639291733503,-1.78174687948241,-14.7894222846156,-300.819803460799
738533.38862556684762239456,-1.85560167241432,-14.8448133793146,-300.801339762566
738533.38862565730232745409,-1.77251503036592,-14.7894222846156,-300.829035309915
738533.38862574775703251362,-1.72635578478347,-14.7247993408002,-300.856730857265
738533.38862583809532225132,-1.71712393566698,-14.6971037934507,-300.875194555498
738533.38862592855002731085,-1.77251503036592,-14.7524948881497,-300.847499008148
738533.38862601900473237038,-1.7909787285989,-14.7524948881497,-300.902890102847
738533.38862610945943742990,-1.70789208655049,-14.6971037934507,-300.893658253731
738533.38862619991414248943,-1.62480544450209,-14.5863216040529,-300.810571611682
738533.38862629036884754896,-1.6155735953856,-14.5586260567034,-300.838267159032
738533.38862638082355260849,-1.66173284096805,-14.5955534531693,-300.838267159032
738533.38862647127825766802,-1.56018250068667,-14.494003112888,-300.801339762566
738533.38862656161654740572,-1.62480544450209,-14.5309305093539,-300.856730857265
738533.38862665207125246525,-1.6155735953856,-14.5401623584704,-300.875194555498
738533.38862674252595752478,-1.59710989715262,-14.5309305093539,-300.847499008148
738533.38862683298066258430,-1.49555955687124,-14.4663075655385,-300.829035309915
738533.38862692343536764383,-1.38477736747337,-14.3647572252571,-300.773644215217
738533.38862701389007270336,-1.39400921658986,-14.4293801690725,-300.773644215217
738533.38862710434477776289,-1.56941434980316,-14.6232490005188,-300.819803460799
738533.38862719468306750059,-1.5324869533372,-14.6324808496353,-300.662862025819
738533.38862728513777256012,-1.47709585863826,-14.5678579058199,-300.718253120518
738533.38862737559247761965,-1.59710989715262,-14.7155674916837,-300.801339762566
738533.38862746604718267918,-1.64326914273507,-14.7432630390332,-300.819803460799
738533.38862755650188773870,-1.70789208655049,-14.8171178319651,-300.819803460799
738533.38862764695659279823,-1.698660237434,-14.8078859828486,-300.819803460799
738533.38862773741129785776,-1.68942838831751,-14.7801904354991,-300.847499008148
738533.38862782786600291729,-1.66173284096805,-14.7617267372662,-300.865962706381
738533.38862791820429265499,-1.72635578478347,-14.8078859828486,-300.838267159032
738533.38862800865899771452,-1.73558763389996,-14.8448133793146,-300.893658253731
738533.38862809911370277405,-1.54171880245369,-14.6324808496353,-300.819803460799
738533.38862818956840783358,-1.68019653920103,-14.7986541337321,-300.819803460799
738533.38862828002311289310,-1.80944242683187,-14.890972624897,-300.829035309915
738533.38862837047781795263,-1.74481948301645,-14.854045228431,-300.856730857265
738533.38862846093252301216,-1.68019653920103,-14.7524948881497,-300.875194555498
738533.38862855138722807169,-1.698660237434,-14.8078859828486,-300.875194555498
738533.38862864172551780939,-1.60634174626911,-14.6786400952177,-300.893658253731
738533.38862873218022286892,-1.70789208655049,-14.8078859828486,-300.902890102847
738533.38862882263492792845,-1.7909787285989,-14.8817407757805,-300.819803460799
738533.38862891308963298798,-1.81867427594836,-14.90943632313,-300.865962706381
738533.38862900354433804750,-1.76328318124943,-14.8355815301981,-300.875194555498
738533.38862909399904310703,-1.77251503036592,-14.854045228431,-300.865962706381
738533.38862918445374816656,-1.68942838831751,-14.7617267372662,-300.838267159032
738533.38862927479203790426,-1.7909787285989,-14.8817407757805,-300.875194555498
738533.38862936524674296379,-1.698660237434,-14.7894222846156,-300.884426404614
738533.38862945570144802332,-1.63403729361858,-14.7155674916837,-300.893658253731
738533.38862954615615308285,-1.64326914273507,-14.7432630390332,-300.902890102847
738533.38862963661085814238,-1.76328318124943,-14.8355815301981,-300.856730857265
738533.38862972706556320190,-1.7909787285989,-14.8817407757805,-300.912121951964
738533.38862981752026826143,-1.76328318124943,-14.8355815301981,-300.930585650197
738533.38862990797497332096,-1.80944242683187,-14.9002044740135,-300.939817499313
738533.38862999831326305866,-1.76328318124943,-14.8448133793146,-300.829035309915
738533.38863008876796811819,-1.7909787285989,-14.872508926664,-300.912121951964
738533.38863017922267317772,-1.698660237434,-14.7709585863826,-300.902890102847
738533.38863026967737823725,-1.78174687948241,-14.8632770775475,-300.893658253731
738533.38863036013208329678,-1.68019653920103,-14.7617267372662,-300.912121951964
738533.38863045058678835630,-1.64326914273507,-14.7432630390332,-300.902890102847
738533.38863054104149341583,-1.43093661305582,-14.5216986602374,-300.847499008148
738533.38863063149619847536,-1.75405133213294,-14.8448133793146,-300.884426404614
738533.38863072183448821306,-1.52325510422071,-14.6324808496353,-300.727484969634
738533.38863081228919327259,-1.77251503036592,-14.8632770775475,-300.838267159032
738533.38863090274389833212,-1.83713797418134,-14.9186681722465,-300.856730857265
738533.38863099319860339165,-1.82790612506485,-14.9002044740135,-300.884426404614
738533.38863108365330845118,-1.82790612506485,-14.9002044740135,-300.838267159032
738533.38863117410801351070,-1.7909787285989,-14.8632770775475,-300.819803460799
738533.38863126456271857023,-1.74481948301645,-14.8355815301981,-300.856730857265
738533.38863135490100830793,-1.75405133213294,-14.8171178319651,-300.847499008148
738533.38863144535571336746,-1.74481948301645,-14.8263496810816,-300.856730857265
738533.38863153581041842699,-1.7909787285989,-14.8632770775475,-300.829035309915
738533.38863162626512348652,-1.68942838831751,-14.7709585863826,-300.939817499313
738533.38863171671982854605,-1.88329721976379,-14.9740592669454,-300.94904934843
738533.38863180717453360558,-1.88329721976379,-14.9648274178289,-300.92135380108
738533.38863189762923866510,-1.80021057771538,-14.7986541337321,-300.902890102847
738533.38863198808394372463,-1.83713797418134,-14.7986541337321,-300.939817499313
738533.38863207842223346233,-1.54171880245369,-14.6140171514023,-300.79210791345
738533.38863216887693852186,-1.26476332895901,-14.3001342814417,-300.709021271401
738533.38863225933164358139,-0.609302041688284,-14.2724387340922,-300.653630176702
738533.38863234978634864092,-0.120014038514359,-14.854045228431,-300.773644215217
738533.38863244024105370045,-0.572374645222327,-15.5464339121677,-300.912121951964
738533.38863253069575875998,-1.1909085360271,-15.6018250068667,-300.985976744896
738533.38863262115046381950,-1.59710989715262,-15.343333231605,-300.976744895779
738533.38863271160516887903,-1.67096469008454,-15.0109866634114,-300.912121951964
738533.38863280194345861673,-1.7909787285989,-15.0294503616443,-300.893658253731
738533.38863289239816367626,-1.90176091799676,-15.0386822107608,-300.893658253731
738533.38863298285286873579,-1.71712393566698,-14.872508926664,-300.893658253731
738533.38863307330757379532,-1.76328318124943,-14.8632770775475,-300.893658253731
738533.38863316376227885485,-1.89252906888028,-14.9925229651784,-300.912121951964
738533.38863325421698391438,-1.84636982329783,-14.927900021363,-300.847499008148
738533.38863334467168897390,-1.71712393566698,-14.7894222846156,-300.838267159032
738533.38863343500997871161,-1.80944242683187,-14.8817407757805,-300.884426404614
738533.38863352546468377113,-1.75405133213294,-14.8078859828486,-300.865962706381
738533.38863361591938883066,-1.73558763389996,-14.7894222846156,-300.819803460799
738533.38863370637409389019,-1.78174687948241,-14.7894222846156,-300.838267159032
738533.38863379682879894972,-1.74481948301645,-14.7894222846156,-300.865962706381
738533.38863388728350400925,-1.85560167241432,-14.8632770775475,-300.884426404614
738533.38863397773820906878,-1.78174687948241,-14.8078859828486,-300.912121951964
738533.38863406819291412830,-1.74481948301645,-14.7432630390332,-300.810571611682
738533.38863415853120386600,-1.68019653920103,-14.7063356425672,-300.893658253731
738533.38863424898590892553,-1.67096469008454,-14.6601763969848,-300.727484969634
738533.38863433944061398506,-1.6155735953856,-14.6047853022858,-300.718253120518
738533.38863442989531904459,-1.65250099185156,-14.6140171514023,-300.865962706381
738533.38863452035002410412,-1.78174687948241,-14.7432630390332,-300.902890102847
738533.38863461080472916365,-1.64326914273507,-14.5863216040529,-300.810571611682
738533.38863470125943422318,-1.62480544450209,-14.6047853022858,-300.782876064333
738533.38863479171413928270,-1.50479140598773,-14.457075716422,-300.745948667867
738533.38863488205242902040,-1.51402325510422,-14.494003112888,-300.755180516984
738533.38863497250713407993,-1.50479140598773,-14.5216986602374,-300.745948667867
738533.38863506296183913946,-1.3570818201239,-14.4016846217231,-300.745948667867
738533.38863515341654419899,-1.43093661305582,-14.494003112888,-300.773644215217
738533.38863524387124925852,-1.58787804803613,-14.6417126987518,-300.838267159032
738533.38863533432595431805,-1.51402325510422,-14.6601763969848,-300.865962706381
738533.38863542478065937757,-1.44016846217231,-14.5678579058199,-300.856730857265
738533.38863551511894911528,-1.51402325510422,-14.6694082461013,-300.875194555498
738533.38863560557365417480,-1.58787804803613,-14.7247993408002,-300.838267159032
738533.38863569602835923433,-1.68942838831751,-14.8355815301981,-300.810571611682
738533.38863578648306429386,-1.68019653920103,-14.7894222846156,-300.829035309915
738533.38863587693776935339,-1.60634174626911,-14.7432630390332,-300.829035309915
738533.38863596739247441292,-1.74481948301645,-14.8448133793146,-300.819803460799
738533.38863605784717947245,-1.74481948301645,-14.8817407757805,-300.856730857265
738533.38863614830188453197,-1.72635578478347,-14.854045228431,-300.865962706381
738533.38863623864017426968,-1.73558763389996,-14.854045228431,-300.902890102847
738533.38863632909487932920,-1.63403729361858,-14.7709585863826,-300.893658253731
738533.38863641954958438873,-1.698660237434,-14.8448133793146,-300.902890102847
738533.38863651000428944826,-1.698660237434,-14.8632770775475,-300.865962706381
738533.38863660045899450779,-1.62480544450209,-14.7709585863826,-300.847499008148
738533.38863669091369956732,-1.698660237434,-14.8632770775475,-300.875194555498
738533.38863678136840462685,-1.77251503036592,-14.9186681722465,-300.884426404614
738533.38863687182310968637,-1.73558763389996,-14.9002044740135,-300.884426404614
738533.38863696216139942408,-1.72635578478347,-14.854045228431,-300.875194555498
738533.38863705261610448360,-1.74481948301645,-14.890972624897,-300.912121951964
738533.38863714307080954313,-1.68019653920103,-14.8355815301981,-300.893658253731
738533.38863723352551460266,-1.71712393566698,-14.8817407757805,-300.865962706381
738533.38863732398021966219,-1.63403729361858,-14.7986541337321,-300.92135380108
738533.38863741443492472172,-1.71712393566698,-14.872508926664,-300.912121951964
738533.38863750488962978125,-1.71712393566698,-14.8817407757805,-300.847499008148
738533.38863759522791951895,-1.80944242683187,-14.9555955687124,-300.884426404614
738533.38863768568262457848,-1.78174687948241,-14.9186681722465,-300.939817499313
738533.38863777613732963800,-1.75405133213294,-14.9186681722465,-300.7644123661
738533.38863786659203469753,-1.72635578478347,-14.890972624897,-300.773644215217
738533.38863795704673975706,-1.70789208655049,-14.8632770775475,-300.92135380108
738533.38863804750144481659,-1.59710989715262,-14.7709585863826,-300.912121951964
738533.38863813795614987612,-1.62480544450209,-14.7801904354991,-300.939817499313
738533.38863822841085493565,-1.7909787285989,-14.9648274178289,-300.958281197546
738533.38863831874914467335,-1.74481948301645,-14.9002044740135,-300.94904934843
738533.38863840920384973288,-1.71712393566698,-14.90943632313,-300.939817499313
738533.38863849965855479240,-1.65250099185156,-14.8263496810816,-300.902890102847
738533.38863859011325985193,-1.65250099185156,-14.8078859828486,-300.902890102847
738533.38863868056796491146,-1.60634174626911,-14.7617267372662,-300.930585650197
738533.38863877102266997099,-1.56018250068667,-14.7247993408002,-300.875194555498
738533.38863886147737503052,-1.50479140598773,-14.6509445478683,-300.801339762566
738533.38863895193208009005,-1.65250099185156,-14.7986541337321,-300.92135380108
738533.38863904227036982775,-1.698660237434,-14.8263496810816,-300.92135380108
738533.38863913272507488728,-1.77251503036592,-14.890972624897,-300.912121951964
738533.38863922317977994680,-1.76328318124943,-14.90943632313,-300.893658253731
738533.38863931363448500633,-1.85560167241432,-14.9832911160619,-300.958281197546
738533.38863940408919006586,-1.83713797418134,-14.9925229651784,-300.94904934843
738533.38863949454389512539,-1.76328318124943,-14.890972624897,-300.884426404614
738533.38863958499860018492,-1.68942838831751,-14.8355815301981,-300.939817499313
738533.38863967533688992262,-1.62480544450209,-14.7524948881497,-300.92135380108
738533.38863976579159498215,-1.73558763389996,-14.90943632313,-300.92135380108
738533.38863985624630004168,-1.82790612506485,-14.9371318704794,-300.92135380108
738533.38863994670100510120,-1.7909787285989,-14.8448133793146,-300.958281197546
738533.38864003715571016073,-1.90176091799676,-14.9371318704794,-300.912121951964
738533.38864012761041522026,-1.42170476393933,-14.5863216040529,-300.847499008148
738533.38864021806512027979,-1.0247352519303,-14.2262794885098,-300.745948667867
738533.38864030851982533932,-0.387737662892544,-14.5309305093539,-300.690557573168
738533.38864039885811507702,0.00923184911648915,-15.0479140598773,-300.7644123661
738533.38864048931282013655,-0.627765739921262,-15.5648976104007,-300.94904934843
738533.38864057976752519608,-1.30169072542497,-15.5002746665853,-300.976744895779
738533.38864067022223025560,-1.74481948301645,-15.306405835139,-300.967513046663
738533.38864076067693531513,-1.74481948301645,-15.1679280983917,-300.930585650197
738533.38864085113164037466,-1.65250099185156,-14.927900021363,-300.884426404614
738533.38864094158634543419,-1.71712393566698,-14.927900021363,-300.902890102847
738533.38864103204105049372,-1.76328318124943,-14.9186681722465,-300.902890102847
738533.38864112237934023142,-1.77251503036592,-14.9555955687124,-300.912121951964
738533.38864121283404529095,-1.7909787285989,-14.927900021363,-300.902890102847
738533.38864130328875035048,-1.77251503036592,-14.9186681722465,-300.829035309915
738533.38864139374345541000,-1.63403729361858,-14.7432630390332,-300.810571611682
738533.38864148419816046953,-1.80944242683187,-14.9371318704794,-300.875194555498
738533.38864157465286552906,-1.72635578478347,-14.8263496810816,-300.865962706381
738533.38864166510757058859,-1.64326914273507,-14.7801904354991,-300.893658253731
738533.38864175544586032629,-1.73558763389996,-14.854045228431,-300.875194555498
738533.38864184590056538582,-1.8740653706473,-15.0294503616443,-300.939817499313
738533.38864193635527044535,-1.71712393566698,-14.9555955687124,-300.847499008148
738533.38864202680997550488,-1.68019653920103,-14.8632770775475,-300.875194555498
738533.38864211726468056440,-1.64326914273507,-14.7986541337321,-300.875194555498
738533.38864220771938562393,-1.5324869533372,-14.6694082461013,-300.884426404614
738533.38864229817409068346,-1.6155735953856,-14.7063356425672,-300.884426404614
738533.38864238862879574299,-1.65250099185156,-14.7340311899167,-300.912121951964
738533.38864247896708548069,-1.62480544450209,-14.7063356425672,-300.847499008148
738533.38864256942179054022,-1.57864619891964,-14.6509445478683,-300.856730857265
738533.38864265987649559975,-1.50479140598773,-14.5955534531693,-300.912121951964
738533.38864275033120065928,-1.58787804803613,-14.6324808496353,-300.829035309915
738533.38864284078590571880,-1.45863216040529,-14.5401623584704,-300.847499008148
738533.38864293124061077833,-1.47709585863826,-14.5493942075869,-300.856730857265
738533.38864302169531583786,-1.44016846217231,-14.5770897549364,-300.865962706381
738533.38864311215002089739,-1.43093661305582,-14.5955534531693,-300.847499008148
738533.38864320248831063509,-1.46786400952177,-14.6694082461013,-300.902890102847
738533.38864329294301569462,-1.38477736747337,-14.6140171514023,-300.865962706381
738533.38864338339772075415,-1.43093661305582,-14.6971037934507,-300.875194555498
738533.38864347385242581367,-1.4494003112888,-14.6971037934507,-300.875194555498
738533.38864356430713087320,-1.50479140598773,-14.7247993408002,-300.92135380108
738533.38864365476183593273,-1.60634174626911,-14.8355815301981,-300.939817499313
738533.38864374521654099226,-1.58787804803613,-14.8078859828486,-300.875194555498
738533.38864383555483072996,-1.58787804803613,-14.7986541337321,-300.912121951964
738533.38864392600953578949,-1.6155735953856,-14.7801904354991,-300.930585650197
738533.38864401646424084902,-1.67096469008454,-14.854045228431,-300.893658253731
738533.38864410691894590855,-1.6155735953856,-14.8078859828486,-300.94904934843
738533.38864419737365096807,-1.66173284096805,-14.8355815301981,-300.856730857265
738533.38864428782835602760,-1.65250099185156,-14.8171178319651,-300.847499008148
738533.38864437828306108713,-1.66173284096805,-14.854045228431,-300.865962706381
738533.38864446873776614666,-1.58787804803613,-14.7801904354991,-300.856730857265
738533.38864455907605588436,-1.64326914273507,-14.8263496810816,-300.884426404614
738533.38864464953076094389,-1.65250099185156,-14.8448133793146,-300.810571611682
738533.38864473998546600342,-1.68019653920103,-14.872508926664,-300.838267159032
738533.38864483044017106295,-1.58787804803613,-14.7709585863826,-300.773644215217
738533.38864492089487612247,-1.68019653920103,-14.8632770775475,-300.736716818751
738533.38864501134958118200,-1.68019653920103,-14.872508926664,-300.79210791345
738533.38864510180428624153,-1.6155735953856,-14.7986541337321,-300.847499008148
738533.38864519225899130106,-1.52325510422071,-14.7247993408002,-300.838267159032
738533.38864528259728103876,-1.68019653920103,-14.872508926664,-300.865962706381
738533.38864537305198609829,-1.74481948301645,-14.9463637195959,-300.92135380108
738533.38864546350669115782,-1.66173284096805,-14.8448133793146,-300.930585650197
738533.38864555396139621735,-1.64326914273507,-14.8171178319651,-300.939817499313
738533.38864564441610127687,-1.62480544450209,-14.7986541337321,-300.930585650197
738533.38864573487080633640,-1.68019653920103,-14.890972624897,-300.884426404614
738533.38864582532551139593,-1.58787804803613,-14.7617267372662,-300.865962706381
738533.38864591566380113363,-1.63403729361858,-14.8355815301981,-300.902890102847
738533.38864600611850619316,-1.698660237434,-14.8817407757805,-300.92135380108
738533.38864609657321125269,-1.63403729361858,-14.8355815301981,-300.884426404614
738533.38864618702791631222,-1.66173284096805,-14.854045228431,-300.902890102847
738533.38864627748262137175,-1.698660237434,-14.9186681722465,-300.930585650197
738533.38864636793732643127,-1.68019653920103,-14.90943632313,-300.939817499313
738533.38864645839203149080,-1.62480544450209,-14.8263496810816,-300.930585650197
738533.38864654884673655033,-1.56018250068667,-14.7986541337321,-300.838267159032
738533.38864663918502628803,-1.56018250068667,-14.7801904354991,-300.912121951964
738533.38864672963973134756,-1.56941434980316,-14.8171178319651,-300.939817499313
738533.38864682009443640709,-1.54171880245369,-14.7524948881497,-300.94904934843
