time_dn,ecg_projection_ll_ra_mV,ecg_projection_la_ra_mV,ecg_projection_vx_rl_mV
738548.45816157106310129166,6.67462691122166,4.98519852290414,-302.509231849116
738548.45816166151780635118,6.68385876033815,4.96673482467116,-302.509231849116
738548.45816175197251141071,6.68385876033815,4.96673482467116,-302.509231849116
738548.45816184242721647024,6.67462691122166,4.96673482467116,-302.509231849116
738548.45816193288192152977,6.65616321298868,4.95750297555467,-302.509231849116
738548.45816202333662658930,6.66539506210517,4.95750297555467,-302.509231849116
738548.45816211367491632700,6.65616321298868,4.94827112643818,-302.509231849116
738548.45816220412962138653,6.64693136387219,4.96673482467116,-302.509231849116
738548.45816229458432644606,6.6376995147557,4.95750297555467,-302.509231849116
738548.45816238503903150558,6.6376995147557,4.96673482467116,-302.509231849116
738548.45816247549373656511,6.6376995147557,4.94827112643818,-302.509231849116
738548.45816256594844162464,6.62846766563921,4.95750297555467,-302.509231849116
738548.45816265640314668417,6.64693136387219,4.95750297555467,-302.509231849116
738548.45816274674143642187,6.65616321298868,4.96673482467116,-302.509231849116
738548.45816283719614148140,6.69309060945463,4.97596667378765,-302.509231849116
738548.45816292765084654093,6.70232245857112,4.98519852290414,-302.509231849116
738548.45816301810555160046,6.7207861568041,4.99443037202063,-302.509231849116
738548.45816310856025665998,6.73924985503708,4.99443037202063,-302.509231849116
738548.45816319901496171951,6.75771355327006,5.00366222113712,-302.509231849116
738548.45816328946966677904,6.79464094973601,5.04982146671956,-302.509231849116
738548.45816337992437183857,6.82233649708548,5.04982146671956,-302.509231849116
738548.45816347026266157627,6.76694540238655,5.00366222113712,-302.509231849116
738548.45816356071736663580,6.7207861568041,5.00366222113712,-302.509231849116
738548.45816365117207169533,6.68385876033815,4.97596667378765,-302.509231849116
738548.45816374162677675486,6.65616321298868,4.94827112643818,-302.509231849116
738548.45816383208148181438,6.6376995147557,4.90211188085574,-302.509231849116
738548.45816392253618687391,6.61923581652272,4.92057557908872,-302.509231849116
738548.45816401299089193344,6.61923581652272,4.90211188085574,-302.509231849116
738548.45816410332918167114,6.61000396740623,4.91134372997223,-302.509231849116
738548.45816419378388673067,6.61923581652272,4.89288003173925,-302.509231849116
738548.45816428423859179020,6.61000396740623,4.91134372997223,-302.509231849116
738548.45816437469329684973,6.61923581652272,4.90211188085574,-302.509231849116
738548.45816446514800190926,6.61923581652272,4.91134372997223,-302.509231849116
738548.45816455560270696878,6.61923581652272,4.91134372997223,-302.509231849116
738548.45816464605741202831,6.61000396740623,4.91134372997223,-302.509231849116
738548.45816473639570176601,6.61000396740623,5.00366222113712,-302.509231849116
738548.45816482685040682554,6.88695944090091,5.16060365611744,-302.509231849116
738548.45816491730511188507,7.44087038789026,5.55757316812647,-302.509231849116
738548.45816500775981694460,8.15172276985992,5.64065981017487,-302.509231849116
738548.45816509821452200413,7.89323099459822,5.15137180700095,-302.509231849116
738548.45816518866922706366,6.84080019531846,4.5974608600116,-302.509231849116
738548.45816527912393212318,6.27765739921262,4.52360606707968,-302.509231849116
738548.45816536957863718271,6.6376995147557,4.70824304940947,-302.509231849116
738548.45816545991692692041,6.84080019531846,4.87441633350627,-302.509231849116
738548.45816555037163197994,6.81310464796899,4.95750297555467,-302.509231849116
738548.45816564082633703947,6.75771355327006,5.0221259193701,-302.509231849116
738548.45816573128104209900,6.73001800592059,5.01289407025361,-302.509231849116
738548.45816582173574715853,6.7207861568041,5.04058961760308,-302.509231849116
738548.45816591219045221806,6.73001800592059,5.04058961760308,-302.509231849116
738548.45816600264515727758,6.73924985503708,5.06828516495254,-302.509231849116
738548.45816609298344701529,6.75771355327006,5.05905331583605,-302.509231849116
738548.45816618343815207481,6.75771355327006,5.08674886318552,-302.509231849116
738548.45816627389285713434,6.76694540238655,5.09598071230201,-302.509231849116
738548.45816636434756219387,6.78540910061953,5.08674886318552,-302.509231849116
738548.45816645480226725340,6.78540910061953,5.11444441053499,-302.509231849116
738548.45816654525697231293,6.8038727988525,5.11444441053499,-302.509231849116
738548.45816663571167737246,6.83156834620197,5.16060365611744,-302.509231849116
738548.45816672604996711016,6.85003204443495,5.16983550523392,-302.509231849116
738548.45816681650467216969,6.87772759178442,5.21599475081637,-302.509231849116
738548.45816690695937722921,6.91465498825037,5.23445844904935,-302.509231849116
738548.45816699741408228874,6.94235053559984,5.28061769463179,-302.509231849116
738548.45816708786878734827,6.99774163029878,5.29908139286477,-302.509231849116
738548.45816717832349240780,7.03466902676473,5.35447248756371,-302.509231849116
738548.45816726877819746733,7.09929197058016,5.37293618579669,-302.509231849116
738548.45816735923290252686,7.11775566881313,5.40986358226264,-302.509231849116
738548.45816744957119226456,7.15468306527909,5.40986358226264,-302.509231849116
738548.45816754002589732409,7.16391491439558,5.42832728049562,-302.509231849116
738548.45816763048060238361,7.17314676351207,5.40986358226264,-302.509231849116
738548.45816772093530744314,7.1454512161626,5.38216803491317,-302.509231849116
738548.45816781139001250267,7.11775566881313,5.32677694021424,-302.509231849116
738548.45816790184471756220,7.04390087588122,5.26215399639882,-302.509231849116
738548.45816799229942262173,6.96081423383282,5.19753105258339,-302.509231849116
738548.45816808263771235943,6.87772759178442,5.12367625965148,-302.509231849116
738548.45816817309241741896,6.85003204443495,5.1052125614185,-302.509231849116
738548.45816826354712247849,6.79464094973601,5.04058961760308,-302.509231849116
738548.45816835400182753801,6.73924985503708,5.0221259193701,-302.509231849116
738548.45816844445653259754,6.71155430768761,4.98519852290414,-302.509231849116
738548.45816853491123765707,6.67462691122166,4.98519852290414,-302.509231849116
738548.45816862536594271660,6.67462691122166,4.96673482467116,-302.509231849116
738548.45816871570423245430,6.66539506210517,4.95750297555467,-302.509231849116
738548.45816880615893751383,6.68385876033815,4.95750297555467,-302.509231849116
738548.45816889661364257336,6.67462691122166,4.96673482467116,-302.509231849116
738548.45816898706834763288,6.70232245857112,4.96673482467116,-302.509231849116
738548.45816907752305269241,6.7207861568041,4.96673482467116,-302.509231849116
738548.45816916797775775194,6.73924985503708,4.97596667378765,-302.509231849116
738548.45816925843246281147,6.74848170415357,4.97596667378765,-302.509231849116
738548.45816934877075254917,6.75771355327006,4.98519852290414,-302.509231849116
738548.45816943922545760870,6.75771355327006,4.99443037202063,-302.509231849116
738548.45816952968016266823,6.74848170415357,4.99443037202063,-302.509231849116
738548.45816962013486772776,6.74848170415357,4.97596667378765,-302.509231849116
738548.45816971058957278728,6.74848170415357,4.98519852290414,-302.509231849116
738548.45816980104427784681,6.75771355327006,4.97596667378765,-302.509231849116
738548.45816989149898290634,6.75771355327006,5.00366222113712,-302.509231849116
738548.45816998195368796587,6.75771355327006,4.99443037202063,-302.509231849116
738548.45817007229197770357,6.75771355327006,4.99443037202063,-302.509231849116
738548.45817016274668276310,6.74848170415357,5.00366222113712,-302.509231849116
738548.45817025320138782263,6.74848170415357,5.00366222113712,-302.509231849116
738548.45817034365609288216,6.74848170415357,5.00366222113712,-302.509231849116
738548.45817043411079794168,6.7207861568041,4.98519852290414,-302.509231849116
738548.45817052456550300121,6.70232245857112,4.96673482467116,-302.509231849116
738548.45817061502020806074,6.69309060945463,4.94827112643818,-302.509231849116
738548.45817070535849779844,6.70232245857112,4.94827112643818,-302.509231849116
738548.45817079581320285797,6.70232245857112,4.9390392773217,-302.509231849116
738548.45817088626790791750,6.70232245857112,4.94827112643818,-302.509231849116
738548.45817097672261297703,6.7207861568041,4.92980742820521,-302.509231849116
738548.45817106717731803656,6.73001800592059,4.95750297555467,-302.509231849116
738548.45817115763202309608,6.73001800592059,4.94827112643818,-302.509231849116
738548.45817124808672815561,6.71155430768761,4.95750297555467,-302.509231849116
738548.45817133842501789331,6.71155430768761,4.94827112643818,-302.509231849116
738548.45817142887972295284,6.69309060945463,4.97596667378765,-302.509231849116
738548.45817151933442801237,6.69309060945463,4.95750297555467,-302.509231849116
738548.45817160978913307190,6.69309060945463,4.96673482467116,-302.509231849116
738548.45817170024383813143,6.68385876033815,4.95750297555467,-302.509231849116
738548.45817179069854319096,6.70232245857112,4.96673482467116,-302.509231849116
738548.45817188115324825048,6.71155430768761,4.95750297555467,-302.509231849116
738548.45817197160795331001,6.73001800592059,4.94827112643818,-302.509231849116
738548.45817206194624304771,6.73001800592059,4.97596667378765,-302.509231849116
738548.45817215240094810724,6.73001800592059,4.97596667378765,-302.509231849116
738548.45817224285565316677,6.76694540238655,5.0221259193701,-302.509231849116
738548.45817233331035822630,6.78540910061953,5.00366222113712,-302.509231849116
738548.45817242376506328583,6.83156834620197,5.08674886318552,-302.509231849116
738548.45817251421976834536,6.88695944090091,5.1052125614185,-302.509231849116
738548.45817260467447340488,6.82233649708548,5.05905331583605,-302.509231849116
738548.45817269501276314259,6.78540910061953,5.04058961760308,-302.509231849116
738548.45817278546746820211,6.73001800592059,5.05905331583605,-302.509231849116
738548.45817287592217326164,6.69309060945463,5.01289407025361,-302.509231849116
738548.45817296637687832117,6.64693136387219,5.00366222113712,-302.509231849116
738548.45817305683158338070,6.65616321298868,4.97596667378765,-302.509231849116
738548.45817314728628844023,6.61923581652272,4.97596667378765,-302.509231849116
738548.45817323774099349976,6.61923581652272,4.95750297555467,-302.509231849116
738548.45817332807928323746,6.61923581652272,4.95750297555467,-302.509231849116
738548.45817341853398829699,6.6376995147557,4.95750297555467,-302.509231849116
738548.45817350898869335651,6.62846766563921,4.95750297555467,-302.509231849116
738548.45817359944339841604,6.65616321298868,4.96673482467116,-302.509231849116
738548.45817368989810347557,6.64693136387219,4.95750297555467,-302.509231849116
738548.45817378035280853510,6.6376995147557,4.95750297555467,-302.509231849116
738548.45817387080751359463,6.6376995147557,4.94827112643818,-302.509231849116
738548.45817396114580333233,6.69309060945463,5.09598071230201,-302.509231849116
738548.45817405160050839186,7.09929197058016,5.33600878933073,-302.509231849116
738548.45817414205521345139,7.78244880520035,5.71451460310678,-302.509231849116
738548.45817423250991851091,8.2532731101413,5.46525467696158,-302.509231849116
738548.45817432296462357044,7.43163853877377,4.86518448438978,-302.509231849116
738548.45817441341932862997,6.49922177800836,4.51437421796319,-302.509231849116
738548.45817450387403368950,6.49922177800836,4.65285195471053,-302.509231849116
738548.45817459432873874903,6.96081423383282,4.89288003173925,-302.509231849116
738548.45817468466702848673,7.08082827234718,5.11444441053499,-302.509231849116
738548.45817477512173354626,7.13621936704611,5.28061769463179,-302.509231849116
738548.45817486557643860579,6.87772759178442,5.04982146671956,-302.509231849116
738548.45817495603114366531,6.75771355327006,4.92057557908872,-302.509231849116
738548.45817504648584872484,6.81310464796899,4.97596667378765,-302.509231849116
738548.45817513694055378437,6.87772759178442,5.03135776848659,-302.509231849116
738548.45817522739525884390,6.93311868648335,5.05905331583605,-302.509231849116
738548.45817531773354858160,6.97004608294931,5.08674886318552,-302.509231849116
738548.45817540818825364113,7.02543717764824,5.1052125614185,-302.509231849116
738548.45817549864295870066,7.00697347941527,5.13290810876797,-302.509231849116
738548.45817558909766376019,6.99774163029878,5.12367625965148,-302.509231849116
738548.45817567955236881971,6.96081423383282,5.11444441053499,-302.509231849116
738548.45817577000707387924,7.11775566881313,5.28061769463179,-302.509231849116
738548.45817586046177893877,7.07159642323069,5.25292214728233,-302.509231849116
738548.45817595080006867647,6.86849574266793,5.00366222113712,-302.509231849116
738548.45817604125477373600,6.84080019531846,4.97596667378765,-302.509231849116
738548.45817613170947879553,6.97004608294931,5.1052125614185,-302.509231849116
738548.45817622216418385506,7.09929197058016,5.26215399639882,-302.509231849116
738548.45817631261888891459,7.00697347941527,5.16983550523392,-302.509231849116
738548.45817640307359397411,7.12698751792962,5.28061769463179,-302.509231849116
738548.45817649352829903364,7.03466902676473,5.1882992034669,-302.509231849116
738548.45817658398300409317,7.05313272499771,5.16983550523392,-302.509231849116
738548.45817667432129383087,7.08082827234718,5.17906735435041,-302.509231849116
738548.45817676477599889040,7.15468306527909,5.21599475081637,-302.509231849116
738548.45817685523070394993,7.18237861262856,5.23445844904935,-302.509231849116
738548.45817694568540900946,7.31162450025941,5.28061769463179,-302.509231849116
738548.45817703614011406898,7.59781182287057,5.53910946989349,-302.509231849116
738548.45817712659481912851,7.57934812463759,5.46525467696158,-302.509231849116
738548.45817721704952418804,7.5701162755211,5.50218207342753,-302.509231849116
738548.45817730738781392574,7.17314676351207,5.08674886318552,-302.509231849116
738548.45817739784251898527,7.12698751792962,5.09598071230201,-302.509231849116
738548.45817748829722404480,7.0623645741142,5.04058961760308,-302.509231849116
738548.45817757875192910433,6.69309060945463,4.64362010559404,-302.509231849116
738548.45817766920663416386,6.74848170415357,4.75440229499191,-302.509231849116
738548.45817775966133922338,6.8038727988525,4.81902523880734,-302.509231849116
738548.45817785011604428291,6.79464094973601,4.88364818262276,-302.509231849116
738548.45817794045433402061,6.74848170415357,4.85595263527329,-302.509231849116
738548.45817803090903908014,6.71155430768761,4.83748893704032,-302.509231849116
738548.45817812136374413967,6.71155430768761,4.81902523880734,-302.509231849116
738548.45817821181844919920,6.74848170415357,4.83748893704032,-302.509231849116
738548.45817830227315425873,6.78540910061953,4.8467207861568,-302.509231849116
738548.45817839272785931826,6.97004608294931,5.07751701406903,-302.509231849116
738548.45817848318256437778,6.96081423383282,5.1052125614185,-302.509231849116
738548.45817857363726943731,6.39767143772698,4.58822901089511,-302.509231849116
738548.45817866397555917501,6.36074404126102,4.55130161442915,-302.509231849116
738548.45817875443026423454,6.53614917447432,4.79132969145787,-302.509231849116
738548.45817884488496929407,6.67462691122166,4.89288003173925,-302.509231849116
738548.45817893533967435360,6.71155430768761,4.94827112643818,-302.509231849116
738548.45817902579437941313,6.89619129001739,5.11444441053499,-302.509231849116
738548.45817911624908447266,6.85003204443495,5.07751701406903,-302.509231849116
738548.45817920670378953218,6.84080019531846,5.04058961760308,-302.509231849116
738548.45817929704207926989,6.90542313913388,5.1052125614185,-302.509231849116
738548.45817938749678432941,6.87772759178442,5.07751701406903,-302.509231849116
738548.45817947795148938894,6.85926389355144,5.03135776848659,-302.509231849116
738548.45817956840619444847,6.86849574266793,5.05905331583605,-302.509231849116
738548.45817965886089950800,6.93311868648335,5.08674886318552,-302.509231849116
738548.45817974931560456753,6.95158238471633,5.12367625965148,-302.509231849116
738548.45817983977030962706,6.95158238471633,5.09598071230201,-302.509231849116
738548.45817993010859936476,6.98850978118229,5.1882992034669,-302.509231849116
738548.45818002056330442429,6.93311868648335,5.14213995788446,-302.509231849116
738548.45818011101800948381,6.67462691122166,4.90211188085574,-302.509231849116
738548.45818020147271454334,6.7207861568041,4.95750297555467,-302.509231849116
738548.45818029192741960287,6.76694540238655,5.0221259193701,-302.509231849116
738548.45818038238212466240,6.7207861568041,4.9390392773217,-302.509231849116
738548.45818047283682972193,6.73001800592059,4.92980742820521,-302.509231849116
738548.45818056317511945963,6.76694540238655,4.91134372997223,-302.509231849116
738548.45818065362982451916,6.82233649708548,4.92980742820521,-302.509231849116
738548.45818074408452957869,6.82233649708548,4.92980742820521,-302.509231849116
738548.45818083453923463821,6.76694540238655,4.86518448438978,-302.509231849116
738548.45818092499393969774,6.83156834620197,4.92057557908872,-302.509231849116
738548.45818101544864475727,6.95158238471633,5.0221259193701,-302.509231849116
738548.45818110590334981680,7.04390087588122,5.13290810876797,-302.509231849116
738548.45818119635805487633,6.74848170415357,4.87441633350627,-302.509231849116
738548.45818128669634461403,6.7207861568041,4.85595263527329,-302.509231849116
738548.45818137715104967356,6.73924985503708,4.8467207861568,-302.509231849116
738548.45818146760575473309,6.98850978118229,5.12367625965148,-302.509231849116
738548.45818155806045979261,7.04390087588122,5.16983550523392,-302.509231849116
738548.45818164851516485214,6.75771355327006,4.87441633350627,-302.509231849116
738548.45818173896986991167,6.87772759178442,5.00366222113712,-302.509231849116
738548.45818182942457497120,6.81310464796899,4.97596667378765,-302.509231849116
738548.45818191976286470890,6.70232245857112,4.8467207861568,-302.509231849116
738548.45818201021756976843,6.78540910061953,4.91134372997223,-302.509231849116
738548.45818210067227482796,7.01620532853175,5.14213995788446,-302.509231849116
738548.45818219112697988749,6.96081423383282,5.09598071230201,-302.509231849116
738548.45818228158168494701,6.8038727988525,4.9390392773217,-302.509231849116
738548.45818237203639000654,6.59154026917325,4.72670674764244,-302.509231849116
738548.45818246249109506607,6.77617725150304,4.9390392773217,-302.509231849116
738548.45818255282938480377,6.87772759178442,5.0221259193701,-302.509231849116
738548.45818264328408986330,6.69309060945463,4.87441633350627,-302.509231849116
738548.45818273373879492283,6.7207861568041,4.94827112643818,-302.509231849116
738548.45818282419349998236,6.5546128727073,4.80056154057436,-302.509231849116
738548.45818291464820504189,6.62846766563921,4.92980742820521,-302.509231849116
738548.45818300510291010141,7.09929197058016,5.30831324198126,-302.509231849116
738548.45818309555761516094,7.26546525467696,5.38216803491317,-302.509231849116
738548.45818318601232022047,7.8286080507828,5.67758720664083,-302.509231849116
738548.45818327635060995817,8.00401318399609,5.16983550523392,-302.509231849116
738548.45818336680531501770,7.33008819849239,4.72670674764244,-302.509231849116
738548.45818345726002007723,6.36997589037751,4.41282387768181,-302.509231849116
738548.45818354771472513676,6.27765739921262,4.44975127414777,-302.509231849116
738548.45818363816943019629,6.85926389355144,4.8467207861568,-302.509231849116
738548.45818372862413525581,7.1454512161626,5.24369029816584,-302.509231849116
738548.45818381907884031534,6.4622943815424,4.70824304940947,-302.509231849116
738548.45818390941713005304,6.43459883419294,4.68977935117649,-302.509231849116
738548.45818399987183511257,6.49922177800836,4.80979338969085,-302.509231849116
738548.45818409032654017210,6.65616321298868,4.96673482467116,-302.509231849116
738548.45818418078124523163,6.53614917447432,4.86518448438978,-302.509231849116
738548.45818427123595029116,6.53614917447432,4.8467207861568,-302.509231849116
738548.45818436169065535069,6.57307657094027,4.92057557908872,-302.509231849116
738548.45818445214536041021,6.95158238471633,5.28061769463179,-302.509231849116
738548.45818454248365014791,6.97004608294931,5.32677694021424,-302.509231849116
738548.45818463293835520744,6.5546128727073,4.87441633350627,-302.509231849116
738548.45818472339306026697,6.32381664479507,4.71747489852596,-302.509231849116
738548.45818481384776532650,6.44383068330943,4.82825708792383,-302.509231849116
738548.45818490430247038603,6.54538102359081,4.98519852290414,-302.509231849116
738548.45818499475717544556,6.5546128727073,5.01289407025361,-302.509231849116
738548.45818508521188050508,6.56384472182379,5.04058961760308,-302.509231849116
738548.45818517566658556461,6.57307657094027,5.08674886318552,-302.509231849116
738548.45818526600487530231,6.58230842005676,5.07751701406903,-302.509231849116
738548.45818535645958036184,6.7207861568041,5.23445844904935,-302.509231849116
738548.45818544691428542137,6.81310464796899,5.2713858455153,-302.509231849116
738548.45818553736899048090,6.85003204443495,5.28984954374828,-302.509231849116
738548.45818562782369554043,6.62846766563921,5.00366222113712,-302.509231849116
738548.45818571827840059996,6.60077211828974,4.9390392773217,-302.509231849116
738548.45818580873310565948,6.66539506210517,4.91134372997223,-302.509231849116
738548.45818589907139539719,6.73924985503708,4.95750297555467,-302.509231849116
738548.45818598952610045671,6.82233649708548,4.98519852290414,-302.509231849116
738548.45818607998080551624,6.78540910061953,4.91134372997223,-302.509231849116
738548.45818617043551057577,6.77617725150304,4.85595263527329,-302.509231849116
738548.45818626089021563530,6.64693136387219,4.72670674764244,-302.509231849116
738548.45818635134492069483,6.5546128727073,4.62515640736106,-302.509231849116
738548.45818644179962575436,6.58230842005676,4.71747489852596,-302.509231849116
738548.45818653213791549206,6.50845362712485,4.68977935117649,-302.509231849116
738548.45818662259262055159,6.24996185186316,4.52360606707968,-302.509231849116
738548.45818671304732561111,6.35151219214454,4.68054750206,-302.509231849116
738548.45818680350203067064,5.8714560380871,4.20049134800256,-302.509231849116
738548.45818689395673573017,5.8714560380871,4.21895504623554,-302.509231849116
738548.45818698441144078970,6.00993377483444,4.35743278298288,-302.509231849116
738548.45818707486614584923,6.02839747306742,4.41282387768181,-302.509231849116
738548.45818716520443558693,6.05609302041688,4.46821497238075,-302.509231849116
738548.45818725565914064646,6.06532486953337,4.51437421796319,-302.509231849116
738548.45818734611384570599,6.06532486953337,4.49591051973022,-302.509231849116
738548.45818743656855076551,6.1299478133488,4.58822901089511,-302.509231849116
738548.45818752702325582504,6.14841151158177,4.61592455824457,-302.509231849116
738548.45818761747796088457,6.18533890804773,4.68054750206,-302.509231849116
738548.45818770793266594410,6.26842555009613,4.73593859675893,-302.509231849116
738548.45818779838737100363,6.2961210974456,4.78209784234138,-302.509231849116
738548.45818788872566074133,6.36074404126102,4.82825708792383,-302.509231849116
738548.45818797918036580086,6.41613513595996,4.87441633350627,-302.509231849116
738548.45818806963507086039,6.45306253242592,4.92980742820521,-302.509231849116
738548.45818816008977591991,6.51768547624134,4.97596667378765,-302.509231849116
738548.45818825054448097944,6.52691732535783,5.00366222113712,-302.509231849116
738548.45818834099918603897,6.48075807977538,5.00366222113712,-302.509231849116
738548.45818843145389109850,6.48075807977538,5.04982146671956,-302.509231849116
738548.45818852179218083620,6.44383068330943,5.04058961760308,-302.509231849116
738548.45818861224688589573,6.41613513595996,5.07751701406903,-302.509231849116
738548.45818870270159095526,6.379207739494,5.05905331583605,-302.509231849116
738548.45818879315629601479,6.20380260628071,4.95750297555467,-302.509231849116
738548.45818888361100107431,6.17610705893124,4.96673482467116,-302.509231849116
738548.45818897406570613384,6.09302041688284,4.87441633350627,-302.509231849116
738548.45818906452041119337,6.08378856776635,4.82825708792383,-302.509231849116
738548.45818915485870093107,6.04686117130039,4.80056154057436,-302.509231849116
738548.45818924531340599060,6.06532486953337,4.78209784234138,-302.509231849116
738548.45818933576811105013,6.1299478133488,4.81902523880734,-302.509231849116
738548.45818942622281610966,6.20380260628071,4.88364818262276,-302.509231849116
738548.45818951667752116919,6.31458479567858,4.95750297555467,-302.509231849116
738548.45818960713222622871,6.52691732535783,5.16060365611744,-302.509231849116
738548.45818969758693128824,6.69309060945463,5.28984954374828,-302.509231849116
738548.45818978804163634777,6.73001800592059,5.35447248756371,-302.509231849116
738548.45818987837992608547,6.42536698507645,4.99443037202063,-302.509231849116
738548.45818996883463114500,6.26842555009613,4.85595263527329,-302.509231849116
738548.45819005928933620453,6.39767143772698,4.9390392773217,-302.509231849116
738548.45819014974404126406,6.41613513595996,4.99443037202063,-302.509231849116
738548.45819024019874632359,6.40690328684347,4.98519852290414,-302.509231849116
738548.45819033065345138311,6.42536698507645,5.00366222113712,-302.509231849116
738548.45819042110815644264,6.40690328684347,4.91134372997223,-302.509231849116
738548.45819051144644618034,6.42536698507645,4.90211188085574,-302.509231849116
738548.45819060190115123987,6.54538102359081,5.01289407025361,-302.509231849116
738548.45819069235585629940,6.7207861568041,5.16983550523392,-302.509231849116
738548.45819078281056135893,6.5546128727073,4.95750297555467,-302.509231849116
738548.45819087326526641846,6.2130344553972,4.56053346354564,-302.509231849116
738548.45819096371997147799,6.28688924832911,4.62515640736106,-302.509231849116
738548.45819105417467653751,6.41613513595996,4.71747489852596,-302.509231849116
738548.45819114451296627522,6.44383068330943,4.74517044587542,-302.509231849116
738548.45819123496767133474,6.49922177800836,4.7636341441084,-302.509231849116
738548.45819132542237639427,6.50845362712485,4.8467207861568,-302.509231849116
738548.45819141587708145380,6.82233649708548,5.20676290169988,-302.509231849116
738548.45819150633178651333,7.0623645741142,5.34524063844722,-302.509231849116
738548.45819159678649157286,7.83783989989929,5.88991973632008,-302.509231849116
738548.45819168724119663239,8.27173680837428,5.69605090487381,-302.509231849116
738548.45819177757948637009,6.84080019531846,4.41282387768181,-302.509231849116
738548.45819186803419142962,5.88991973632008,4.01585436567278,-302.509231849116
738548.45819195848889648914,6.08378856776635,4.32050538651692,-302.509231849116
738548.45819204894360154867,6.49922177800836,4.63438825647755,-302.509231849116
738548.45819213939830660820,6.5546128727073,4.77286599322489,-302.509231849116
738548.45819222985301166773,6.51768547624134,4.89288003173925,-302.509231849116
738548.45819232030771672726,6.49922177800836,4.87441633350627,-302.509231849116
738548.45819241076242178679,6.58230842005676,4.97596667378765,-302.509231849116
738548.45819250110071152449,6.62846766563921,5.03135776848659,-302.509231849116
738548.45819259155541658401,6.73001800592059,5.06828516495254,-302.509231849116
738548.45819268201012164354,6.45306253242592,4.82825708792383,-302.509231849116
738548.45819277246482670307,6.61923581652272,4.98519852290414,-302.509231849116
738548.45819286291953176260,6.69309060945463,5.05905331583605,-302.509231849116
738548.45819295337423682213,6.59154026917325,4.92057557908872,-302.509231849116
738548.45819304382894188166,6.65616321298868,5.0221259193701,-302.509231849116
738548.45819313416723161936,6.74848170415357,5.07751701406903,-302.509231849116
738548.45819322462193667889,6.82233649708548,5.12367625965148,-302.509231849116
738548.45819331507664173841,6.92388683736686,5.16983550523392,-302.509231849116
738548.45819340553134679794,6.98850978118229,5.17906735435041,-302.509231849116
738548.45819349598605185747,6.99774163029878,5.15137180700095,-302.509231849116
738548.45819358644075691700,7.04390087588122,5.1882992034669,-302.509231849116
738548.45819367689546197653,7.0623645741142,5.19753105258339,-302.509231849116
738548.45819376723375171423,7.05313272499771,5.22522659993286,-302.509231849116
738548.45819385768845677376,7.07159642323069,5.25292214728233,-302.509231849116
738548.45819394814316183329,7.05313272499771,5.26215399639882,-302.509231849116
738548.45819403859786689281,7.07159642323069,5.29908139286477,-302.509231849116
738548.45819412905257195234,7.09929197058016,5.31754509109775,-302.509231849116
738548.45819421950727701187,7.10852381969665,5.35447248756371,-302.509231849116
738548.45819430996198207140,7.09006012146367,5.29908139286477,-302.509231849116
738548.45819440041668713093,7.10852381969665,5.32677694021424,-302.509231849116
738548.45819449075497686863,7.12698751792962,5.28984954374828,-302.509231849116
738548.45819458120968192816,7.03466902676473,5.20676290169988,-302.509231849116
738548.45819467166438698769,7.01620532853175,5.17906735435041,-302.509231849116
738548.45819476211909204721,7.02543717764824,5.16983550523392,-302.509231849116
738548.45819485257379710674,6.82233649708548,4.99443037202063,-302.509231849116
738548.45819494302850216627,6.73001800592059,4.91134372997223,-302.509231849116
738548.45819503348320722580,6.70232245857112,4.91134372997223,-302.509231849116
738548.45819512382149696350,6.66539506210517,4.89288003173925,-302.509231849116
738548.45819521427620202303,6.61923581652272,4.86518448438978,-302.509231849116
738548.45819530473090708256,6.60077211828974,4.83748893704032,-302.509231849116
738548.45819539518561214209,6.59154026917325,4.87441633350627,-302.509231849116
738548.45819548564031720161,6.64693136387219,4.92057557908872,-302.509231849116
738548.45819557609502226114,6.79464094973601,5.08674886318552,-302.509231849116
738548.45819566654972732067,6.42536698507645,4.69901120029298,-302.509231849116
738548.45819575688801705837,6.34228034302805,4.64362010559404,-302.509231849116
738548.45819584734272211790,6.36997589037751,4.63438825647755,-302.509231849116
738548.45819593779742717743,6.52691732535783,4.82825708792383,-302.509231849116
738548.45819602825213223696,6.43459883419294,4.71747489852596,-302.509231849116
738548.45819611870683729649,6.44383068330943,4.73593859675893,-302.509231849116
738548.45819620916154235601,6.48998992889187,4.78209784234138,-302.509231849116
738548.45819629961624741554,6.57307657094027,4.85595263527329,-302.509231849116
738548.45819639007095247507,6.61000396740623,4.88364818262276,-302.509231849116
738548.45819648040924221277,6.65616321298868,4.89288003173925,-302.509231849116
738548.45819657086394727230,6.65616321298868,4.89288003173925,-302.509231849116
738548.45819666131865233183,6.69309060945463,4.89288003173925,-302.509231849116
738548.45819675177335739136,6.70232245857112,4.91134372997223,-302.509231849116
738548.45819684222806245089,6.73924985503708,4.92980742820521,-302.509231849116
738548.45819693268276751041,6.77617725150304,4.97596667378765,-302.509231849116
738548.45819702313747256994,6.76694540238655,4.9390392773217,-302.509231849116
738548.45819711347576230764,6.77617725150304,4.9390392773217,-302.509231849116
738548.45819720393046736717,6.7207861568041,4.89288003173925,-302.509231849116
738548.45819729438517242670,6.56384472182379,4.69901120029298,-302.509231849116
738548.45819738483987748623,6.62846766563921,4.80056154057436,-302.509231849116
738548.45819747529458254576,6.69309060945463,4.86518448438978,-302.509231849116
738548.45819756574928760529,6.76694540238655,4.89288003173925,-302.509231849116
738548.45819765620399266481,6.75771355327006,4.87441633350627,-302.509231849116
738548.45819774654228240252,6.75771355327006,4.97596667378765,-302.509231849116
738548.45819783699698746204,6.78540910061953,4.94827112643818,-302.509231849116
738548.45819792745169252157,6.69309060945463,4.91134372997223,-302.509231849116
738548.45819801790639758110,6.65616321298868,4.87441633350627,-302.509231849116
738548.45819810836110264063,6.61000396740623,4.87441633350627,-302.509231849116
738548.45819819881580770016,6.67462691122166,4.97596667378765,-302.509231849116
738548.45819828927051275969,6.48075807977538,4.66208380382702,-302.509231849116
738548.45819837960880249739,6.40690328684347,4.63438825647755,-302.509231849116
738548.45819847006350755692,6.41613513595996,4.55130161442915,-302.509231849116
738548.45819856051821261644,6.47152623065889,4.60669270912809,-302.509231849116
738548.45819865097291767597,6.49922177800836,4.5974608600116,-302.509231849116
738548.45819874142762273550,6.68385876033815,4.72670674764244,-302.509231849116
738548.45819883188232779503,6.66539506210517,4.62515640736106,-302.509231849116
738548.45819892233703285456,6.48998992889187,4.4220557267983,-302.509231849116
738548.45819901279173791409,6.5546128727073,4.48667867061373,-302.509231849116
738548.45819910313002765179,6.60077211828974,4.51437421796319,-302.509231849116
738548.45819919358473271132,6.62846766563921,4.67131565294351,-302.509231849116
738548.45819928403943777084,6.89619129001739,4.88364818262276,-302.509231849116
738548.45819937449414283037,7.42240668965728,5.38216803491317,-302.509231849116
738548.45819946494884788990,8.02247688222907,5.48371837519456,-302.509231849116
738548.45819955540355294943,7.49626148258919,4.92980742820521,-302.509231849116
738548.45819964585825800896,6.4622943815424,4.35743278298288,-302.509231849116
738548.45819973619654774666,6.10225226599933,4.39436017944884,-302.509231849116
738548.45819982665125280619,6.4622943815424,4.71747489852596,-302.509231849116
738548.45819991710595786572,6.60077211828974,4.82825708792383,-302.509231849116
738548.45820000756066292524,6.61923581652272,4.92057557908872,-302.509231849116
738548.45820009801536798477,6.58230842005676,5.04058961760308,-302.509231849116
738548.45820018847007304430,6.58230842005676,5.04058961760308,-302.509231849116
738548.45820027892477810383,6.5546128727073,5.05905331583605,-302.509231849116
738548.45820036926306784153,6.5546128727073,5.08674886318552,-302.509231849116
738548.45820045971777290106,6.57307657094027,5.12367625965148,-302.509231849116
738548.45820055017247796059,6.6376995147557,5.16060365611744,-302.509231849116
738548.45820064062718302011,6.62846766563921,5.20676290169988,-302.509231849116
738548.45820073108188807964,6.60077211828974,5.26215399639882,-302.509231849116
738548.45820082153659313917,6.60077211828974,5.34524063844722,-302.509231849116
738548.45820091199129819870,6.60077211828974,5.40986358226264,-302.509231849116
738548.45820100244600325823,6.62846766563921,5.45602282784509,-302.509231849116
738548.45820109278429299593,6.62846766563921,5.43755912961211,-302.509231849116
738548.45820118323899805546,6.61923581652272,5.41909543137913,-302.509231849116
738548.45820127369370311499,6.64693136387219,5.46525467696158,-302.509231849116
738548.45820136414840817451,6.69309060945463,5.50218207342753,-302.509231849116
738548.45820145460311323404,6.67462691122166,5.52064577166051,-302.509231849116
738548.45820154505781829357,6.69309060945463,5.16060365611744,-302.509231849116
738548.45820163551252335310,6.74848170415357,5.52064577166051,-302.509231849116
738548.45820172585081309080,6.77617725150304,5.75144199957274,-302.509231849116
738548.45820181630551815033,6.81310464796899,5.88068788720359,-302.509231849116
738548.45820190676022320986,6.87772759178442,5.8714560380871,-302.509231849116
738548.45820199721492826939,6.88695944090091,5.83452864162114,-302.509231849116
738548.45820208766963332891,6.85926389355144,5.76067384868923,-302.509231849116
738548.45820217812433838844,6.82233649708548,5.71451460310678,-302.509231849116
738548.45820226857904344797,6.79464094973601,5.67758720664083,-302.509231849116
738548.45820235891733318567,6.69309060945463,5.60373241370891,-302.509231849116
738548.45820244937203824520,6.61000396740623,5.56680501724296,-302.509231849116
738548.45820253982674330473,6.49922177800836,5.51141392254402,-302.509231849116
738548.45820263028144836426,6.40690328684347,5.38216803491317,-302.509231849116
738548.45820272073615342379,6.30535294656209,5.26215399639882,-302.509231849116
738548.45820281119085848331,6.30535294656209,5.28061769463179,-302.509231849116
738548.45820290164556354284,6.30535294656209,5.15137180700095,-302.509231849116
738548.45820299210026860237,6.38843958861049,5.16060365611744,-302.509231849116
738548.45820308243855834007,6.36074404126102,5.08674886318552,-302.509231849116
738548.45820317289326339960,6.36074404126102,5.01289407025361,-302.509231849116
738548.45820326334796845913,6.38843958861049,4.94827112643818,-302.509231849116
738548.45820335380267351866,6.35151219214454,4.92057557908872,-302.509231849116
738548.45820344425737857819,6.2961210974456,4.87441633350627,-302.509231849116
738548.45820353471208363771,6.31458479567858,4.87441633350627,-302.509231849116
738548.45820362516678869724,6.2961210974456,4.88364818262276,-302.509231849116
738548.45820371550507843494,6.31458479567858,4.91134372997223,-302.509231849116
738548.45820380595978349447,6.36074404126102,4.92980742820521,-302.509231849116
738548.45820389641448855400,6.379207739494,4.82825708792383,-302.509231849116
738548.45820398686919361353,6.39767143772698,4.87441633350627,-302.509231849116
738548.45820407732389867306,6.42536698507645,5.04058961760308,-302.509231849116
738548.45820416777860373259,6.45306253242592,5.0221259193701,-302.509231849116
738548.45820425823330879211,6.47152623065889,4.98519852290414,-302.509231849116
738548.45820434857159852982,6.48998992889187,4.99443037202063,-302.509231849116
738548.45820443902630358934,6.52691732535783,4.99443037202063,-302.509231849116
738548.45820452948100864887,6.49922177800836,4.97596667378765,-302.509231849116
738548.45820461993571370840,6.52691732535783,5.01289407025361,-302.509231849116
738548.45820471039041876793,6.47152623065889,4.99443037202063,-302.509231849116
738548.45820480084512382746,6.4622943815424,4.94827112643818,-302.509231849116
738548.45820489129982888699,6.44383068330943,4.94827112643818,-302.509231849116
738548.45820498163811862469,6.43459883419294,4.89288003173925,-302.509231849116
738548.45820507209282368422,6.42536698507645,4.86518448438978,-302.509231849116
738548.45820516254752874374,6.4622943815424,4.83748893704032,-302.509231849116
738548.45820525300223380327,6.49922177800836,4.80979338969085,-302.509231849116
738548.45820534345693886280,6.54538102359081,4.82825708792383,-302.509231849116
738548.45820543391164392233,6.56384472182379,4.82825708792383,-302.509231849116
738548.45820552436634898186,6.59154026917325,4.86518448438978,-302.509231849116
738548.45820561482105404139,6.66539506210517,4.92057557908872,-302.509231849116
738548.45820570515934377909,6.61923581652272,4.89288003173925,-302.509231849116
738548.45820579561404883862,6.57307657094027,4.85595263527329,-302.509231849116
738548.45820588606875389814,6.54538102359081,4.86518448438978,-302.509231849116
738548.45820597652345895767,6.51768547624134,4.80056154057436,-302.509231849116
738548.45820606697816401720,6.52691732535783,4.7636341441084,-302.509231849116
738548.45820615743286907673,6.48075807977538,4.68054750206,-302.509231849116
738548.45820624788757413626,6.48998992889187,4.68977935117649,-302.509231849116
738548.45820633822586387396,6.49922177800836,4.65285195471053,-302.509231849116
738548.45820642868056893349,6.50845362712485,4.68054750206,-302.509231849116
738548.45820651913527399302,6.52691732535783,4.68054750206,-302.509231849116
738548.45820660958997905254,6.5546128727073,4.73593859675893,-302.509231849116
738548.45820670004468411207,6.56384472182379,4.75440229499191,-302.509231849116
738548.45820679049938917160,6.58230842005676,4.77286599322489,-302.509231849116
738548.45820688095409423113,6.5546128727073,4.78209784234138,-302.509231849116
738548.45820697129238396883,6.57307657094027,4.92057557908872,-302.509231849116
738548.45820706174708902836,6.93311868648335,5.21599475081637,-302.509231849116
738548.45820715220179408789,7.5701162755211,5.64989165929136,-302.509231849116
738548.45820724265649914742,8.01324503311258,5.45602282784509,-302.509231849116
738548.45820733311120420694,7.70859401226844,5.08674886318552,-302.509231849116
738548.45820742356590926647,6.73001800592059,4.40359202856532,-302.509231849116
738548.45820751402061432600,6.14841151158177,4.26511429181799,-302.509231849116
738548.45820760447531938553,6.4622943815424,4.5974608600116,-302.509231849116
738548.45820769481360912323,6.73001800592059,4.77286599322489,-302.509231849116
738548.45820778526831418276,6.70232245857112,4.89288003173925,-302.509231849116
738548.45820787572301924229,6.65616321298868,4.9390392773217,-302.509231849116
738548.45820796617772430182,6.68385876033815,4.94827112643818,-302.509231849116
738548.45820805663242936134,6.69309060945463,5.01289407025361,-302.509231849116
738548.45820814708713442087,6.70232245857112,5.04058961760308,-302.509231849116
738548.45820823754183948040,6.69309060945463,5.0221259193701,-302.509231849116
738548.45820832788012921810,6.68385876033815,4.99443037202063,-302.509231849116
738548.45820841833483427763,6.69309060945463,5.05905331583605,-302.509231849116
738548.45820850878953933716,6.71155430768761,5.11444441053499,-302.509231849116
738548.45820859924424439669,6.75771355327006,5.14213995788446,-302.509231849116
738548.45820868969894945621,6.73924985503708,5.12367625965148,-302.509231849116
738548.45820878015365451574,6.76694540238655,5.1882992034669,-302.509231849116
738548.45820887060835957527,6.78540910061953,5.21599475081637,-302.509231849116
738548.45820896094664931297,6.8038727988525,5.25292214728233,-302.509231849116
738548.45820905140135437250,6.8038727988525,5.26215399639882,-302.509231849116
738548.45820914185605943203,6.84080019531846,5.32677694021424,-302.509231849116
738548.45820923231076449156,6.85926389355144,5.35447248756371,-302.509231849116
738548.45820932276546955109,6.84080019531846,5.34524063844722,-302.509231849116
738548.45820941322017461061,6.86849574266793,5.37293618579669,-302.509231849116
738548.45820950367487967014,6.91465498825037,5.40063173314615,-302.509231849116
738548.45820959401316940784,7.01620532853175,5.4467909787286,-302.509231849116
738548.45820968446787446737,7.01620532853175,5.45602282784509,-302.509231849116
738548.45820977492257952690,7.00697347941527,5.3637043366802,-302.509231849116
738548.45820986537728458643,7.00697347941527,5.17906735435041,-302.509231849116
738548.45820995583198964596,6.9792779320658,5.30831324198126,-302.509231849116
738548.45821004628669470549,6.97004608294931,5.35447248756371,-302.509231849116
738548.45821013674139976501,6.94235053559984,5.31754509109775,-302.509231849116
738548.45821022719610482454,6.88695944090091,5.17906735435041,-302.509231849116
738548.45821031753439456224,6.81310464796899,5.15137180700095,-302.509231849116
738548.45821040798909962177,6.73924985503708,5.08674886318552,-302.509231849116
738548.45821049844380468130,6.64693136387219,5.04058961760308,-302.509231849116
738548.45821058889850974083,6.57307657094027,5.03135776848659,-302.509231849116
738548.45821067935321480036,6.50845362712485,4.81902523880734,-302.509231849116
738548.45821076980791985989,6.4622943815424,4.8467207861568,-302.509231849116
738548.45821086026262491941,6.48075807977538,5.1882992034669,-302.509231849116
738548.45821095060091465712,6.48998992889187,5.14213995788446,-302.509231849116
738548.45821104105561971664,6.52691732535783,5.08674886318552,-302.509231849116
738548.45821113151032477617,6.54538102359081,5.07751701406903,-302.509231849116
738548.45821122196502983570,6.57307657094027,5.03135776848659,-302.509231849116
738548.45821131241973489523,6.59154026917325,5.04982146671956,-302.509231849116
738548.45821140287443995476,6.60077211828974,5.03135776848659,-302.509231849116
738548.45821149332914501429,6.56384472182379,5.09598071230201,-302.509231849116
738548.45821158366743475199,6.51768547624134,5.04982146671956,-302.509231849116
738548.45821167412213981152,6.41613513595996,5.06828516495254,-302.509231849116
738548.45821176457684487104,6.36997589037751,5.05905331583605,-302.509231849116
738548.45821185503154993057,6.36997589037751,5.05905331583605,-302.509231849116
738548.45821194548625499010,6.30535294656209,4.95750297555467,-302.509231849116
738548.45821203594096004963,6.25919370097964,4.97596667378765,-302.509231849116
738548.45821212639566510916,6.25919370097964,4.98519852290414,-302.509231849116
738548.45821221685037016869,6.23149815363018,4.97596667378765,-302.509231849116
738548.45821230718865990639,6.22226630451369,4.96673482467116,-302.509231849116
738548.45821239764336496592,6.25919370097964,5.05905331583605,-302.509231849116
738548.45821248809807002544,6.26842555009613,5.01289407025361,-302.509231849116
738548.45821257855277508497,6.2130344553972,4.92980742820521,-302.509231849116
738548.45821266900748014450,6.15764336069826,4.85595263527329,-302.509231849116
738548.45821275946218520403,6.18533890804773,4.85595263527329,-302.509231849116
738548.45821284991689026356,6.19457075716422,4.87441633350627,-302.509231849116
738548.45821294025518000126,6.23149815363018,4.87441633350627,-302.509231849116
738548.45821303070988506079,6.24996185186316,4.86518448438978,-302.509231849116
738548.45821312116459012032,6.27765739921262,4.85595263527329,-302.509231849116
738548.45821321161929517984,6.35151219214454,4.92057557908872,-302.509231849116
738548.45821330207400023937,6.44383068330943,4.96673482467116,-302.509231849116
738548.45821339252870529890,6.4622943815424,4.9390392773217,-302.509231849116
738548.45821348298341035843,6.39767143772698,4.92057557908872,-302.509231849116
738548.45821357332170009613,6.33304849391156,4.9390392773217,-302.509231849116
738548.45821366377640515566,6.33304849391156,4.91134372997223,-302.509231849116
738548.45821375423111021519,6.32381664479507,4.89288003173925,-302.509231849116
738548.45821384468581527472,6.24996185186316,4.83748893704032,-302.509231849116
738548.45821393514052033424,6.17610705893124,4.75440229499191,-302.509231849116
738548.45821402559522539377,6.19457075716422,4.80056154057436,-302.509231849116
738548.45821411604993045330,6.20380260628071,4.81902523880734,-302.509231849116
738548.45821420650463551283,6.24996185186316,4.79132969145787,-302.509231849116
738548.45821429684292525053,6.2961210974456,4.75440229499191,-302.509231849116
738548.45821438729763031006,6.27765739921262,4.69901120029298,-302.509231849116
738548.45821447775233536959,6.32381664479507,4.74517044587542,-302.509231849116
738548.45821456820704042912,6.33304849391156,4.90211188085574,-302.509231849116
738548.45821465866174548864,6.36074404126102,5.04058961760308,-302.509231849116
738548.45821474911645054817,6.59154026917325,5.15137180700095,-302.509231849116
738548.45821483957115560770,6.85003204443495,5.33600878933073,-302.509231849116
738548.45821492990944534540,7.55165257728812,5.73297830133976,-302.509231849116
738548.45821502036415040493,7.78244880520035,5.40986358226264,-302.509231849116
738548.45821511081885546446,6.76694540238655,4.72670674764244,-302.509231849116
738548.45821520127356052399,5.93607898190252,4.47744682149724,-302.509231849116
738548.45821529172826558352,6.08378856776635,4.67131565294351,-302.509231849116
738548.45821538218297064304,6.40690328684347,4.90211188085574,-302.509231849116
738548.45821547263767570257,6.36074404126102,4.9390392773217,-302.509231849116
738548.45821556297596544027,6.28688924832911,4.96673482467116,-302.509231849116
738548.45821565343067049980,6.28688924832911,5.08674886318552,-302.509231849116
738548.45821574388537555933,6.26842555009613,5.09598071230201,-302.509231849116
738548.45821583434008061886,6.23149815363018,5.0221259193701,-302.509231849116
738548.45821592479478567839,6.2130344553972,5.00366222113712,-302.509231849116
738548.45821601524949073792,6.20380260628071,5.05905331583605,-302.509231849116
738548.45821610570419579744,6.16687520981475,5.09598071230201,-302.509231849116
738548.45821619604248553514,6.14841151158177,5.06828516495254,-302.509231849116
738548.45821628649719059467,6.14841151158177,5.11444441053499,-302.509231849116
738548.45821637695189565420,6.13917966246528,5.0221259193701,-302.509231849116
738548.45821646740660071373,6.06532486953337,5.12367625965148,-302.509231849116
738548.45821655786130577326,6.13917966246528,5.29908139286477,-302.509231849116
738548.45821664831601083279,6.1299478133488,5.28984954374828,-302.509231849116
738548.45821673877071589231,6.13917966246528,5.31754509109775,-302.509231849116
738548.45821682922542095184,6.18533890804773,5.35447248756371,-302.509231849116
738548.45821691956371068954,6.2130344553972,5.3637043366802,-302.509231849116
738548.45821701001841574907,6.27765739921262,5.37293618579669,-302.509231849116
738548.45821710047312080860,6.33304849391156,5.40063173314615,-302.509231849116
738548.45821719092782586813,6.379207739494,5.38216803491317,-302.509231849116
738548.45821728138253092766,6.44383068330943,5.38216803491317,-302.509231849116
738548.45821737183723598719,6.4622943815424,5.35447248756371,-302.509231849116
738548.45821746229194104671,6.44383068330943,5.34524063844722,-302.509231849116
738548.45821755263023078442,6.49922177800836,5.28984954374828,-302.509231849116
738548.45821764308493584394,6.50845362712485,5.31754509109775,-302.509231849116
738548.45821773353964090347,6.48075807977538,5.22522659993286,-302.509231849116
738548.45821782399434596300,6.41613513595996,5.21599475081637,-302.509231849116
738548.45821791444905102253,6.33304849391156,5.13290810876797,-302.509231849116
738548.45821800490375608206,6.26842555009613,5.08674886318552,-302.509231849116
738548.45821809535846114159,6.2130344553972,5.0221259193701,-302.509231849116
738548.45821818569675087929,6.11148411511582,5.0221259193701,-302.509231849116
738548.45821827615145593882,6.05609302041688,4.98519852290414,-302.509231849116
738548.45821836660616099834,6.0376293221839,5.00366222113712,-302.509231849116
738548.45821845706086605787,5.94531083101901,4.87441633350627,-302.509231849116
738548.45821854751557111740,5.97300637836848,4.9390392773217,-302.509231849116
738548.45821863797027617693,5.98223822748497,4.96673482467116,-302.509231849116
738548.45821872842498123646,6.01916562395093,4.9390392773217,-302.509231849116
738548.45821881887968629599,6.0376293221839,4.9390392773217,-302.509231849116
738548.45821890921797603369,6.08378856776635,4.90211188085574,-302.509231849116
738548.45821899967268109322,6.1299478133488,4.89288003173925,-302.509231849116
738548.45821909012738615274,6.20380260628071,4.92980742820521,-302.509231849116
738548.45821918058209121227,6.17610705893124,4.94827112643818,-302.509231849116
738548.45821927103679627180,6.22226630451369,4.95750297555467,-302.509231849116
738548.45821936149150133133,6.24073000274667,4.97596667378765,-302.509231849116
738548.45821945194620639086,6.2130344553972,4.96673482467116,-302.509231849116
738548.45821954228449612856,6.24996185186316,4.9390392773217,-302.509231849116
738548.45821963273920118809,6.26842555009613,5.01289407025361,-302.509231849116
738548.45821972319390624762,6.28688924832911,4.96673482467116,-302.509231849116
738548.45821981364861130714,6.30535294656209,4.90211188085574,-302.509231849116
738548.45821990410331636667,6.26842555009613,5.04982146671956,-302.509231849116
738548.45821999455802142620,6.27765739921262,5.13290810876797,-302.509231849116
738548.45822008501272648573,6.26842555009613,5.11444441053499,-302.509231849116
738548.45822017535101622343,6.24073000274667,5.07751701406903,-302.509231849116
738548.45822026580572128296,6.26842555009613,5.06828516495254,-302.509231849116
738548.45822035626042634249,6.24996185186316,5.07751701406903,-302.509231849116
738548.45822044671513140202,6.25919370097964,5.08674886318552,-302.509231849116
738548.45822053716983646154,6.24996185186316,5.09598071230201,-302.509231849116
738548.45822062762454152107,6.26842555009613,5.07751701406903,-302.509231849116
738548.45822071807924658060,6.33304849391156,5.1052125614185,-302.509231849116
738548.45822080853395164013,6.34228034302805,5.06828516495254,-302.509231849116
738548.45822089887224137783,6.32381664479507,5.04982146671956,-302.509231849116
738548.45822098932694643736,6.28688924832911,5.0221259193701,-302.509231849116
738548.45822107978165149689,6.2130344553972,4.97596667378765,-302.509231849116
738548.45822117023635655642,6.20380260628071,4.95750297555467,-302.509231849116
738548.45822126069106161594,6.24073000274667,4.98519852290414,-302.509231849116
738548.45822135114576667547,6.22226630451369,4.96673482467116,-302.509231849116
738548.45822144160047173500,6.25919370097964,4.9390392773217,-302.509231849116
738548.45822153193876147270,6.2961210974456,4.99443037202063,-302.509231849116
738548.45822162239346653223,6.33304849391156,4.98519852290414,-302.509231849116
738548.45822171284817159176,6.36074404126102,4.99443037202063,-302.509231849116
738548.45822180330287665129,6.42536698507645,5.0221259193701,-302.509231849116
738548.45822189375758171082,6.45306253242592,5.0221259193701,-302.509231849116
738548.45822198421228677034,6.44383068330943,4.99443037202063,-302.509231849116
738548.45822207466699182987,6.36074404126102,5.05905331583605,-302.509231849116
738548.45822216500528156757,6.58230842005676,5.19753105258339,-302.509231849116
738548.45822225545998662710,7.08082827234718,5.43755912961211,-302.509231849116
738548.45822234591469168663,7.44087038789026,5.6129642628254,-302.509231849116
738548.45822243636939674616,8.06863612781152,5.53910946989349,-302.509231849116
738548.45822252682410180569,7.17314676351207,4.94827112643818,-302.509231849116
738548.45822261727880686522,6.40690328684347,4.57899716177862,-302.509231849116
738548.45822270773351192474,6.16687520981475,4.77286599322489,-302.509231849116
738548.45822279807180166245,6.5546128727073,4.97596667378765,-302.509231849116
738548.45822288852650672197,6.68385876033815,5.0221259193701,-302.509231849116
738548.45822297898121178150,6.67462691122166,5.06828516495254,-302.509231849116
738548.45822306943591684103,6.6376995147557,5.14213995788446,-302.509231849116
738548.45822315989062190056,6.61923581652272,5.11444441053499,-302.509231849116
738548.45822325034532696009,6.65616321298868,5.16060365611744,-302.509231849116
738548.45822334080003201962,6.62846766563921,5.13290810876797,-302.509231849116
738548.45822343125473707914,6.60077211828974,5.16060365611744,-302.509231849116
738548.45822352159302681684,6.61923581652272,5.16060365611744,-302.509231849116
738548.45822361204773187637,6.62846766563921,5.17906735435041,-302.509231849116
738548.45822370250243693590,6.60077211828974,5.1052125614185,-302.509231849116
738548.45822379295714199543,6.61000396740623,5.1882992034669,-302.509231849116
738548.45822388341184705496,6.61923581652272,5.23445844904935,-302.509231849116
738548.45822397386655211449,6.61923581652272,5.25292214728233,-302.509231849116
738548.45822406432125717402,6.64693136387219,5.26215399639882,-302.509231849116
738548.45822415465954691172,6.64693136387219,5.28984954374828,-302.509231849116
738548.45822424511425197124,6.65616321298868,5.31754509109775,-302.509231849116
738548.45822433556895703077,6.7207861568041,5.34524063844722,-302.509231849116
738548.45822442602366209030,6.73001800592059,5.40063173314615,-302.509231849116
738548.45822451647836714983,6.78540910061953,5.42832728049562,-302.509231849116
738548.45822460693307220936,6.84080019531846,5.51141392254402,-302.509231849116
738548.45822469738777726889,6.90542313913388,5.52064577166051,-302.509231849116
738548.45822478772606700659,6.94235053559984,5.55757316812647,-302.509231849116
738548.45822487818077206612,6.99774163029878,5.54834131900998,-302.509231849116
738548.45822496863547712564,6.98850978118229,5.52064577166051,-302.509231849116
738548.45822505909018218517,7.04390087588122,5.52064577166051,-302.509231849116
738548.45822514954488724470,7.02543717764824,5.49295022431104,-302.509231849116
738548.45822523999959230423,6.98850978118229,5.40063173314615,-302.509231849116
738548.45822533045429736376,6.94235053559984,5.3637043366802,-302.509231849116
738548.45822542090900242329,6.85926389355144,5.28061769463179,-302.509231849116
738548.45822551124729216099,6.81310464796899,5.25292214728233,-302.509231849116
738548.45822560170199722052,6.77617725150304,5.22522659993286,-302.509231849116
738548.45822569215670228004,6.65616321298868,5.12367625965148,-302.509231849116
738548.45822578261140733957,6.67462691122166,5.13290810876797,-302.509231849116
738548.45822587306611239910,6.66539506210517,5.1052125614185,-302.509231849116
738548.45822596352081745863,6.64693136387219,5.06828516495254,-302.509231849116
738548.45822605397552251816,6.66539506210517,5.06828516495254,-302.509231849116
738548.45822614431381225586,6.65616321298868,5.05905331583605,-302.509231849116
738548.45822623476851731539,6.67462691122166,5.03135776848659,-302.509231849116
738548.45822632522322237492,6.69309060945463,5.03135776848659,-302.509231849116
738548.45822641567792743444,6.7207861568041,5.01289407025361,-302.509231849116
738548.45822650613263249397,6.73924985503708,5.0221259193701,-302.509231849116
738548.45822659658733755350,6.74848170415357,5.03135776848659,-302.509231849116
738548.45822668704204261303,6.73924985503708,5.04982146671956,-302.509231849116
738548.45822677738033235073,6.74848170415357,5.06828516495254,-302.509231849116
738548.45822686783503741026,6.71155430768761,5.05905331583605,-302.509231849116
738548.45822695828974246979,6.69309060945463,5.07751701406903,-302.509231849116
738548.45822704874444752932,6.68385876033815,5.06828516495254,-302.509231849116
738548.45822713919915258884,6.65616321298868,5.04982146671956,-302.509231849116
738548.45822722965385764837,6.65616321298868,5.04058961760308,-302.509231849116
738548.45822732010856270790,6.65616321298868,5.04058961760308,-302.509231849116
738548.45822741056326776743,6.67462691122166,5.04058961760308,-302.509231849116
738548.45822750090155750513,6.67462691122166,5.0221259193701,-302.509231849116
738548.45822759135626256466,6.71155430768761,5.01289407025361,-302.509231849116
738548.45822768181096762419,6.70232245857112,5.04058961760308,-302.509231849116
738548.45822777226567268372,6.70232245857112,5.0221259193701,-302.509231849116
738548.45822786272037774324,6.7207861568041,5.05905331583605,-302.509231849116
738548.45822795317508280277,6.73001800592059,5.08674886318552,-302.509231849116
738548.45822804362978786230,6.75771355327006,5.08674886318552,-302.509231849116
738548.45822813396807760000,6.74848170415357,5.11444441053499,-302.509231849116
738548.45822822442278265953,6.7207861568041,5.07751701406903,-302.509231849116
738548.45822831487748771906,6.77617725150304,5.16060365611744,-302.509231849116
738548.45822840533219277859,6.78540910061953,5.14213995788446,-302.509231849116
738548.45822849578689783812,6.66539506210517,5.09598071230201,-302.509231849116
738548.45822858624160289764,6.62846766563921,5.07751701406903,-302.509231849116
738548.45822867669630795717,6.5546128727073,5.04982146671956,-302.509231849116
738548.45822876703459769487,6.53614917447432,4.97596667378765,-302.509231849116
738548.45822885748930275440,6.48998992889187,4.97596667378765,-302.509231849116
738548.45822894794400781393,6.48998992889187,4.94827112643818,-302.509231849116
738548.45822903839871287346,6.48998992889187,4.97596667378765,-302.509231849116
738548.45822912885341793299,6.53614917447432,4.96673482467116,-302.509231849116
738548.45822921930812299252,6.56384472182379,4.99443037202063,-302.509231849116
738548.45822930976282805204,6.61923581652272,4.98519852290414,-302.509231849116
738548.45822940010111778975,6.61000396740623,4.97596667378765,-302.509231849116
738548.45822949055582284927,6.60077211828974,4.94827112643818,-302.509231849116
738548.45822958101052790880,6.5546128727073,4.95750297555467,-302.509231849116
738548.45822967146523296833,6.57307657094027,5.04058961760308,-302.509231849116
738548.45822976191993802786,6.93311868648335,5.2713858455153,-302.509231849116
738548.45822985237464308739,7.228537858211,5.46525467696158,-302.509231849116
738548.45822994282934814692,8.01324503311258,5.71451460310678,-302.509231849116
738548.45823003328405320644,8.07786797692801,5.39139988402966,-302.509231849116
738548.45823012362234294415,6.87772759178442,4.89288003173925,-302.509231849116
738548.45823021407704800367,6.11148411511582,4.62515640736106,-302.509231849116
738548.45823030453175306320,6.57307657094027,4.80979338969085,-302.509231849116
738548.45823039498645812273,6.84080019531846,4.96673482467116,-302.509231849116
738548.45823048544116318226,6.8038727988525,5.03135776848659,-302.509231849116
738548.45823057589586824179,6.73924985503708,5.07751701406903,-302.509231849116
738548.45823066635057330132,6.73001800592059,5.05905331583605,-302.509231849116
738548.45823075668886303902,6.73924985503708,5.1052125614185,-302.509231849116
738548.45823084714356809855,6.75771355327006,5.09598071230201,-302.509231849116
738548.45823093759827315807,6.76694540238655,5.14213995788446,-302.509231849116
738548.45823102805297821760,6.79464094973601,5.15137180700095,-302.509231849116
738548.45823111850768327713,6.8038727988525,5.16983550523392,-302.509231849116
738548.45823120896238833666,6.8038727988525,5.19753105258339,-302.509231849116
738548.45823129941709339619,6.79464094973601,5.21599475081637,-302.509231849116
738548.45823138975538313389,6.8038727988525,5.20676290169988,-302.509231849116
738548.45823148021008819342,6.8038727988525,5.19753105258339,-302.509231849116
738548.45823157066479325294,6.83156834620197,5.21599475081637,-302.509231849116
738548.45823166111949831247,6.85003204443495,5.21599475081637,-302.509231849116
738548.45823175157420337200,6.85926389355144,5.25292214728233,-302.509231849116
738548.45823184202890843153,6.93311868648335,5.28984954374828,-302.509231849116
738548.45823193248361349106,6.9792779320658,5.35447248756371,-302.509231849116
738548.45823202293831855059,7.0623645741142,5.39139988402966,-302.509231849116
738548.45823211327660828829,7.13621936704611,5.45602282784509,-302.509231849116
738548.45823220373131334782,7.16391491439558,5.45602282784509,-302.509231849116
738548.45823229418601840734,7.20084231086154,5.52064577166051,-302.509231849116
738548.45823238464072346687,7.21930600909452,5.52064577166051,-302.509231849116
738548.45823247509542852640,7.26546525467696,5.529877620777,-302.509231849116
738548.45823256555013358593,7.26546525467696,5.49295022431104,-302.509231849116
738548.45823265600483864546,7.26546525467696,5.45602282784509,-302.509231849116
738548.45823274634312838316,7.23776970732749,5.39139988402966,-302.509231849116
738548.45823283679783344269,7.20084231086154,5.31754509109775,-302.509231849116
738548.45823292725253850222,7.15468306527909,5.24369029816584,-302.509231849116
738548.45823301770724356174,7.11775566881313,5.19753105258339,-302.509231849116
738548.45823310816194862127,7.04390087588122,5.14213995788446,-302.509231849116
738548.45823319861665368080,7.00697347941527,5.12367625965148,-302.509231849116
738548.45823328907135874033,6.93311868648335,5.09598071230201,-302.509231849116
738548.45823337940964847803,6.90542313913388,5.08674886318552,-302.509231849116
738548.45823346986435353756,6.86849574266793,5.08674886318552,-302.509231849116
738548.45823356031905859709,6.84080019531846,5.04982146671956,-302.509231849116
738548.45823365077376365662,6.82233649708548,5.03135776848659,-302.509231849116
738548.45823374122846871614,6.82233649708548,5.04058961760308,-302.509231849116
738548.45823383168317377567,6.85926389355144,5.06828516495254,-302.509231849116
738548.45823392213787883520,6.84080019531846,5.04982146671956,-302.509231849116
738548.45823401247616857290,6.81310464796899,5.04058961760308,-302.509231849116
738548.45823410293087363243,6.78540910061953,5.04982146671956,-302.509231849116
738548.45823419338557869196,6.79464094973601,5.05905331583605,-302.509231849116
738548.45823428384028375149,6.79464094973601,5.07751701406903,-302.509231849116
738548.45823437429498881102,6.79464094973601,5.06828516495254,-302.509231849116
738548.45823446474969387054,6.75771355327006,5.05905331583605,-302.509231849116
738548.45823455520439893007,6.77617725150304,5.08674886318552,-302.509231849116
738548.45823464565910398960,6.8038727988525,5.08674886318552,-302.509231849116
738548.45823473599739372730,6.79464094973601,5.04058961760308,-302.509231849116
738548.45823482645209878683,6.82233649708548,5.06828516495254,-302.509231849116
738548.45823491690680384636,6.82233649708548,5.03135776848659,-302.509231849116
738548.45823500736150890589,6.85003204443495,5.05905331583605,-302.509231849116
738548.45823509781621396542,6.84080019531846,5.0221259193701,-302.509231849116
738548.45823518827091902494,6.83156834620197,5.04982146671956,-302.509231849116
738548.45823527872562408447,6.84080019531846,5.04982146671956,-302.509231849116
738548.45823536906391382217,6.83156834620197,5.07751701406903,-302.509231849116
738548.45823545951861888170,6.85926389355144,5.07751701406903,-302.509231849116
738548.45823554997332394123,6.83156834620197,5.04982146671956,-302.509231849116
738548.45823564042802900076,6.83156834620197,5.08674886318552,-302.509231849116
738548.45823573088273406029,6.91465498825037,5.13290810876797,-302.509231849116
738548.45823582133743911982,6.93311868648335,5.14213995788446,-302.509231849116
738548.45823591179214417934,6.88695944090091,5.07751701406903,-302.509231849116
738548.45823600213043391705,6.86849574266793,5.12367625965148,-302.509231849116
738548.45823609258513897657,6.82233649708548,5.09598071230201,-302.509231849116
738548.45823618303984403610,6.78540910061953,5.07751701406903,-302.509231849116
738548.45823627349454909563,6.75771355327006,5.03135776848659,-302.509231849116
738548.45823636394925415516,6.65616321298868,5.01289407025361,-302.509231849116
738548.45823645440395921469,6.73001800592059,5.07751701406903,-302.509231849116
738548.45823654485866427422,6.62846766563921,5.03135776848659,-302.509231849116
738548.45823663531336933374,6.56384472182379,4.94827112643818,-302.509231849116
738548.45823672565165907145,6.59154026917325,4.98519852290414,-302.509231849116
738548.45823681610636413097,6.5546128727073,4.92057557908872,-302.509231849116
738548.45823690656106919050,6.57307657094027,4.92980742820521,-302.509231849116
738548.45823699701577425003,6.60077211828974,4.94827112643818,-302.509231849116
738548.45823708747047930956,6.56384472182379,4.99443037202063,-302.509231849116
738548.45823717792518436909,6.74848170415357,5.14213995788446,-302.509231849116
738548.45823726837988942862,6.96081423383282,5.25292214728233,-302.509231849116
738548.45823735871817916632,7.64397106845302,5.65912350840785,-302.509231849116
738548.45823744917288422585,8.29943235572375,5.56680501724296,-302.509231849116
738548.45823753962758928537,7.51472518082217,5.04058961760308,-302.509231849116
738548.45823763008229434490,6.379207739494,4.65285195471053,-302.509231849116
738548.45823772053699940443,6.40690328684347,4.67131565294351,-302.509231849116
738548.45823781099170446396,6.87772759178442,4.85595263527329,-302.509231849116
738548.45823790144640952349,6.97004608294931,5.0221259193701,-302.509231849116
738548.45823799178469926119,6.93311868648335,5.11444441053499,-302.509231849116
738548.45823808223940432072,6.84080019531846,5.09598071230201,-302.509231849116
738548.45823817269410938025,6.84080019531846,5.1052125614185,-302.509231849116
738548.45823826314881443977,6.81310464796899,5.11444441053499,-302.509231849116
738548.45823835360351949930,6.84080019531846,5.16060365611744,-302.509231849116
738548.45823844405822455883,6.87772759178442,5.23445844904935,-302.509231849116
738548.45823853451292961836,7.00697347941527,5.35447248756371,-302.509231849116
738548.45823862496763467789,6.94235053559984,5.29908139286477,-302.509231849116
738548.45823871530592441559,6.89619129001739,5.24369029816584,-302.509231849116
738548.45823880576062947512,6.76694540238655,5.08674886318552,-302.509231849116
738548.45823889621533453465,6.79464094973601,5.12367625965148,-302.509231849116
738548.45823898667003959417,6.86849574266793,5.16983550523392,-302.509231849116
738548.45823907712474465370,6.92388683736686,5.23445844904935,-302.509231849116
738548.45823916757944971323,6.96081423383282,5.25292214728233,-302.509231849116
738548.45823925803415477276,7.00697347941527,5.29908139286477,-302.509231849116
738548.45823934837244451046,7.05313272499771,5.32677694021424,-302.509231849116
738548.45823943882714956999,7.10852381969665,5.39139988402966,-302.509231849116
738548.45823952928185462952,7.15468306527909,5.42832728049562,-302.509231849116
738548.45823961973655968904,7.228537858211,5.49295022431104,-302.509231849116
738548.45823971019126474857,7.24700155644398,5.52064577166051,-302.509231849116
738548.45823980064596980810,7.28392895290994,5.53910946989349,-302.509231849116
738548.45823989110067486763,7.3208563493759,5.53910946989349,-302.509231849116
738548.45823998143896460533,7.30239265114292,5.56680501724296,-302.509231849116
738548.45824007189366966486,7.29316080202643,5.529877620777,-302.509231849116
738548.45824016234837472439,7.30239265114292,5.47448652607807,-302.509231849116
738548.45824025280307978392,7.27469710379345,5.40986358226264,-302.509231849116
738548.45824034325778484344,7.228537858211,5.33600878933073,-302.509231849116
738548.45824043371248990297,7.1454512161626,5.28061769463179,-302.509231849116
738548.45824052416719496250,7.09006012146367,5.19753105258339,-302.509231849116
738548.45824061450548470020,7.03466902676473,5.17906735435041,-302.509231849116
738548.45824070496018975973,6.99774163029878,5.12367625965148,-302.509231849116
738548.45824079541489481926,6.94235053559984,5.1052125614185,-302.509231849116
738548.45824088586959987879,6.95158238471633,5.07751701406903,-302.509231849116
738548.45824097632430493832,6.94235053559984,5.1052125614185,-302.509231849116
738548.45824106677900999784,6.94235053559984,5.08674886318552,-302.509231849116
738548.45824115723371505737,6.95158238471633,5.08674886318552,-302.509231849116
738548.45824124768842011690,6.99774163029878,5.14213995788446,-302.509231849116
738548.45824133802670985460,7.04390087588122,5.20676290169988,-302.509231849116
738548.45824142848141491413,6.86849574266793,5.04982146671956,-302.509231849116
738548.45824151893611997366,6.84080019531846,5.01289407025361,-302.509231849116
738548.45824160939082503319,6.87772759178442,5.05905331583605,-302.509231849116
738548.45824169984553009272,6.86849574266793,5.04982146671956,-302.509231849116
738548.45824179030023515224,6.88695944090091,5.08674886318552,-302.509231849116
738548.45824188075494021177,6.91465498825037,5.08674886318552,-302.509231849116
738548.45824197109322994947,6.90542313913388,5.09598071230201,-302.509231849116
738548.45824206154793500900,6.91465498825037,5.08674886318552,-302.509231849116
738548.45824215200264006853,6.95158238471633,5.13290810876797,-302.509231849116
738548.45824224245734512806,6.9792779320658,5.12367625965148,-302.509231849116
738548.45824233291205018759,6.93311868648335,5.13290810876797,-302.509231849116
738548.45824242336675524712,6.85926389355144,5.03135776848659,-302.509231849116
738548.45824251382146030664,6.84080019531846,5.05905331583605,-302.509231849116
738548.45824260415975004435,6.88695944090091,5.06828516495254,-302.509231849116
738548.45824269461445510387,6.91465498825037,5.11444441053499,-302.509231849116
738548.45824278506916016340,6.99774163029878,5.11444441053499,-302.509231849116
738548.45824287552386522293,6.99774163029878,5.12367625965148,-302.509231849116
738548.45824296597857028246,6.98850978118229,5.13290810876797,-302.509231849116
738548.45824305643327534199,7.02543717764824,5.12367625965148,-302.509231849116
738548.45824314688798040152,7.09929197058016,5.20676290169988,-302.509231849116
738548.45824323734268546104,7.08082827234718,5.15137180700095,-302.509231849116
738548.45824332768097519875,6.96081423383282,5.11444441053499,-302.509231849116
738548.45824341813568025827,6.90542313913388,5.1052125614185,-302.509231849116
738548.45824350859038531780,6.84080019531846,5.09598071230201,-302.509231849116
738548.45824359904509037733,6.83156834620197,5.04982146671956,-302.509231849116
738548.45824368949979543686,6.82233649708548,5.06828516495254,-302.509231849116
738548.45824377995450049639,6.82233649708548,5.04982146671956,-302.509231849116
738548.45824387040920555592,6.79464094973601,5.04982146671956,-302.509231849116
738548.45824396074749529362,6.82233649708548,5.04982146671956,-302.509231849116
738548.45824405120220035315,6.79464094973601,5.06828516495254,-302.509231849116
738548.45824414165690541267,6.83156834620197,5.07751701406903,-302.509231849116
738548.45824423211161047220,6.84080019531846,5.1052125614185,-302.509231849116
738548.45824432256631553173,6.78540910061953,5.04982146671956,-302.509231849116
738548.45824441302102059126,6.83156834620197,5.11444441053499,-302.509231849116
738548.45824450347572565079,6.75771355327006,5.1052125614185,-302.509231849116
738548.45824459381401538849,7.03466902676473,5.24369029816584,-302.509231849116
738548.45824468426872044802,7.64397106845302,5.65912350840785,-302.509231849116
738548.45824477472342550755,8.05017242957854,5.7883693960387,-302.509231849116
738548.45824486517813056707,8.32712790307321,5.53910946989349,-302.509231849116
738548.45824495563283562660,7.24700155644398,4.88364818262276,-302.509231849116
738548.45824504608754068613,6.38843958861049,4.57899716177862,-302.509231849116
738548.45824513654224574566,6.6376995147557,4.75440229499191,-302.509231849116
738548.45824522699695080519,7.07159642323069,5.06828516495254,-302.509231849116
738548.45824531733524054289,7.02543717764824,5.1052125614185,-302.509231849116
738548.45824540778994560242,6.90542313913388,5.12367625965148,-302.509231849116
738548.45824549824465066195,6.87772759178442,5.09598071230201,-302.509231849116
738548.45824558869935572147,6.87772759178442,5.11444441053499,-302.509231849116
738548.45824567915406078100,6.88695944090091,5.13290810876797,-302.509231849116
738548.45824576960876584053,6.92388683736686,5.16060365611744,-302.509231849116
738548.45824586006347090006,6.95158238471633,5.16983550523392,-302.509231849116
738548.45824595040176063776,6.9792779320658,5.19753105258339,-302.509231849116
738548.45824604085646569729,6.98850978118229,5.22522659993286,-302.509231849116
738548.45824613131117075682,7.00697347941527,5.23445844904935,-302.509231849116
738548.45824622176587581635,7.02543717764824,5.28061769463179,-302.509231849116
738548.45824631222058087587,7.03466902676473,5.2713858455153,-302.509231849116
738548.45824640267528593540,7.05313272499771,5.31754509109775,-302.509231849116
738548.45824649312999099493,7.07159642323069,5.30831324198126,-302.509231849116
738548.45824658346828073263,7.07159642323069,5.31754509109775,-302.509231849116
738548.45824667392298579216,7.08082827234718,5.31754509109775,-302.509231849116
738548.45824676437769085169,7.10852381969665,5.3637043366802,-302.509231849116
738548.45824685483239591122,7.17314676351207,5.42832728049562,-302.509231849116
738548.45824694528710097075,7.28392895290994,5.54834131900998,-302.509231849116
738548.45824703574180603027,7.23776970732749,5.49295022431104,-302.509231849116
738548.45824712619651108980,7.26546525467696,5.49295022431104,-302.509231849116
738548.45824721653480082750,7.37624744407483,5.58526871547594,-302.509231849116
738548.45824730698950588703,7.37624744407483,5.53910946989349,-302.509231849116
738548.45824739744421094656,7.37624744407483,5.51141392254402,-302.509231849116
738548.45824748789891600609,7.38547929319132,5.47448652607807,-302.509231849116
738548.45824757835362106562,7.37624744407483,5.4467909787286,-302.509231849116
738548.45824766880832612514,7.36701559495834,5.39139988402966,-302.509231849116
738548.45824775926303118467,7.3208563493759,5.3637043366802,-302.509231849116
738548.45824784971773624420,7.17314676351207,5.22522659993286,-302.509231849116
738548.45824794005602598190,7.09929197058016,5.17906735435041,-302.509231849116
738548.45824803051073104143,7.02543717764824,5.08674886318552,-302.509231849116
738548.45824812096543610096,6.98850978118229,5.1052125614185,-302.509231849116
738548.45824821142014116049,7.00697347941527,5.11444441053499,-302.509231849116
738548.45824830187484622002,7.02543717764824,5.17906735435041,-302.509231849116
738548.45824839232955127954,6.90542313913388,5.04058961760308,-302.509231849116
738548.45824848278425633907,6.89619129001739,5.04058961760308,-302.509231849116
738548.45824857312254607677,6.91465498825037,5.04058961760308,-302.509231849116
738548.45824866357725113630,6.93311868648335,5.0221259193701,-302.509231849116
738548.45824875403195619583,6.95158238471633,5.04058961760308,-302.509231849116
738548.45824884448666125536,6.99774163029878,5.07751701406903,-302.509231849116
738548.45824893494136631489,6.99774163029878,5.07751701406903,-302.509231849116
738548.45824902539607137442,6.97004608294931,5.04982146671956,-302.509231849116
738548.45824911585077643394,7.00697347941527,5.1052125614185,-302.509231849116
738548.45824920618906617165,7.02543717764824,5.1052125614185,-302.509231849116
738548.45824929664377123117,7.228537858211,5.32677694021424,-302.509231849116
738548.45824938709847629070,7.10852381969665,5.19753105258339,-302.509231849116
738548.45824947755318135023,6.85003204443495,4.96673482467116,-302.509231849116
738548.45824956800788640976,6.92388683736686,5.03135776848659,-302.509231849116
738548.45824965846259146929,6.95158238471633,5.06828516495254,-302.509231849116
738548.45824974891729652882,6.97004608294931,5.08674886318552,-302.509231849116
738548.45824983937200158834,6.97004608294931,5.07751701406903,-302.509231849116
738548.45824992971029132605,6.96081423383282,5.06828516495254,-302.509231849116
738548.45825002016499638557,6.94235053559984,5.1052125614185,-302.509231849116
738548.45825011061970144510,6.97004608294931,5.11444441053499,-302.509231849116
738548.45825020107440650463,6.95158238471633,5.1052125614185,-302.509231849116
738548.45825029152911156416,6.95158238471633,5.09598071230201,-302.509231849116
738548.45825038198381662369,6.95158238471633,5.09598071230201,-302.509231849116
738548.45825047243852168322,6.95158238471633,5.13290810876797,-302.509231849116
738548.45825056277681142092,6.94235053559984,5.09598071230201,-302.509231849116
738548.45825065323151648045,6.89619129001739,5.08674886318552,-302.509231849116
738548.45825074368622153997,6.89619129001739,5.06828516495254,-302.509231849116
738548.45825083414092659950,6.90542313913388,5.1052125614185,-302.509231849116
738548.45825092459563165903,6.98850978118229,5.17906735435041,-302.509231849116
738548.45825101505033671856,6.93311868648335,5.12367625965148,-302.509231849116
738548.45825110550504177809,6.90542313913388,5.06828516495254,-302.509231849116
738548.45825119584333151579,6.94235053559984,5.08674886318552,-302.509231849116
738548.45825128629803657532,6.93311868648335,5.08674886318552,-302.509231849116
738548.45825137675274163485,6.98850978118229,5.15137180700095,-302.509231849116
738548.45825146720744669437,7.08082827234718,5.19753105258339,-302.509231849116
738548.45825155766215175390,7.0623645741142,5.17906735435041,-302.509231849116
738548.45825164811685681343,6.99774163029878,5.16060365611744,-302.509231849116
738548.45825173857156187296,6.94235053559984,5.15137180700095,-302.509231849116
738548.45825182890985161066,6.91465498825037,5.13290810876797,-302.509231849116
738548.45825191936455667019,6.87772759178442,5.07751701406903,-302.509231849116
738548.45825200981926172972,6.85926389355144,5.06828516495254,-302.509231849116
738548.45825210027396678925,6.84080019531846,5.05905331583605,-302.509231849116
738548.45825219072867184877,6.82233649708548,5.07751701406903,-302.509231849116
738548.45825228118337690830,6.85003204443495,5.06828516495254,-302.509231849116
738548.45825237163808196783,6.85003204443495,5.09598071230201,-302.509231849116
738548.45825246209278702736,6.85926389355144,5.08674886318552,-302.509231849116
738548.45825255243107676506,6.82233649708548,5.05905331583605,-302.509231849116
738548.45825264288578182459,6.82233649708548,5.04982146671956,-302.509231849116
738548.45825273334048688412,6.85003204443495,5.06828516495254,-302.509231849116
738548.45825282379519194365,6.81310464796899,5.04982146671956,-302.509231849116
738548.45825291424989700317,6.8038727988525,5.12367625965148,-302.509231849116
738548.45825300470460206270,7.09006012146367,5.30831324198126,-302.509231849116
738548.45825309515930712223,7.65320291756951,5.74221015045625,-302.509231849116
738548.45825318549759685993,8.35482345042268,5.88991973632008,-302.509231849116
738548.45825327595230191946,8.09633167516098,5.38216803491317,-302.509231849116
738548.45825336640700697899,6.90542313913388,4.73593859675893,-302.509231849116
738548.45825345686171203852,6.45306253242592,4.57899716177862,-302.509231849116
738548.45825354731641709805,6.83156834620197,4.85595263527329,-302.509231849116
738548.45825363777112215757,7.02543717764824,5.00366222113712,-302.509231849116
738548.45825372822582721710,6.97004608294931,5.13290810876797,-302.509231849116
738548.45825381856411695480,6.89619129001739,5.14213995788446,-302.509231849116
738548.45825390901882201433,6.87772759178442,5.17906735435041,-302.509231849116
738548.45825399947352707386,6.89619129001739,5.17906735435041,-302.509231849116
738548.45825408992823213339,6.88695944090091,5.20676290169988,-302.509231849116
738548.45825418038293719292,6.88695944090091,5.20676290169988,-302.509231849116
738548.45825427083764225245,6.91465498825037,5.20676290169988,-302.509231849116
738548.45825436129234731197,6.93311868648335,5.22522659993286,-302.509231849116
738548.45825445174705237150,6.96081423383282,5.25292214728233,-302.509231849116
738548.45825454208534210920,6.97004608294931,5.28061769463179,-302.509231849116
738548.45825463254004716873,7.00697347941527,5.2713858455153,-302.509231849116
738548.45825472299475222826,7.02543717764824,5.28984954374828,-302.509231849116
738548.45825481344945728779,7.04390087588122,5.28061769463179,-302.509231849116
738548.45825490390416234732,7.04390087588122,5.31754509109775,-302.509231849116
738548.45825499435886740685,7.07159642323069,5.31754509109775,-302.509231849116
738548.45825508481357246637,7.09006012146367,5.37293618579669,-302.509231849116
738548.45825517515186220407,7.12698751792962,5.41909543137913,-302.509231849116
738548.45825526560656726360,7.1454512161626,5.46525467696158,-302.509231849116
738548.45825535606127232313,7.21007415997803,5.50218207342753,-302.509231849116
738548.45825544651597738266,7.228537858211,5.529877620777,-302.509231849116
738548.45825553697068244219,7.27469710379345,5.53910946989349,-302.509231849116
738548.45825562742538750172,7.41317484054079,5.66835535752434,-302.509231849116
738548.45825571788009256124,7.49626148258919,5.72374645222327,-302.509231849116
738548.45825580821838229895,7.25623340556047,5.4467909787286,-302.509231849116
738548.45825589867308735847,7.28392895290994,5.43755912961211,-302.509231849116
738548.45825598912779241800,7.29316080202643,5.41909543137913,-302.509231849116
738548.45825607958249747753,7.26546525467696,5.39139988402966,-302.509231849116
738548.45825617003720253706,7.21930600909452,5.33600878933073,-302.509231849116
738548.45825626049190759659,7.1454512161626,5.29908139286477,-302.509231849116
738548.45825635094661265612,7.08082827234718,5.23445844904935,-302.509231849116
738548.45825644140131771564,7.00697347941527,5.20676290169988,-302.509231849116
738548.45825653173960745335,6.97004608294931,5.16983550523392,-302.509231849116
738548.45825662219431251287,6.92388683736686,5.16060365611744,-302.509231849116
738548.45825671264901757240,6.88695944090091,5.12367625965148,-302.509231849116
738548.45825680310372263193,6.87772759178442,5.13290810876797,-302.509231849116
738548.45825689355842769146,6.88695944090091,5.11444441053499,-302.509231849116
738548.45825698401313275099,6.87772759178442,5.12367625965148,-302.509231849116
738548.45825707446783781052,6.89619129001739,5.11444441053499,-302.509231849116
738548.45825716480612754822,6.93311868648335,5.14213995788446,-302.509231849116
738548.45825725526083260775,6.94235053559984,5.12367625965148,-302.509231849116
738548.45825734571553766727,6.90542313913388,5.11444441053499,-302.509231849116
738548.45825743617024272680,6.91465498825037,5.13290810876797,-302.509231849116
738548.45825752662494778633,6.97004608294931,5.16983550523392,-302.509231849116
738548.45825761707965284586,6.95158238471633,5.16060365611744,-302.509231849116
738548.45825770753435790539,6.89619129001739,5.11444441053499,-302.509231849116
738548.45825779787264764309,6.90542313913388,5.14213995788446,-302.509231849116
738548.45825788832735270262,6.89619129001739,5.12367625965148,-302.509231849116
738548.45825797878205776215,6.87772759178442,5.12367625965148,-302.509231849116
738548.45825806923676282167,6.90542313913388,5.12367625965148,-302.509231849116
738548.45825815969146788120,6.90542313913388,5.16060365611744,-302.509231849116
738548.45825825014617294073,6.90542313913388,5.15137180700095,-302.509231849116
738548.45825834060087800026,6.89619129001739,5.15137180700095,-302.509231849116
738548.45825843093916773796,6.91465498825037,5.14213995788446,-302.509231849116
738548.45825852139387279749,6.90542313913388,5.13290810876797,-302.509231849116
738548.45825861184857785702,6.88695944090091,5.11444441053499,-302.509231849116
738548.45825870230328291655,6.87772759178442,5.08674886318552,-302.509231849116
738548.45825879275798797607,6.86849574266793,5.07751701406903,-302.509231849116
738548.45825888321269303560,6.85003204443495,5.06828516495254,-302.509231849116
738548.45825897366739809513,6.87772759178442,5.09598071230201,-302.509231849116
738548.45825906412210315466,6.88695944090091,5.09598071230201,-302.509231849116
738548.45825915446039289236,6.86849574266793,5.09598071230201,-302.509231849116
738548.45825924491509795189,6.86849574266793,5.1052125614185,-302.509231849116
738548.45825933536980301142,6.85926389355144,5.11444441053499,-302.509231849116
738548.45825942582450807095,6.87772759178442,5.11444441053499,-302.509231849116
738548.45825951627921313047,6.85926389355144,5.12367625965148,-302.509231849116
738548.45825960673391819000,6.85926389355144,5.1052125614185,-302.509231849116
738548.45825969718862324953,6.83156834620197,5.09598071230201,-302.509231849116
738548.45825978752691298723,6.82233649708548,5.08674886318552,-302.509231849116
738548.45825987798161804676,6.88695944090091,5.15137180700095,-302.509231849116
738548.45825996843632310629,6.87772759178442,5.11444441053499,-302.509231849116
738548.45826005889102816582,6.83156834620197,5.04982146671956,-302.509231849116
738548.45826014934573322535,6.85926389355144,5.08674886318552,-302.509231849116
738548.45826023980043828487,6.86849574266793,5.09598071230201,-302.509231849116
738548.45826033025514334440,6.91465498825037,5.16983550523392,-302.509231849116
738548.45826042059343308210,6.9792779320658,5.17906735435041,-302.509231849116
738548.45826051104813814163,6.91465498825037,5.15137180700095,-302.509231849116
738548.45826060150284320116,6.87772759178442,5.13290810876797,-302.509231849116
738548.45826069195754826069,6.83156834620197,5.14213995788446,-302.509231849116
738548.45826078241225332022,6.81310464796899,5.08674886318552,-302.509231849116
738548.45826087286695837975,6.8038727988525,5.07751701406903,-302.509231849116
738548.45826096332166343927,6.79464094973601,5.04982146671956,-302.509231849116
738548.45826105377636849880,6.76694540238655,5.04982146671956,-302.509231849116
738548.45826114411465823650,6.75771355327006,5.0221259193701,-302.509231849116
738548.45826123456936329603,6.76694540238655,5.05905331583605,-302.509231849116
738548.45826132502406835556,6.78540910061953,5.04982146671956,-302.509231849116
738548.45826141547877341509,6.77617725150304,5.05905331583605,-302.509231849116
738548.45826150593347847462,6.77617725150304,5.04982146671956,-302.509231849116
738548.45826159638818353415,6.77617725150304,5.05905331583605,-302.509231849116
738548.45826168684288859367,6.76694540238655,5.04982146671956,-302.509231849116
738548.45826177718117833138,6.75771355327006,5.05905331583605,-302.509231849116
738548.45826186763588339090,6.75771355327006,5.17906735435041,-302.509231849116
738548.45826195809058845043,7.09006012146367,5.34524063844722,-302.509231849116
738548.45826204854529350996,7.67166661580248,5.82529679250465,-302.509231849116
738548.45826213899999856949,8.32712790307321,5.76990569780572,-302.509231849116
738548.45826222945470362902,7.73628955961791,5.16983550523392,-302.509231849116
738548.45826231990940868855,6.70232245857112,4.64362010559404,-302.509231849116
738548.45826241024769842625,6.43459883419294,4.65285195471053,-302.509231849116
738548.45826250070240348577,6.85003204443495,4.88364818262276,-302.509231849116
738548.45826259115710854530,6.98850978118229,5.06828516495254,-302.509231849116
738548.45826268161181360483,6.91465498825037,5.13290810876797,-302.509231849116
738548.45826277206651866436,6.87772759178442,5.1882992034669,-302.509231849116
738548.45826286252122372389,6.86849574266793,5.17906735435041,-302.509231849116
738548.45826295297592878342,6.86849574266793,5.20676290169988,-302.509231849116
738548.45826304343063384295,6.85003204443495,5.1882992034669,-302.509231849116
738548.45826313376892358065,6.85003204443495,5.21599475081637,-302.509231849116
738548.45826322422362864017,6.86849574266793,5.20676290169988,-302.509231849116
738548.45826331467833369970,6.87772759178442,5.24369029816584,-302.509231849116
738548.45826340513303875923,6.88695944090091,5.26215399639882,-302.509231849116
738548.45826349558774381876,6.89619129001739,5.2713858455153,-302.509231849116
738548.45826358604244887829,6.89619129001739,5.29908139286477,-302.509231849116
738548.45826367649715393782,6.90542313913388,5.30831324198126,-302.509231849116
738548.45826376683544367552,6.92388683736686,5.33600878933073,-302.509231849116
738548.45826385729014873505,6.93311868648335,5.33600878933073,-302.509231849116
738548.45826394774485379457,6.95158238471633,5.37293618579669,-302.509231849116
738548.45826403819955885410,6.98850978118229,5.38216803491317,-302.509231849116
738548.45826412865426391363,7.00697347941527,5.41909543137913,-302.509231849116
738548.45826421910896897316,7.04390087588122,5.45602282784509,-302.509231849116
738548.45826430956367403269,7.07159642323069,5.50218207342753,-302.509231849116
738548.45826439990196377039,7.09929197058016,5.52064577166051,-302.509231849116
738548.45826449035666882992,7.11775566881313,5.55757316812647,-302.509231849116
738548.45826458081137388945,7.15468306527909,5.58526871547594,-302.509231849116
738548.45826467126607894897,7.18237861262856,5.58526871547594,-302.509231849116
738548.45826476172078400850,7.18237861262856,5.56680501724296,-302.509231849116
738548.45826485217548906803,7.15468306527909,5.52064577166051,-302.509231849116
738548.45826494263019412756,7.13621936704611,5.47448652607807,-302.509231849116
738548.45826503296848386526,7.09006012146367,5.39139988402966,-302.509231849116
738548.45826512342318892479,7.00697347941527,5.31754509109775,-302.509231849116
738548.45826521387789398432,6.92388683736686,5.23445844904935,-302.509231849116
738548.45826530433259904385,6.85003204443495,5.1882992034669,-302.509231849116
738548.45826539478730410337,6.82233649708548,5.15137180700095,-302.509231849116
738548.45826548524200916290,6.78540910061953,5.12367625965148,-302.509231849116
738548.45826557569671422243,6.73001800592059,5.09598071230201,-302.509231849116
738548.45826566615141928196,6.70232245857112,5.07751701406903,-302.509231849116
738548.45826575648970901966,6.70232245857112,5.07751701406903,-302.509231849116
738548.45826584694441407919,6.69309060945463,5.06828516495254,-302.509231849116
738548.45826593739911913872,6.69309060945463,5.07751701406903,-302.509231849116
738548.45826602785382419825,6.69309060945463,5.06828516495254,-302.509231849116
738548.45826611830852925777,6.69309060945463,5.05905331583605,-302.509231849116
738548.45826620876323431730,6.71155430768761,5.05905331583605,-302.509231849116
738548.45826629921793937683,6.7207861568041,5.08674886318552,-302.509231849116
738548.45826638955622911453,6.74848170415357,5.1052125614185,-302.509231849116
738548.45826648001093417406,6.74848170415357,5.11444441053499,-302.509231849116
738548.45826657046563923359,6.75771355327006,5.1052125614185,-302.509231849116
738548.45826666092034429312,6.75771355327006,5.11444441053499,-302.509231849116
738548.45826675137504935265,6.75771355327006,5.09598071230201,-302.509231849116
738548.45826684182975441217,6.75771355327006,5.12367625965148,-302.509231849116
738548.45826693228445947170,6.76694540238655,5.11444441053499,-302.509231849116
738548.45826702262274920940,6.74848170415357,5.12367625965148,-302.509231849116
738548.45826711307745426893,6.74848170415357,5.1052125614185,-302.509231849116
738548.45826720353215932846,6.74848170415357,5.12367625965148,-302.509231849116
738548.45826729398686438799,6.75771355327006,5.13290810876797,-302.509231849116
738548.45826738444156944752,6.73924985503708,5.1052125614185,-302.509231849116
738548.45826747489627450705,6.7207861568041,5.09598071230201,-302.509231849116
738548.45826756535097956657,6.7207861568041,5.07751701406903,-302.509231849116
738548.45826765580568462610,6.70232245857112,5.08674886318552,-302.509231849116
738548.45826774614397436380,6.69309060945463,5.04982146671956,-302.509231849116
738548.45826783659867942333,6.68385876033815,5.06828516495254,-302.509231849116
738548.45826792705338448286,6.69309060945463,5.05905331583605,-302.509231849116
738548.45826801750808954239,6.67462691122166,5.07751701406903,-302.509231849116
738548.45826810796279460192,6.68385876033815,5.04982146671956,-302.509231849116
738548.45826819841749966145,6.66539506210517,5.07751701406903,-302.509231849116
738548.45826828887220472097,6.70232245857112,5.07751701406903,-302.509231849116
738548.45826837921049445868,6.68385876033815,5.06828516495254,-302.509231849116
738548.45826846966519951820,6.69309060945463,5.05905331583605,-302.509231849116
738548.45826856011990457773,6.69309060945463,5.07751701406903,-302.509231849116
738548.45826865057460963726,6.69309060945463,5.04982146671956,-302.509231849116
738548.45826874102931469679,6.71155430768761,5.08674886318552,-302.509231849116
738548.45826883148401975632,6.7207861568041,5.07751701406903,-302.509231849116
738548.45826892193872481585,6.70232245857112,5.09598071230201,-302.509231849116
738548.45826901227701455355,6.73924985503708,5.11444441053499,-302.509231849116
738548.45826910273171961308,6.7207861568041,5.08674886318552,-302.509231849116
738548.45826919318642467260,6.67462691122166,5.05905331583605,-302.509231849116
738548.45826928364112973213,6.73001800592059,5.08674886318552,-302.509231849116
738548.45826937409583479166,6.74848170415357,5.11444441053499,-302.509231849116
738548.45826946455053985119,6.76694540238655,5.1052125614185,-302.509231849116
738548.45826955500524491072,6.76694540238655,5.11444441053499,-302.509231849116
738548.45826964534353464842,6.83156834620197,5.17906735435041,-302.509231849116
738548.45826973579823970795,6.89619129001739,5.21599475081637,-302.509231849116
738548.45826982625294476748,6.82233649708548,5.13290810876797,-302.509231849116
738548.45826991670764982700,6.78540910061953,5.14213995788446,-302.509231849116
738548.45827000716235488653,6.73924985503708,5.11444441053499,-302.509231849116
738548.45827009761705994606,6.73924985503708,5.1052125614185,-302.509231849116
738548.45827018807176500559,6.87772759178442,5.22522659993286,-302.509231849116
738548.45827027852647006512,6.66539506210517,5.00366222113712,-302.509231849116
738548.45827036886475980282,6.62846766563921,4.95750297555467,-302.509231849116
738548.45827045931946486235,6.64693136387219,4.98519852290414,-302.509231849116
738548.45827054977416992188,6.65616321298868,5.00366222113712,-302.509231849116
738548.45827064022887498140,6.68385876033815,5.01289407025361,-302.509231849116
738548.45827073068358004093,6.71155430768761,5.03135776848659,-302.509231849116
738548.45827082113828510046,6.7207861568041,5.03135776848659,-302.509231849116
738548.45827091159299015999,6.73001800592059,5.04058961760308,-302.509231849116
738548.45827100193127989769,6.73001800592059,5.0221259193701,-302.509231849116
738548.45827109238598495722,6.75771355327006,5.12367625965148,-302.509231849116
738548.45827118284069001675,6.90542313913388,5.28984954374828,-302.509231849116
738548.45827127329539507627,7.23776970732749,5.50218207342753,-302.509231849116
738548.45827136375010013580,7.94862208929716,5.85299233985412,-302.509231849116
738548.45827145420480519533,8.14249092074343,5.41909543137913,-302.509231849116
738548.45827154465951025486,7.16391491439558,4.71747489852596,-302.509231849116
738548.45827163499779999256,6.39767143772698,4.47744682149724,-302.509231849116
738548.45827172545250505209,6.58230842005676,4.73593859675893,-302.509231849116
738548.45827181590721011162,6.95158238471633,4.92980742820521,-302.509231849116
738548.45827190636191517115,6.96081423383282,5.07751701406903,-302.509231849116
738548.45827199681662023067,6.89619129001739,5.14213995788446,-302.509231849116
738548.45827208727132529020,6.86849574266793,5.17906735435041,-302.509231849116
738548.45827217772603034973,6.83156834620197,5.14213995788446,-302.509231849116
738548.45827226818073540926,6.85003204443495,5.17906735435041,-302.509231849116
738548.45827235851902514696,6.86849574266793,5.17906735435041,-302.509231849116
738548.45827244897373020649,6.88695944090091,5.21599475081637,-302.509231849116
738548.45827253942843526602,6.90542313913388,5.22522659993286,-302.509231849116
738548.45827262988314032555,6.89619129001739,5.23445844904935,-302.509231849116
738548.45827272033784538507,6.90542313913388,5.23445844904935,-302.509231849116
738548.45827281079255044460,6.94235053559984,5.28061769463179,-302.509231849116
738548.45827290124725550413,6.94235053559984,5.2713858455153,-302.509231849116
738548.45827299158554524183,6.94235053559984,5.28984954374828,-302.509231849116
738548.45827308204025030136,6.96081423383282,5.29908139286477,-302.509231849116
738548.45827317249495536089,6.99774163029878,5.33600878933073,-302.509231849116
738548.45827326294966042042,7.01620532853175,5.3637043366802,-302.509231849116
738548.45827335340436547995,7.04390087588122,5.39139988402966,-302.509231849116
738548.45827344385907053947,7.09929197058016,5.48371837519456,-302.509231849116
738548.45827353431377559900,7.12698751792962,5.51141392254402,-302.509231849116
738548.45827362465206533670,7.15468306527909,5.55757316812647,-302.509231849116
738548.45827371510677039623,7.17314676351207,5.54834131900998,-302.509231849116
738548.45827380556147545576,7.21007415997803,5.59450056459243,-302.509231849116
738548.45827389601618051529,7.21930600909452,5.57603686635945,-302.509231849116
738548.45827398647088557482,7.23776970732749,5.58526871547594,-302.509231849116
738548.45827407692559063435,7.24700155644398,5.57603686635945,-302.509231849116
738548.45827416738029569387,7.21930600909452,5.55757316812647,-302.509231849116
738548.45827425783500075340,7.18237861262856,5.49295022431104,-302.509231849116
738548.45827434817329049110,7.11775566881313,5.45602282784509,-302.509231849116
738548.45827443862799555063,7.07159642323069,5.40063173314615,-302.509231849116
738548.45827452908270061016,6.99774163029878,5.38216803491317,-302.509231849116
738548.45827461953740566969,6.92388683736686,5.38216803491317,-302.509231849116
738548.45827470999211072922,6.89619129001739,5.3637043366802,-302.509231849116
738548.45827480044681578875,6.84080019531846,5.30831324198126,-302.509231849116
738548.45827489090152084827,6.8038727988525,5.20676290169988,-302.509231849116
738548.45827498123981058598,6.79464094973601,5.20676290169988,-302.509231849116
738548.45827507169451564550,6.79464094973601,5.20676290169988,-302.509231849116
738548.45827516214922070503,6.78540910061953,5.21599475081637,-302.509231849116
738548.45827525260392576456,6.77617725150304,5.19753105258339,-302.509231849116
738548.45827534305863082409,6.75771355327006,5.1882992034669,-302.509231849116
738548.45827543351333588362,6.74848170415357,5.16060365611744,-302.509231849116
738548.45827552396804094315,6.74848170415357,5.16983550523392,-302.509231849116
738548.45827561430633068085,6.75771355327006,5.15137180700095,-302.509231849116
738548.45827570476103574038,6.73924985503708,5.15137180700095,-302.509231849116
738548.45827579521574079990,6.73001800592059,5.12367625965148,-302.509231849116
738548.45827588567044585943,6.73924985503708,5.12367625965148,-302.509231849116
738548.45827597612515091896,6.74848170415357,5.11444441053499,-302.509231849116
738548.45827606657985597849,6.75771355327006,5.14213995788446,-302.509231849116
738548.45827615703456103802,6.76694540238655,5.15137180700095,-302.509231849116
738548.45827624737285077572,6.77617725150304,5.16060365611744,-302.509231849116
738548.45827633782755583525,6.77617725150304,5.16983550523392,-302.509231849116
738548.45827642828226089478,6.74848170415357,5.16983550523392,-302.509231849116
738548.45827651873696595430,6.7207861568041,5.15137180700095,-302.509231849116
738548.45827660919167101383,6.73001800592059,5.14213995788446,-302.509231849116
738548.45827669964637607336,6.73924985503708,5.16060365611744,-302.509231849116
738548.45827679010108113289,6.71155430768761,5.1052125614185,-302.509231849116
738548.45827688055578619242,6.71155430768761,5.09598071230201,-302.509231849116
738548.45827697089407593012,6.7207861568041,5.09598071230201,-302.509231849116
738548.45827706134878098965,6.70232245857112,5.1052125614185,-302.509231849116
738548.45827715180348604918,6.73924985503708,5.12367625965148,-302.509231849116
738548.45827724225819110870,6.66539506210517,5.06828516495254,-302.509231849116
738548.45827733271289616823,6.62846766563921,5.04058961760308,-302.509231849116
738548.45827742316760122776,6.6376995147557,5.07751701406903,-302.509231849116
738548.45827751362230628729,6.6376995147557,5.08674886318552,-302.509231849116
738548.45827760396059602499,6.62846766563921,5.08674886318552,-302.509231849116
738548.45827769441530108452,6.61923581652272,5.09598071230201,-302.509231849116
738548.45827778487000614405,6.60077211828974,5.09598071230201,-302.509231849116
738548.45827787532471120358,6.58230842005676,5.09598071230201,-302.509231849116
738548.45827796577941626310,6.58230842005676,5.09598071230201,-302.509231849116
738548.45827805623412132263,6.58230842005676,5.13290810876797,-302.509231849116
738548.45827814668882638216,6.54538102359081,5.08674886318552,-302.509231849116
738548.45827823702711611986,6.56384472182379,5.12367625965148,-302.509231849116
738548.45827832748182117939,6.5546128727073,5.12367625965148,-302.509231849116
738548.45827841793652623892,6.52691732535783,5.13290810876797,-302.509231849116
738548.45827850839123129845,6.52691732535783,5.12367625965148,-302.509231849116
738548.45827859884593635798,6.49922177800836,5.13290810876797,-302.509231849116
738548.45827868930064141750,6.5546128727073,5.19753105258339,-302.509231849116
738548.45827877975534647703,6.53614917447432,5.16983550523392,-302.509231849116
738548.45827887021005153656,6.4622943815424,5.15137180700095,-302.509231849116
738548.45827896054834127426,6.39767143772698,5.14213995788446,-302.509231849116
738548.45827905100304633379,6.36074404126102,5.16060365611744,-302.509231849116
738548.45827914145775139332,6.33304849391156,5.11444441053499,-302.509231849116
738548.45827923191245645285,6.2961210974456,5.1052125614185,-302.509231849116
738548.45827932236716151237,6.28688924832911,5.1052125614185,-302.509231849116
738548.45827941282186657190,6.2961210974456,5.1052125614185,-302.509231849116
738548.45827950327657163143,6.31458479567858,5.07751701406903,-302.509231849116
738548.45827959361486136913,6.30535294656209,5.07751701406903,-302.509231849116
738548.45827968406956642866,6.32381664479507,5.03135776848659,-302.509231849116
738548.45827977452427148819,6.34228034302805,5.05905331583605,-302.509231849116
738548.45827986497897654772,6.34228034302805,5.0221259193701,-302.509231849116
738548.45827995543368160725,6.36997589037751,5.05905331583605,-302.509231849116
738548.45828004588838666677,6.36074404126102,5.07751701406903,-302.509231849116
738548.45828013634309172630,6.47152623065889,5.25292214728233,-302.509231849116
738548.45828022668138146400,6.93311868648335,5.529877620777,-302.509231849116
738548.45828031713608652353,7.24700155644398,5.74221015045625,-302.509231849116
738548.45828040759079158306,7.93015839106418,5.74221015045625,-302.509231849116
738548.45828049804549664259,7.43163853877377,5.09598071230201,-302.509231849116
738548.45828058850020170212,6.38843958861049,4.60669270912809,-302.509231849116
738548.45828067895490676165,6.04686117130039,4.57899716177862,-302.509231849116
738548.45828076940961182117,6.48075807977538,4.85595263527329,-302.509231849116
738548.45828085986431688070,6.67462691122166,4.99443037202063,-302.509231849116
738548.45828095020260661840,6.61923581652272,5.12367625965148,-302.509231849116
738548.45828104065731167793,6.57307657094027,5.14213995788446,-302.509231849116
738548.45828113111201673746,6.58230842005676,5.1882992034669,-302.509231849116
738548.45828122156672179699,6.58230842005676,5.16983550523392,-302.509231849116
738548.45828131202142685652,6.56384472182379,5.1882992034669,-302.509231849116
738548.45828140247613191605,6.57307657094027,5.16983550523392,-302.509231849116
738548.45828149293083697557,6.5546128727073,5.17906735435041,-302.509231849116
738548.45828158326912671328,6.56384472182379,5.17906735435041,-302.509231849116
738548.45828167372383177280,6.5546128727073,5.1882992034669,-302.509231849116
738548.45828176417853683233,6.54538102359081,5.19753105258339,-302.509231849116
738548.45828185463324189186,6.57307657094027,5.26215399639882,-302.509231849116
738548.45828194508794695139,6.57307657094027,5.28061769463179,-302.509231849116
738548.45828203554265201092,6.57307657094027,5.30831324198126,-302.509231849116
738548.45828212599735707045,6.57307657094027,5.32677694021424,-302.509231849116
738548.45828221633564680815,6.58230842005676,5.33600878933073,-302.509231849116
738548.45828230679035186768,6.60077211828974,5.39139988402966,-302.509231849116
738548.45828239724505692720,6.62846766563921,5.39139988402966,-302.509231849116
738548.45828248769976198673,6.65616321298868,5.45602282784509,-302.509231849116
738548.45828257815446704626,6.7207861568041,5.48371837519456,-302.509231849116
738548.45828266860917210579,6.74848170415357,5.53910946989349,-302.509231849116
738548.45828275906387716532,6.79464094973601,5.55757316812647,-302.509231849116
738548.45828284940216690302,6.8038727988525,5.59450056459243,-302.509231849116
738548.45828293985687196255,6.83156834620197,5.56680501724296,-302.509231849116
738548.45828303031157702208,6.85003204443495,5.55757316812647,-302.509231849116
738548.45828312076628208160,6.85926389355144,5.50218207342753,-302.509231849116
738548.45828321122098714113,6.83156834620197,5.43755912961211,-302.509231849116
738548.45828330167569220066,6.79464094973601,5.3637043366802,-302.509231849116
738548.45828339213039726019,6.7207861568041,5.28984954374828,-302.509231849116
738548.45828348258510231972,6.66539506210517,5.23445844904935,-302.509231849116
738548.45828357292339205742,6.61923581652272,5.1882992034669,-302.509231849116
738548.45828366337809711695,6.60077211828974,5.16983550523392,-302.509231849116
738548.45828375383280217648,6.57307657094027,5.14213995788446,-302.509231849116
738548.45828384428750723600,6.59154026917325,5.15137180700095,-302.509231849116
738548.45828393474221229553,6.58230842005676,5.1052125614185,-302.509231849116
738548.45828402519691735506,6.59154026917325,5.1052125614185,-302.509231849116
738548.45828411565162241459,6.60077211828974,5.09598071230201,-302.509231849116
738548.45828420598991215229,6.59154026917325,5.09598071230201,-302.509231849116
738548.45828429644461721182,6.61000396740623,5.07751701406903,-302.509231849116
738548.45828438689932227135,6.62846766563921,5.11444441053499,-302.509231849116
738548.45828447735402733088,6.62846766563921,5.1052125614185,-302.509231849116
738548.45828456780873239040,6.60077211828974,5.09598071230201,-302.509231849116
738548.45828465826343744993,6.60077211828974,5.09598071230201,-302.509231849116
738548.45828474871814250946,6.64693136387219,5.13290810876797,-302.509231849116
738548.45828483905643224716,6.62846766563921,5.14213995788446,-302.509231849116
738548.45828492951113730669,6.62846766563921,5.13290810876797,-302.509231849116
738548.45828501996584236622,6.62846766563921,5.15137180700095,-302.509231849116
738548.45828511042054742575,6.6376995147557,5.13290810876797,-302.509231849116
738548.45828520087525248528,6.66539506210517,5.14213995788446,-302.509231849116
738548.45828529132995754480,6.69309060945463,5.13290810876797,-302.509231849116
738548.45828538178466260433,6.70232245857112,5.15137180700095,-302.509231849116
738548.45828547223936766386,6.73924985503708,5.12367625965148,-302.509231849116
738548.45828556257765740156,6.75771355327006,5.14213995788446,-302.509231849116
738548.45828565303236246109,6.78540910061953,5.15137180700095,-302.509231849116
738548.45828574348706752062,6.76694540238655,5.16060365611744,-302.509231849116
738548.45828583394177258015,6.76694540238655,5.1052125614185,-302.509231849116
738548.45828592439647763968,6.75771355327006,5.13290810876797,-302.509231849116
738548.45828601485118269920,6.76694540238655,5.12367625965148,-302.509231849116
738548.45828610530588775873,6.79464094973601,5.13290810876797,-302.509231849116
738548.45828619564417749643,6.77617725150304,5.16060365611744,-302.509231849116
738548.45828628609888255596,6.76694540238655,5.15137180700095,-302.509231849116
738548.45828637655358761549,6.74848170415357,5.16983550523392,-302.509231849116
738548.45828646700829267502,6.61923581652272,5.04058961760308,-302.509231849116
738548.45828655746299773455,6.61000396740623,5.06828516495254,-302.509231849116
738548.45828664791770279408,6.61000396740623,5.07751701406903,-302.509231849116
738548.45828673837240785360,6.60077211828974,5.1052125614185,-302.509231849116
738548.45828682871069759130,6.62846766563921,5.09598071230201,-302.509231849116
738548.45828691916540265083,6.62846766563921,5.12367625965148,-302.509231849116
738548.45828700962010771036,6.65616321298868,5.13290810876797,-302.509231849116
738548.45828710007481276989,6.67462691122166,5.14213995788446,-302.509231849116
738548.45828719052951782942,6.66539506210517,5.1052125614185,-302.509231849116
738548.45828728098422288895,6.62846766563921,5.13290810876797,-302.509231849116
738548.45828737143892794847,6.59154026917325,5.09598071230201,-302.509231849116
738548.45828746177721768618,6.60077211828974,5.12367625965148,-302.509231849116
738548.45828755223192274570,6.54538102359081,5.03135776848659,-302.509231849116
738548.45828764268662780523,6.50845362712485,5.0221259193701,-302.509231849116
738548.45828773314133286476,6.52691732535783,5.03135776848659,-302.509231849116
738548.45828782359603792429,6.54538102359081,5.04058961760308,-302.509231849116
738548.45828791405074298382,6.54538102359081,5.06828516495254,-302.509231849116
738548.45828800450544804335,6.5546128727073,5.04982146671956,-302.509231849116
738548.45828809496015310287,6.56384472182379,5.07751701406903,-302.509231849116
738548.45828818529844284058,6.62846766563921,5.09598071230201,-302.509231849116
738548.45828827575314790010,6.59154026917325,5.1052125614185,-302.509231849116
738548.45828836620785295963,6.61000396740623,5.11444441053499,-302.509231849116
738548.45828845666255801916,6.60077211828974,5.24369029816584,-302.509231849116
738548.45828854711726307869,7.12698751792962,5.52064577166051,-302.509231849116
738548.45828863757196813822,7.49626148258919,5.6129642628254,-302.509231849116
738548.45828872802667319775,8.12402722251045,5.529877620777,-302.509231849116
738548.45828881836496293545,7.34855189672536,5.03135776848659,-302.509231849116
738548.45828890881966799498,6.51768547624134,4.57899716177862,-302.509231849116
738548.45828899927437305450,6.27765739921262,4.71747489852596,-302.509231849116
738548.45828908972907811403,6.68385876033815,4.95750297555467,-302.509231849116
738548.45828918018378317356,6.85003204443495,5.07751701406903,-302.509231849116
738548.45828927063848823309,6.8038727988525,5.13290810876797,-302.509231849116
738548.45828936109319329262,6.83156834620197,5.22522659993286,-302.509231849116
738548.45828945143148303032,6.8038727988525,5.22522659993286,-302.509231849116
738548.45828954188618808985,6.86849574266793,5.28061769463179,-302.509231849116
738548.45828963234089314938,6.75771355327006,5.19753105258339,-302.509231849116
738548.45828972279559820890,6.76694540238655,5.17906735435041,-302.509231849116
738548.45828981325030326843,6.78540910061953,5.1882992034669,-302.509231849116
738548.45828990370500832796,6.81310464796899,5.19753105258339,-302.509231849116
738548.45828999415971338749,6.82233649708548,5.22522659993286,-302.509231849116
738548.45829008461441844702,6.85926389355144,5.24369029816584,-302.509231849116
738548.45829017495270818472,6.88695944090091,5.28061769463179,-302.509231849116
738548.45829026540741324425,6.91465498825037,5.28984954374828,-302.509231849116
738548.45829035586211830378,6.94235053559984,5.31754509109775,-302.509231849116
738548.45829044631682336330,6.94235053559984,5.32677694021424,-302.509231849116
738548.45829053677152842283,6.98850978118229,5.3637043366802,-302.509231849116
738548.45829062722623348236,7.12698751792962,5.49295022431104,-302.509231849116
738548.45829071768093854189,7.09929197058016,5.46525467696158,-302.509231849116
738548.45829080801922827959,7.03466902676473,5.41909543137913,-302.509231849116
738548.45829089847393333912,7.05313272499771,5.41909543137913,-302.509231849116
738548.45829098892863839865,7.13621936704611,5.50218207342753,-302.509231849116
738548.45829107938334345818,7.21930600909452,5.529877620777,-302.509231849116
738548.45829116983804851770,7.24700155644398,5.55757316812647,-302.509231849116
738548.45829126029275357723,7.28392895290994,5.53910946989349,-302.509231849116
738548.45829135074745863676,7.30239265114292,5.53910946989349,-302.509231849116
738548.45829144108574837446,7.30239265114292,5.47448652607807,-302.509231849116
738548.45829153154045343399,7.24700155644398,5.43755912961211,-302.509231849116
738548.45829162199515849352,7.21007415997803,5.39139988402966,-302.509231849116
738548.45829171244986355305,7.15468306527909,5.34524063844722,-302.509231849116
738548.45829180290456861258,7.07159642323069,5.2713858455153,-302.509231849116
738548.45829189335927367210,6.97004608294931,5.1882992034669,-302.509231849116
738548.45829198381397873163,6.83156834620197,5.13290810876797,-302.509231849116
738548.45829207426868379116,6.8038727988525,5.13290810876797,-302.509231849116
738548.45829216460697352886,6.77617725150304,5.14213995788446,-302.509231849116
738548.45829225506167858839,6.77617725150304,5.13290810876797,-302.509231849116
738548.45829234551638364792,6.78540910061953,5.15137180700095,-302.509231849116
738548.45829243597108870745,6.79464094973601,5.11444441053499,-302.509231849116
738548.45829252642579376698,6.82233649708548,5.12367625965148,-302.509231849116
738548.45829261688049882650,7.05313272499771,5.29908139286477,-302.509231849116
738548.45829270733520388603,6.88695944090091,5.16060365611744,-302.509231849116
738548.45829279767349362373,6.96081423383282,5.1882992034669,-302.509231849116
738548.45829288812819868326,6.76694540238655,5.04058961760308,-302.509231849116
738548.45829297858290374279,6.77617725150304,5.0221259193701,-302.509231849116
738548.45829306903760880232,6.82233649708548,5.1052125614185,-302.509231849116
738548.45829315949231386185,6.85003204443495,5.11444441053499,-302.509231849116
738548.45829324994701892138,6.85926389355144,5.15137180700095,-302.509231849116
738548.45829334040172398090,6.88695944090091,5.14213995788446,-302.509231849116
738548.45829343074001371861,6.88695944090091,5.14213995788446,-302.509231849116
738548.45829352119471877813,6.88695944090091,5.16060365611744,-302.509231849116
738548.45829361164942383766,6.89619129001739,5.14213995788446,-302.509231849116
738548.45829370210412889719,7.02543717764824,5.28061769463179,-302.509231849116
738548.45829379255883395672,6.8038727988525,5.05905331583605,-302.509231849116
738548.45829388301353901625,6.97004608294931,5.23445844904935,-302.509231849116
738548.45829397346824407578,6.93311868648335,5.17906735435041,-302.509231849116
738548.45829406380653381348,6.77617725150304,5.04058961760308,-302.509231849116
738548.45829415426123887300,6.82233649708548,5.05905331583605,-302.509231849116
738548.45829424471594393253,6.86849574266793,5.11444441053499,-302.509231849116
738548.45829433517064899206,6.91465498825037,5.12367625965148,-302.509231849116
738548.45829442562535405159,6.92388683736686,5.13290810876797,-302.509231849116
738548.45829451608005911112,7.02543717764824,5.14213995788446,-302.509231849116
738548.45829460653476417065,6.89619129001739,5.09598071230201,-302.509231849116
738548.45829469698946923018,6.98850978118229,5.14213995788446,-302.509231849116
738548.45829478732775896788,6.99774163029878,5.17906735435041,-302.509231849116
738548.45829487778246402740,6.99774163029878,5.16060365611744,-302.509231849116
738548.45829496823716908693,7.17314676351207,5.34524063844722,-302.509231849116
738548.45829505869187414646,6.95158238471633,5.13290810876797,-302.509231849116
738548.45829514914657920599,6.96081423383282,5.12367625965148,-302.509231849116
738548.45829523960128426552,6.97004608294931,5.13290810876797,-302.509231849116
738548.45829533005598932505,6.94235053559984,5.13290810876797,-302.509231849116
738548.45829542039427906275,6.94235053559984,5.19753105258339,-302.509231849116
738548.45829551084898412228,6.90542313913388,5.16060365611744,-302.509231849116
738548.45829560130368918180,6.87772759178442,5.15137180700095,-302.509231849116
738548.45829569175839424133,6.87772759178442,5.1052125614185,-302.509231849116
738548.45829578221309930086,6.88695944090091,5.1052125614185,-302.509231849116
738548.45829587266780436039,6.87772759178442,5.07751701406903,-302.509231849116
738548.45829596312250941992,6.87772759178442,5.09598071230201,-302.509231849116
738548.45829605346079915762,6.85003204443495,5.05905331583605,-302.509231849116
738548.45829614391550421715,6.83156834620197,5.05905331583605,-302.509231849116
738548.45829623437020927668,6.81310464796899,5.04982146671956,-302.509231849116
738548.45829632482491433620,6.78540910061953,5.04982146671956,-302.509231849116
738548.45829641527961939573,6.74848170415357,5.04058961760308,-302.509231849116
738548.45829650573432445526,6.74848170415357,5.14213995788446,-302.509231849116
738548.45829659618902951479,7.02543717764824,5.29908139286477,-302.509231849116
738548.45829668664373457432,7.59781182287057,5.62219611194189,-302.509231849116
738548.45829677698202431202,8.31789605395672,5.71451460310678,-302.509231849116
738548.45829686743672937155,7.94862208929716,5.24369029816584,-302.509231849116
738548.45829695789143443108,6.71155430768761,4.77286599322489,-302.509231849116
738548.45829704834613949060,6.24073000274667,4.64362010559404,-302.509231849116
738548.45829713880084455013,6.68385876033815,4.87441633350627,-302.509231849116
738548.45829722925554960966,6.85003204443495,4.9390392773217,-302.509231849116
738548.45829731971025466919,6.88695944090091,5.07751701406903,-302.509231849116
738548.45829741004854440689,6.83156834620197,5.15137180700095,-302.509231849116
