time_dn,ecg_projection_ll_ra_mV,ecg_projection_la_ra_mV,ecg_projection_vx_rl_mV
738548.48335783090442419052,6.43459883419294,4.70824304940947,-302.509231849116
738548.48335792135912925005,6.33304849391156,4.57899716177862,-302.509231849116
738548.48335801169741898775,6.34228034302805,4.60669270912809,-302.509231849116
738548.48335810215212404728,6.30535294656209,4.60669270912809,-302.509231849116
738548.48335819260682910681,6.24073000274667,4.57899716177862,-302.509231849116
738548.48335828306153416634,6.23149815363018,4.56053346354564,-302.509231849116
738548.48335837351623922586,6.24073000274667,4.56976531266213,-302.509231849116
738548.48335846397094428539,6.24073000274667,4.58822901089511,-302.509231849116
738548.48335855442564934492,6.31458479567858,4.66208380382702,-302.509231849116
738548.48335864476393908262,6.42536698507645,4.79132969145787,-302.509231849116
738548.48335873521864414215,6.25919370097964,4.61592455824457,-302.509231849116
738548.48335882567334920168,6.09302041688284,4.46821497238075,-302.509231849116
738548.48335891612805426121,6.08378856776635,4.43128757591479,-302.509231849116
738548.48335900658275932074,6.10225226599933,4.47744682149724,-302.509231849116
738548.48335909703746438026,6.17610705893124,4.52360606707968,-302.509231849116
738548.48335918749216943979,6.22226630451369,4.56053346354564,-302.509231849116
738548.48335927783045917749,6.20380260628071,4.56976531266213,-302.509231849116
738548.48335936828516423702,6.33304849391156,4.72670674764244,-302.509231849116
738548.48335945873986929655,6.87772759178442,5.06828516495254,-302.509231849116
738548.48335954919457435608,7.60704367198706,5.3637043366802,-302.509231849116
738548.48335963964927941561,7.98554948576311,5.17906735435041,-302.509231849116
738548.48335973010398447514,6.61000396740623,4.22818689535203,-302.509231849116
738548.48335982055868953466,5.88068788720359,4.05278176213874,-302.509231849116
738548.48335991101339459419,6.1299478133488,4.38512833033235,-302.509231849116
738548.48336000135168433189,6.41613513595996,4.50514236884671,-302.509231849116
738548.48336009180638939142,6.32381664479507,4.46821497238075,-302.509231849116
738548.48336018226109445095,6.27765739921262,4.5974608600116,-302.509231849116
738548.48336027271579951048,6.32381664479507,4.64362010559404,-302.509231849116
738548.48336036317050457001,6.34228034302805,4.69901120029298,-302.509231849116
738548.48336045362520962954,6.38843958861049,4.71747489852596,-302.509231849116
738548.48336054407991468906,6.36997589037751,4.75440229499191,-302.509231849116
738548.48336063441820442677,6.36997589037751,4.73593859675893,-302.509231849116
738548.48336072487290948629,6.31458479567858,4.71747489852596,-302.509231849116
738548.48336081532761454582,6.45306253242592,4.81902523880734,-302.509231849116
738548.48336090578231960535,6.38843958861049,4.78209784234138,-302.509231849116
738548.48336099623702466488,6.20380260628071,4.58822901089511,-302.509231849116
738548.48336108669172972441,6.32381664479507,4.66208380382702,-302.509231849116
738548.48336117714643478394,6.40690328684347,4.77286599322489,-302.509231849116
738548.48336126748472452164,6.48998992889187,4.81902523880734,-302.509231849116
738548.48336135793942958117,6.43459883419294,4.80056154057436,-302.509231849116
738548.48336144839413464069,6.43459883419294,4.75440229499191,-302.509231849116
738548.48336153884883970022,6.5546128727073,4.92057557908872,-302.509231849116
738548.48336162930354475975,6.78540910061953,5.1052125614185,-302.509231849116
738548.48336171975824981928,6.48075807977538,4.83748893704032,-302.509231849116
738548.48336181021295487881,6.53614917447432,4.85595263527329,-302.509231849116
738548.48336190055124461651,6.64693136387219,4.99443037202063,-302.509231849116
738548.48336199100594967604,6.70232245857112,4.99443037202063,-302.509231849116
738548.48336208146065473557,6.70232245857112,5.0221259193701,-302.509231849116
738548.48336217191535979509,6.74848170415357,5.04982146671956,-302.509231849116
738548.48336226237006485462,6.79464094973601,5.1052125614185,-302.509231849116
738548.48336235282476991415,6.8038727988525,5.05905331583605,-302.509231849116
738548.48336244327947497368,6.62846766563921,4.91134372997223,-302.509231849116
738548.48336253361776471138,6.53614917447432,4.79132969145787,-302.509231849116
738548.48336262407246977091,6.6376995147557,4.90211188085574,-302.509231849116
738548.48336271452717483044,6.49922177800836,4.74517044587542,-302.509231849116
738548.48336280498187988997,6.44383068330943,4.66208380382702,-302.509231849116
738548.48336289543658494949,6.41613513595996,4.65285195471053,-302.509231849116
738548.48336298589129000902,6.42536698507645,4.60669270912809,-302.509231849116
738548.48336307634599506855,6.39767143772698,4.62515640736106,-302.509231849116
738548.48336316668428480625,6.48998992889187,4.68977935117649,-302.509231849116
738548.48336325713898986578,6.42536698507645,4.68054750206,-302.509231849116
738548.48336334759369492531,6.62846766563921,4.8467207861568,-302.509231849116
738548.48336343804839998484,6.2961210974456,4.57899716177862,-302.509231849116
738548.48336352850310504436,6.32381664479507,4.58822901089511,-302.509231849116
738548.48336361895781010389,6.2130344553972,4.52360606707968,-302.509231849116
738548.48336370941251516342,6.2130344553972,4.52360606707968,-302.509231849116
738548.48336379975080490112,6.24073000274667,4.56053346354564,-302.509231849116
738548.48336389020550996065,6.2961210974456,4.5974608600116,-302.509231849116
738548.48336398066021502018,6.32381664479507,4.61592455824457,-302.509231849116
738548.48336407111492007971,6.35151219214454,4.62515640736106,-302.509231849116
738548.48336416156962513924,6.43459883419294,4.68977935117649,-302.509231849116
738548.48336425202433019876,6.4622943815424,4.72670674764244,-302.509231849116
738548.48336434247903525829,6.60077211828974,4.86518448438978,-302.509231849116
738548.48336443293374031782,6.28688924832911,4.58822901089511,-302.509231849116
738548.48336452327203005552,6.24996185186316,4.54206976531266,-302.509231849116
738548.48336461372673511505,6.23149815363018,4.55130161442915,-302.509231849116
738548.48336470418144017458,6.24996185186316,4.54206976531266,-302.509231849116
738548.48336479463614523411,6.24073000274667,4.57899716177862,-302.509231849116
738548.48336488509085029364,6.25919370097964,4.57899716177862,-302.509231849116
738548.48336497554555535316,6.2961210974456,4.64362010559404,-302.509231849116
738548.48336506600026041269,6.2961210974456,4.62515640736106,-302.509231849116
738548.48336515633855015039,6.31458479567858,4.64362010559404,-302.509231849116
738548.48336524679325520992,6.379207739494,4.68977935117649,-302.509231849116
738548.48336533724796026945,6.41613513595996,4.73593859675893,-302.509231849116
738548.48336542770266532898,6.38843958861049,4.69901120029298,-302.509231849116
738548.48336551815737038851,6.26842555009613,4.56976531266213,-302.509231849116
738548.48336560861207544804,6.30535294656209,4.60669270912809,-302.509231849116
738548.48336569906678050756,6.28688924832911,4.56053346354564,-302.509231849116
738548.48336578940507024527,6.26842555009613,4.56976531266213,-302.509231849116
738548.48336587985977530479,6.35151219214454,4.61592455824457,-302.509231849116
738548.48336597031448036432,6.35151219214454,4.65285195471053,-302.509231849116
738548.48336606076918542385,6.30535294656209,4.56976531266213,-302.509231849116
738548.48336615122389048338,6.36997589037751,4.66208380382702,-302.509231849116
738548.48336624167859554291,6.35151219214454,4.61592455824457,-302.509231849116
738548.48336633213330060244,6.31458479567858,4.61592455824457,-302.509231849116
738548.48336642247159034014,6.38843958861049,4.64362010559404,-302.509231849116
738548.48336651292629539967,6.41613513595996,4.68977935117649,-302.509231849116
738548.48336660338100045919,6.39767143772698,4.68054750206,-302.509231849116
738548.48336669383570551872,6.34228034302805,4.60669270912809,-302.509231849116
738548.48336678429041057825,6.40690328684347,4.67131565294351,-302.509231849116
738548.48336687474511563778,6.27765739921262,4.51437421796319,-302.509231849116
738548.48336696519982069731,6.24073000274667,4.51437421796319,-302.509231849116
738548.48336705553811043501,6.38843958861049,4.60669270912809,-302.509231849116
738548.48336714599281549454,6.33304849391156,4.5974608600116,-302.509231849116
738548.48336723644752055407,6.36074404126102,4.57899716177862,-302.509231849116
738548.48336732690222561359,6.38843958861049,4.63438825647755,-302.509231849116
738548.48336741735693067312,6.4622943815424,4.65285195471053,-302.509231849116
738548.48336750781163573265,6.47152623065889,4.69901120029298,-302.509231849116
738548.48336759826634079218,6.49922177800836,4.64362010559404,-302.509231849116
738548.48336768860463052988,6.61000396740623,4.80056154057436,-302.509231849116
738548.48336777905933558941,6.57307657094027,4.71747489852596,-302.509231849116
738548.48336786951404064894,6.38843958861049,4.54206976531266,-302.509231849116
738548.48336795996874570847,6.42536698507645,4.5974608600116,-302.509231849116
738548.48336805042345076799,6.4622943815424,4.71747489852596,-302.509231849116
738548.48336814087815582752,6.38843958861049,4.63438825647755,-302.509231849116
738548.48336823133286088705,6.30535294656209,4.56053346354564,-302.509231849116
738548.48336832167115062475,6.30535294656209,4.58822901089511,-302.509231849116
738548.48336841212585568428,6.33304849391156,4.61592455824457,-302.509231849116
738548.48336850258056074381,6.27765739921262,4.60669270912809,-302.509231849116
738548.48336859303526580334,6.36074404126102,4.64362010559404,-302.509231849116
738548.48336868348997086287,6.26842555009613,4.56053346354564,-302.509231849116
738548.48336877394467592239,6.26842555009613,4.50514236884671,-302.509231849116
738548.48336886439938098192,6.379207739494,4.64362010559404,-302.509231849116
738548.48336895485408604145,6.35151219214454,4.54206976531266,-302.509231849116
738548.48336904519237577915,6.33304849391156,4.56976531266213,-302.509231849116
738548.48336913564708083868,6.32381664479507,4.56053346354564,-302.509231849116
738548.48336922610178589821,6.39767143772698,4.77286599322489,-302.509231849116
738548.48336931655649095774,6.78540910061953,4.99443037202063,-302.509231849116
738548.48336940701119601727,7.27469710379345,5.25292214728233,-302.509231849116
738548.48336949746590107679,7.92092654194769,5.14213995788446,-302.509231849116
738548.48336958792060613632,7.39471114230781,4.67131565294351,-302.509231849116
738548.48336967825889587402,6.20380260628071,4.22818689535203,-302.509231849116
738548.48336976871360093355,6.02839747306742,4.21895504623554,-302.509231849116
738548.48336985916830599308,6.42536698507645,4.36666463209937,-302.509231849116
738548.48336994962301105261,6.61000396740623,4.5974608600116,-302.509231849116
738548.48337004007771611214,6.58230842005676,4.71747489852596,-302.509231849116
738548.48337013053242117167,6.47152623065889,4.67131565294351,-302.509231849116
738548.48337022098712623119,6.39767143772698,4.64362010559404,-302.509231849116
738548.48337031132541596889,6.43459883419294,4.65285195471053,-302.509231849116
738548.48337040178012102842,6.44383068330943,4.72670674764244,-302.509231849116
738548.48337049223482608795,6.35151219214454,4.62515640736106,-302.509231849116
738548.48337058268953114748,6.40690328684347,4.71747489852596,-302.509231849116
738548.48337067314423620701,6.42536698507645,4.71747489852596,-302.509231849116
738548.48337076359894126654,6.36074404126102,4.68054750206,-302.509231849116
738548.48337085405364632607,6.41613513595996,4.71747489852596,-302.509231849116
738548.48337094439193606377,6.47152623065889,4.79132969145787,-302.509231849116
738548.48337103484664112329,6.61000396740623,4.91134372997223,-302.509231849116
738548.48337112530134618282,6.44383068330943,4.74517044587542,-302.509231849116
738548.48337121575605124235,6.47152623065889,4.77286599322489,-302.509231849116
738548.48337130621075630188,6.48998992889187,4.77286599322489,-302.509231849116
738548.48337139666546136141,6.59154026917325,4.86518448438978,-302.509231849116
738548.48337148712016642094,6.65616321298868,4.90211188085574,-302.509231849116
738548.48337157745845615864,6.67462691122166,4.90211188085574,-302.509231849116
738548.48337166791316121817,6.73001800592059,4.9390392773217,-302.509231849116
738548.48337175836786627769,6.81310464796899,5.04982146671956,-302.509231849116
738548.48337184882257133722,6.73924985503708,4.9390392773217,-302.509231849116
738548.48337193927727639675,6.76694540238655,5.0221259193701,-302.509231849116
738548.48337202973198145628,6.78540910061953,5.00366222113712,-302.509231849116
738548.48337212018668651581,6.76694540238655,5.03135776848659,-302.509231849116
738548.48337221052497625351,6.73001800592059,5.01289407025361,-302.509231849116
738548.48337230097968131304,6.74848170415357,5.01289407025361,-302.509231849116
738548.48337239143438637257,6.74848170415357,4.97596667378765,-302.509231849116
738548.48337248188909143209,6.78540910061953,4.97596667378765,-302.509231849116
738548.48337257234379649162,6.76694540238655,4.94827112643818,-302.509231849116
738548.48337266279850155115,6.67462691122166,4.80979338969085,-302.509231849116
738548.48337275325320661068,6.58230842005676,4.73593859675893,-302.509231849116
738548.48337284359149634838,6.45306253242592,4.58822901089511,-302.509231849116
738548.48337293404620140791,6.40690328684347,4.5974608600116,-302.509231849116
738548.48337302450090646744,6.45306253242592,4.62515640736106,-302.509231849116
738548.48337311495561152697,6.36074404126102,4.5974608600116,-302.509231849116
738548.48337320541031658649,6.35151219214454,4.56053346354564,-302.509231849116
738548.48337329586502164602,6.35151219214454,4.61592455824457,-302.509231849116
738548.48337338631972670555,6.40690328684347,4.61592455824457,-302.509231849116
738548.48337347677443176508,6.40690328684347,4.65285195471053,-302.509231849116
738548.48337356711272150278,6.52691732535783,4.71747489852596,-302.509231849116
738548.48337365756742656231,6.78540910061953,5.01289407025361,-302.509231849116
738548.48337374802213162184,6.28688924832911,4.44975127414777,-302.509231849116
738548.48337383847683668137,6.2961210974456,4.49591051973022,-302.509231849116
738548.48337392893154174089,6.33304849391156,4.52360606707968,-302.509231849116
738548.48337401938624680042,6.32381664479507,4.51437421796319,-302.509231849116
738548.48337410984095185995,6.38843958861049,4.61592455824457,-302.509231849116
738548.48337420017924159765,6.40690328684347,4.61592455824457,-302.509231849116
738548.48337429063394665718,6.36997589037751,4.64362010559404,-302.509231849116
738548.48337438108865171671,6.38843958861049,4.64362010559404,-302.509231849116
738548.48337447154335677624,6.36997589037751,4.66208380382702,-302.509231849116
738548.48337456199806183577,6.53614917447432,4.78209784234138,-302.509231849116
738548.48337465245276689529,6.5546128727073,4.82825708792383,-302.509231849116
738548.48337474290747195482,6.28688924832911,4.51437421796319,-302.509231849116
738548.48337483324576169252,6.36997589037751,4.62515640736106,-302.509231849116
738548.48337492370046675205,6.379207739494,4.58822901089511,-302.509231849116
738548.48337501415517181158,6.33304849391156,4.55130161442915,-302.509231849116
738548.48337510460987687111,6.45306253242592,4.64362010559404,-302.509231849116
738548.48337519506458193064,6.39767143772698,4.62515640736106,-302.509231849116
738548.48337528551928699017,6.40690328684347,4.5974608600116,-302.509231849116
738548.48337537597399204969,6.48075807977538,4.70824304940947,-302.509231849116
738548.48337546631228178740,6.59154026917325,4.80056154057436,-302.509231849116
738548.48337555676698684692,6.36074404126102,4.58822901089511,-302.509231849116
738548.48337564722169190645,6.40690328684347,4.62515640736106,-302.509231849116
738548.48337573767639696598,6.38843958861049,4.62515640736106,-302.509231849116
738548.48337582813110202551,6.34228034302805,4.5974608600116,-302.509231849116
738548.48337591858580708504,6.2961210974456,4.51437421796319,-302.509231849116
738548.48337600904051214457,6.38843958861049,4.65285195471053,-302.509231849116
738548.48337609937880188227,6.36074404126102,4.5974608600116,-302.509231849116
738548.48337618983350694180,6.32381664479507,4.58822901089511,-302.509231849116
738548.48337628028821200132,6.36997589037751,4.58822901089511,-302.509231849116
738548.48337637074291706085,6.50845362712485,4.73593859675893,-302.509231849116
738548.48337646119762212038,6.48998992889187,4.68054750206,-302.509231849116
738548.48337655165232717991,6.45306253242592,4.65285195471053,-302.509231849116
738548.48337664210703223944,6.43459883419294,4.5974608600116,-302.509231849116
738548.48337673244532197714,6.40690328684347,4.56976531266213,-302.509231849116
738548.48337682290002703667,6.4622943815424,4.5974608600116,-302.509231849116
738548.48337691335473209620,6.40690328684347,4.56053346354564,-302.509231849116
738548.48337700380943715572,6.379207739494,4.53283791619617,-302.509231849116
738548.48337709426414221525,6.45306253242592,4.62515640736106,-302.509231849116
738548.48337718471884727478,6.45306253242592,4.64362010559404,-302.509231849116
738548.48337727517355233431,6.43459883419294,4.61592455824457,-302.509231849116
738548.48337736551184207201,6.38843958861049,4.60669270912809,-302.509231849116
738548.48337745596654713154,6.43459883419294,4.63438825647755,-302.509231849116
738548.48337754642125219107,6.43459883419294,4.66208380382702,-302.509231849116
738548.48337763687595725060,6.42536698507645,4.61592455824457,-302.509231849116
738548.48337772733066231012,6.41613513595996,4.62515640736106,-302.509231849116
738548.48337781778536736965,6.48998992889187,4.65285195471053,-302.509231849116
738548.48337790824007242918,6.48075807977538,4.66208380382702,-302.509231849116
738548.48337799869477748871,6.40690328684347,4.54206976531266,-302.509231849116
738548.48337808903306722641,6.44383068330943,4.57899716177862,-302.509231849116
738548.48337817948777228594,6.45306253242592,4.57899716177862,-302.509231849116
738548.48337826994247734547,6.61000396740623,4.7636341441084,-302.509231849116
738548.48337836039718240499,6.48998992889187,4.61592455824457,-302.509231849116
738548.48337845085188746452,6.42536698507645,4.56976531266213,-302.509231849116
738548.48337854130659252405,6.41613513595996,4.63438825647755,-302.509231849116
738548.48337863176129758358,6.43459883419294,4.65285195471053,-302.509231849116
738548.48337872209958732128,6.54538102359081,4.77286599322489,-302.509231849116
738548.48337881255429238081,6.47152623065889,4.65285195471053,-302.509231849116
738548.48337890300899744034,6.43459883419294,4.64362010559404,-302.509231849116
738548.48337899346370249987,6.32381664479507,4.49591051973022,-302.509231849116
738548.48337908391840755939,6.34228034302805,4.54206976531266,-302.509231849116
738548.48337917437311261892,6.30535294656209,4.45898312326426,-302.509231849116
738548.48337926482781767845,6.35151219214454,4.54206976531266,-302.509231849116
738548.48337935516610741615,6.36074404126102,4.52360606707968,-302.509231849116
738548.48337944562081247568,6.379207739494,4.58822901089511,-302.509231849116
738548.48337953607551753521,6.44383068330943,4.63438825647755,-302.509231849116
738548.48337962653022259474,6.44383068330943,4.64362010559404,-302.509231849116
738548.48337971698492765427,6.31458479567858,4.54206976531266,-302.509231849116
738548.48337980743963271379,6.43459883419294,4.71747489852596,-302.509231849116
738548.48337989789433777332,6.75771355327006,4.90211188085574,-302.509231849116
738548.48337998823262751102,7.41317484054079,5.28984954374828,-302.509231849116
738548.48338007868733257055,8.07786797692801,5.23445844904935,-302.509231849116
738548.48338016914203763008,7.51472518082217,4.5974608600116,-302.509231849116
738548.48338025959674268961,6.30535294656209,4.22818689535203,-302.509231849116
738548.48338035005144774914,6.06532486953337,4.14510025330363,-302.509231849116
738548.48338044050615280867,6.36997589037751,4.31127353740043,-302.509231849116
738548.48338053096085786819,6.48075807977538,4.46821497238075,-302.509231849116
738548.48338062129914760590,6.44383068330943,4.65285195471053,-302.509231849116
738548.48338071175385266542,6.47152623065889,4.71747489852596,-302.509231849116
738548.48338080220855772495,6.59154026917325,4.88364818262276,-302.509231849116
738548.48338089266326278448,6.35151219214454,4.5974608600116,-302.509231849116
738548.48338098311796784401,6.30535294656209,4.56976531266213,-302.509231849116
738548.48338107357267290354,6.41613513595996,4.63438825647755,-302.509231849116
738548.48338116402737796307,6.4622943815424,4.70824304940947,-302.509231849116
738548.48338125436566770077,6.51768547624134,4.71747489852596,-302.509231849116
738548.48338134482037276030,6.52691732535783,4.75440229499191,-302.509231849116
738548.48338143527507781982,6.5546128727073,4.79132969145787,-302.509231849116
738548.48338152572978287935,6.4622943815424,4.69901120029298,-302.509231849116
738548.48338161618448793888,6.49922177800836,4.77286599322489,-302.509231849116
738548.48338170663919299841,6.73001800592059,4.94827112643818,-302.509231849116
738548.48338179709389805794,6.53614917447432,4.80056154057436,-302.509231849116
738548.48338188754860311747,6.47152623065889,4.68054750206,-302.509231849116
738548.48338197788689285517,6.51768547624134,4.74517044587542,-302.509231849116
738548.48338206834159791470,6.61000396740623,4.78209784234138,-302.509231849116
738548.48338215879630297422,6.62846766563921,4.83748893704032,-302.509231849116
738548.48338224925100803375,6.73001800592059,4.90211188085574,-302.509231849116
738548.48338233970571309328,6.73001800592059,4.9390392773217,-302.509231849116
738548.48338243016041815281,6.78540910061953,4.97596667378765,-302.509231849116
738548.48338252061512321234,6.99774163029878,5.19753105258339,-302.509231849116
738548.48338261095341295004,6.96081423383282,5.13290810876797,-302.509231849116
738548.48338270140811800957,6.91465498825037,5.1052125614185,-302.509231849116
738548.48338279186282306910,6.77617725150304,4.94827112643818,-302.509231849116
738548.48338288231752812862,6.68385876033815,4.82825708792383,-302.509231849116
738548.48338297277223318815,6.73001800592059,4.85595263527329,-302.509231849116
738548.48338306322693824768,6.66539506210517,4.79132969145787,-302.509231849116
738548.48338315368164330721,6.61000396740623,4.73593859675893,-302.509231849116
738548.48338324401993304491,6.61000396740623,4.72670674764244,-302.509231849116
738548.48338333447463810444,6.5546128727073,4.69901120029298,-302.509231849116
738548.48338342492934316397,6.54538102359081,4.64362010559404,-302.509231849116
738548.48338351538404822350,6.54538102359081,4.66208380382702,-302.509231849116
738548.48338360583875328302,6.67462691122166,4.74517044587542,-302.509231849116
738548.48338369629345834255,6.79464094973601,4.90211188085574,-302.509231849116
738548.48338378674816340208,6.42536698507645,4.51437421796319,-302.509231849116
738548.48338387708645313978,6.379207739494,4.50514236884671,-302.509231849116
738548.48338396754115819931,6.30535294656209,4.43128757591479,-302.509231849116
738548.48338405799586325884,6.36074404126102,4.52360606707968,-302.509231849116
738548.48338414845056831837,6.379207739494,4.55130161442915,-302.509231849116
738548.48338423890527337790,6.39767143772698,4.58822901089511,-302.509231849116
738548.48338432935997843742,6.40690328684347,4.5974608600116,-302.509231849116
738548.48338441981468349695,6.41613513595996,4.57899716177862,-302.509231849116
738548.48338451015297323465,6.51768547624134,4.68054750206,-302.509231849116
738548.48338460060767829418,6.6376995147557,4.75440229499191,-302.509231849116
738548.48338469106238335371,6.60077211828974,4.70824304940947,-302.509231849116
738548.48338478151708841324,6.50845362712485,4.57899716177862,-302.509231849116
738548.48338487197179347277,6.60077211828974,4.71747489852596,-302.509231849116
738548.48338496242649853230,6.36997589037751,4.45898312326426,-302.509231849116
738548.48338505288120359182,6.379207739494,4.53283791619617,-302.509231849116
738548.48338514321949332952,6.42536698507645,4.56053346354564,-302.509231849116
738548.48338523367419838905,6.379207739494,4.5974608600116,-302.509231849116
738548.48338532412890344858,6.39767143772698,4.63438825647755,-302.509231849116
738548.48338541458360850811,6.36074404126102,4.60669270912809,-302.509231849116
738548.48338550503831356764,6.42536698507645,4.63438825647755,-302.509231849116
738548.48338559549301862717,6.45306253242592,4.62515640736106,-302.509231849116
738548.48338568594772368670,6.7207861568041,4.87441633350627,-302.509231849116
738548.48338577628601342440,6.60077211828974,4.70824304940947,-302.509231849116
738548.48338586674071848392,6.42536698507645,4.48667867061373,-302.509231849116
738548.48338595719542354345,6.47152623065889,4.46821497238075,-302.509231849116
738548.48338604765012860298,6.48998992889187,4.52360606707968,-302.509231849116
738548.48338613810483366251,6.54538102359081,4.58822901089511,-302.509231849116
738548.48338622855953872204,6.48075807977538,4.57899716177862,-302.509231849116
738548.48338631901424378157,6.42536698507645,4.53283791619617,-302.509231849116
738548.48338640946894884109,6.39767143772698,4.60669270912809,-302.509231849116
738548.48338649980723857880,6.43459883419294,4.5974608600116,-302.509231849116
738548.48338659026194363832,6.53614917447432,4.77286599322489,-302.509231849116
738548.48338668071664869785,6.74848170415357,4.95750297555467,-302.509231849116
738548.48338677117135375738,6.30535294656209,4.49591051973022,-302.509231849116
738548.48338686162605881691,6.24073000274667,4.34820093386639,-302.509231849116
738548.48338695208076387644,6.36074404126102,4.46821497238075,-302.509231849116
738548.48338704253546893597,6.42536698507645,4.52360606707968,-302.509231849116
738548.48338713287375867367,6.50845362712485,4.55130161442915,-302.509231849116
738548.48338722332846373320,6.51768547624134,4.56976531266213,-302.509231849116
738548.48338731378316879272,6.54538102359081,4.56976531266213,-302.509231849116
738548.48338740423787385225,6.48075807977538,4.57899716177862,-302.509231849116
738548.48338749469257891178,6.56384472182379,4.67131565294351,-302.509231849116
738548.48338758514728397131,6.53614917447432,4.72670674764244,-302.509231849116
738548.48338767560198903084,6.4622943815424,4.63438825647755,-302.509231849116
738548.48338776594027876854,6.34228034302805,4.57899716177862,-302.509231849116
738548.48338785639498382807,6.31458479567858,4.48667867061373,-302.509231849116
738548.48338794684968888760,6.45306253242592,4.65285195471053,-302.509231849116
738548.48338803730439394712,6.36074404126102,4.49591051973022,-302.509231849116
738548.48338812775909900665,6.379207739494,4.54206976531266,-302.509231849116
738548.48338821821380406618,6.45306253242592,4.55130161442915,-302.509231849116
738548.48338830866850912571,6.48998992889187,4.61592455824457,-302.509231849116
738548.48338839900679886341,6.48998992889187,4.56976531266213,-302.509231849116
738548.48338848946150392294,6.54538102359081,4.65285195471053,-302.509231849116
738548.48338857991620898247,6.7207861568041,4.78209784234138,-302.509231849116
738548.48338867037091404200,6.66539506210517,4.68977935117649,-302.509231849116
738548.48338876082561910152,6.40690328684347,4.40359202856532,-302.509231849116
738548.48338885128032416105,6.47152623065889,4.44975127414777,-302.509231849116
738548.48338894173502922058,6.62846766563921,4.64362010559404,-302.509231849116
738548.48338903207331895828,6.60077211828974,4.56976531266213,-302.509231849116
738548.48338912252802401781,6.53614917447432,4.53283791619617,-302.509231849116
738548.48338921298272907734,6.62846766563921,4.56053346354564,-302.509231849116
738548.48338930343743413687,6.65616321298868,4.64362010559404,-302.509231849116
738548.48338939389213919640,6.73001800592059,4.67131565294351,-302.509231849116
738548.48338948434684425592,6.7207861568041,4.69901120029298,-302.509231849116
738548.48338957480154931545,6.8038727988525,4.81902523880734,-302.509231849116
738548.48338966513983905315,6.67462691122166,4.74517044587542,-302.509231849116
738548.48338975559454411268,6.4622943815424,4.53283791619617,-302.509231849116
738548.48338984604924917221,6.40690328684347,4.47744682149724,-302.509231849116
738548.48338993650395423174,6.44383068330943,4.48667867061373,-302.509231849116
738548.48339002695865929127,6.48998992889187,4.53283791619617,-302.509231849116
738548.48339011741336435080,6.48998992889187,4.51437421796319,-302.509231849116
738548.48339020786806941032,6.52691732535783,4.54206976531266,-302.509231849116
738548.48339029820635914803,6.54538102359081,4.55130161442915,-302.509231849116
738548.48339038866106420755,6.57307657094027,4.58822901089511,-302.509231849116
738548.48339047911576926708,6.61000396740623,4.67131565294351,-302.509231849116
738548.48339056957047432661,6.75771355327006,4.80979338969085,-302.509231849116
738548.48339066002517938614,6.60077211828974,4.68977935117649,-302.509231849116
738548.48339075047988444567,6.48998992889187,4.54206976531266,-302.509231849116
738548.48339084093458950520,6.45306253242592,4.57899716177862,-302.509231849116
738548.48339093138929456472,6.61000396740623,4.63438825647755,-302.509231849116
738548.48339102172758430243,7.18237861262856,5.01289407025361,-302.509231849116
738548.48339111218228936195,8.00401318399609,5.21599475081637,-302.509231849116
738548.48339120263699442148,7.87476729636525,4.80056154057436,-302.509231849116
738548.48339129309169948101,6.77617725150304,4.28357799005097,-302.509231849116
738548.48339138354640454054,6.12071596423231,4.13586840418714,-302.509231849116
738548.48339147400110960007,6.40690328684347,4.37589648121586,-302.509231849116
738548.48339156445581465960,6.8038727988525,4.65285195471053,-302.509231849116
738548.48339165479410439730,6.61923581652272,4.60669270912809,-302.509231849116
738548.48339174524880945683,6.50845362712485,4.57899716177862,-302.509231849116
738548.48339183570351451635,6.5546128727073,4.67131565294351,-302.509231849116
738548.48339192615821957588,6.50845362712485,4.56976531266213,-302.509231849116
738548.48339201661292463541,6.49922177800836,4.61592455824457,-302.509231849116
738548.48339210706762969494,6.50845362712485,4.57899716177862,-302.509231849116
738548.48339219752233475447,6.60077211828974,4.68054750206,-302.509231849116
738548.48339228786062449217,6.57307657094027,4.65285195471053,-302.509231849116
738548.48339237831532955170,6.54538102359081,4.71747489852596,-302.509231849116
738548.48339246877003461123,6.69309060945463,4.80979338969085,-302.509231849116
738548.48339255922473967075,6.77617725150304,4.92980742820521,-302.509231849116
738548.48339264967944473028,6.67462691122166,4.81902523880734,-302.509231849116
738548.48339274013414978981,6.48075807977538,4.62515640736106,-302.509231849116
738548.48339283058885484934,6.45306253242592,4.64362010559404,-302.509231849116
738548.48339292092714458704,6.51768547624134,4.71747489852596,-302.509231849116
738548.48339301138184964657,6.49922177800836,4.74517044587542,-302.509231849116
738548.48339310183655470610,6.54538102359081,4.79132969145787,-302.509231849116
738548.48339319229125976562,6.56384472182379,4.8467207861568,-302.509231849116
738548.48339328274596482515,6.65616321298868,4.90211188085574,-302.509231849116
738548.48339337320066988468,6.66539506210517,4.9390392773217,-302.509231849116
738548.48339346365537494421,6.74848170415357,4.98519852290414,-302.509231849116
738548.48339355399366468191,6.68385876033815,4.94827112643818,-302.509231849116
738548.48339364444836974144,6.84080019531846,5.04058961760308,-302.509231849116
738548.48339373490307480097,6.70232245857112,4.89288003173925,-302.509231849116
738548.48339382535777986050,6.82233649708548,4.92980742820521,-302.509231849116
738548.48339391581248492002,6.83156834620197,4.92057557908872,-302.509231849116
738548.48339400626718997955,6.85926389355144,4.82825708792383,-302.509231849116
738548.48339409672189503908,6.90542313913388,4.8467207861568,-302.509231849116
738548.48339418706018477678,6.91465498825037,4.74517044587542,-302.509231849116
738548.48339427751488983631,6.88695944090091,4.72670674764244,-302.509231849116
738548.48339436796959489584,6.85926389355144,4.68054750206,-302.509231849116
738548.48339445842429995537,6.92388683736686,4.7636341441084,-302.509231849116
738548.48339454887900501490,6.85003204443495,4.80979338969085,-302.509231849116
738548.48339463933371007442,6.64693136387219,4.65285195471053,-302.509231849116
738548.48339472978841513395,6.45306253242592,4.50514236884671,-302.509231849116
738548.48339482012670487165,6.52691732535783,4.58822901089511,-302.509231849116
738548.48339491058140993118,6.48075807977538,4.56976531266213,-302.509231849116
738548.48339500103611499071,6.4622943815424,4.47744682149724,-302.509231849116
738548.48339509149082005024,6.57307657094027,4.55130161442915,-302.509231849116
738548.48339518194552510977,6.7207861568041,4.61592455824457,-302.509231849116
738548.48339527240023016930,6.7207861568041,4.57899716177862,-302.509231849116
738548.48339536285493522882,6.8038727988525,4.58822901089511,-302.509231849116
738548.48339545330964028835,7.01620532853175,4.82825708792383,-302.509231849116
738548.48339554364793002605,6.83156834620197,4.67131565294351,-302.509231849116
738548.48339563410263508558,6.71155430768761,4.62515640736106,-302.509231849116
738548.48339572455734014511,6.60077211828974,4.53283791619617,-302.509231849116
738548.48339581501204520464,6.49922177800836,4.48667867061373,-302.509231849116
738548.48339590546675026417,6.59154026917325,4.62515640736106,-302.509231849116
738548.48339599592145532370,6.61000396740623,4.66208380382702,-302.509231849116
738548.48339608637616038322,6.57307657094027,4.60669270912809,-302.509231849116
738548.48339617671445012093,6.59154026917325,4.61592455824457,-302.509231849116
738548.48339626716915518045,6.61923581652272,4.68054750206,-302.509231849116
738548.48339635762386023998,6.7207861568041,4.71747489852596,-302.509231849116
738548.48339644807856529951,6.64693136387219,4.68054750206,-302.509231849116
738548.48339653853327035904,6.59154026917325,4.61592455824457,-302.509231849116
738548.48339662898797541857,6.51768547624134,4.57899716177862,-302.509231849116
738548.48339671944268047810,6.52691732535783,4.61592455824457,-302.509231849116
738548.48339680978097021580,6.379207739494,4.54206976531266,-302.509231849116
738548.48339690023567527533,6.35151219214454,4.56053346354564,-302.509231849116
738548.48339699069038033485,6.32381664479507,4.57899716177862,-302.509231849116
738548.48339708114508539438,6.33304849391156,4.61592455824457,-302.509231849116
738548.48339717159979045391,6.32381664479507,4.64362010559404,-302.509231849116
738548.48339726205449551344,6.34228034302805,4.66208380382702,-302.509231849116
738548.48339735250920057297,6.25919370097964,4.56976531266213,-302.509231849116
738548.48339744284749031067,6.25919370097964,4.57899716177862,-302.509231849116
738548.48339753330219537020,6.36074404126102,4.67131565294351,-302.509231849116
738548.48339762375690042973,6.27765739921262,4.57899716177862,-302.509231849116
738548.48339771421160548925,6.24073000274667,4.49591051973022,-302.509231849116
738548.48339780466631054878,6.26842555009613,4.55130161442915,-302.509231849116
738548.48339789512101560831,6.36997589037751,4.60669270912809,-302.509231849116
738548.48339798557572066784,6.31458479567858,4.58822901089511,-302.509231849116
738548.48339807591401040554,6.33304849391156,4.57899716177862,-302.509231849116
738548.48339816636871546507,6.36074404126102,4.64362010559404,-302.509231849116
738548.48339825682342052460,6.48998992889187,4.79132969145787,-302.509231849116
738548.48339834727812558413,6.38843958861049,4.62515640736106,-302.509231849116
738548.48339843773283064365,6.30535294656209,4.50514236884671,-302.509231849116
738548.48339852818753570318,6.33304849391156,4.53283791619617,-302.509231849116
738548.48339861864224076271,6.31458479567858,4.57899716177862,-302.509231849116
738548.48339870898053050041,6.31458479567858,4.58822901089511,-302.509231849116
738548.48339879943523555994,6.22226630451369,4.55130161442915,-302.509231849116
738548.48339888988994061947,6.25919370097964,4.56976531266213,-302.509231849116
738548.48339898034464567900,6.24073000274667,4.58822901089511,-302.509231849116
738548.48339907079935073853,6.32381664479507,4.63438825647755,-302.509231849116
738548.48339916125405579805,6.35151219214454,4.70824304940947,-302.509231849116
738548.48339925170876085758,6.28688924832911,4.61592455824457,-302.509231849116
738548.48339934204705059528,6.28688924832911,4.68054750206,-302.509231849116
738548.48339943250175565481,6.19457075716422,4.54206976531266,-302.509231849116
738548.48339952295646071434,6.14841151158177,4.55130161442915,-302.509231849116
738548.48339961341116577387,6.27765739921262,4.63438825647755,-302.509231849116
738548.48339970386587083340,6.15764336069826,4.53283791619617,-302.509231849116
738548.48339979432057589293,6.25919370097964,4.58822901089511,-302.509231849116
738548.48339988477528095245,6.35151219214454,4.68054750206,-302.509231849116
738548.48339997522998601198,6.36074404126102,4.60669270912809,-302.509231849116
738548.48340006556827574968,6.36997589037751,4.62515640736106,-302.509231849116
738548.48340015602298080921,6.39767143772698,4.71747489852596,-302.509231849116
738548.48340024647768586874,6.379207739494,4.68054750206,-302.509231849116
738548.48340033693239092827,6.379207739494,4.68977935117649,-302.509231849116
738548.48340042738709598780,6.2130344553972,4.44051942503128,-302.509231849116
738548.48340051784180104733,6.23149815363018,4.50514236884671,-302.509231849116
738548.48340060829650610685,6.34228034302805,4.57899716177862,-302.509231849116
738548.48340069863479584455,6.11148411511582,4.43128757591479,-302.509231849116
738548.48340078908950090408,6.16687520981475,4.45898312326426,-302.509231849116
738548.48340087954420596361,6.19457075716422,4.53283791619617,-302.509231849116
738548.48340096999891102314,6.2130344553972,4.51437421796319,-302.509231849116
738548.48340106045361608267,6.26842555009613,4.57899716177862,-302.509231849116
738548.48340115090832114220,6.35151219214454,4.60669270912809,-302.509231849116
738548.48340124136302620173,6.34228034302805,4.62515640736106,-302.509231849116
738548.48340133170131593943,6.32381664479507,4.67131565294351,-302.509231849116
738548.48340142215602099895,6.66539506210517,4.89288003173925,-302.509231849116
738548.48340151261072605848,7.28392895290994,5.26215399639882,-302.509231849116
738548.48340160306543111801,7.90246284371471,5.16983550523392,-302.509231849116
738548.48340169352013617754,7.45010223700674,4.54206976531266,-302.509231849116
738548.48340178397484123707,6.32381664479507,4.24665059358501,-302.509231849116
738548.48340187442954629660,6.00993377483444,4.12663655507065,-302.509231849116
738548.48340196476783603430,6.26842555009613,4.22818689535203,-302.509231849116
738548.48340205522254109383,6.51768547624134,4.41282387768181,-302.509231849116
738548.48340214567724615335,6.53614917447432,4.56976531266213,-302.509231849116
738548.48340223613195121288,6.36074404126102,4.60669270912809,-302.509231849116
738548.48340232658665627241,6.36074404126102,4.62515640736106,-302.509231849116
738548.48340241704136133194,6.38843958861049,4.71747489852596,-302.509231849116
738548.48340250749606639147,6.34228034302805,4.68054750206,-302.509231849116
738548.48340259783435612917,6.39767143772698,4.77286599322489,-302.509231849116
738548.48340268828906118870,6.39767143772698,4.74517044587542,-302.509231849116
738548.48340277874376624823,6.25919370097964,4.58822901089511,-302.509231849116
738548.48340286919847130775,6.33304849391156,4.63438825647755,-302.509231849116
738548.48340295965317636728,6.34228034302805,4.63438825647755,-302.509231849116
738548.48340305010788142681,6.379207739494,4.65285195471053,-302.509231849116
738548.48340314056258648634,6.43459883419294,4.72670674764244,-302.509231849116
738548.48340323090087622404,6.43459883419294,4.73593859675893,-302.509231849116
738548.48340332135558128357,6.42536698507645,4.73593859675893,-302.509231849116
738548.48340341181028634310,6.45306253242592,4.79132969145787,-302.509231849116
738548.48340350226499140263,6.58230842005676,4.89288003173925,-302.509231849116
738548.48340359271969646215,6.64693136387219,4.96673482467116,-302.509231849116
738548.48340368317440152168,6.60077211828974,4.88364818262276,-302.509231849116
738548.48340377362910658121,6.58230842005676,4.89288003173925,-302.509231849116
738548.48340386408381164074,6.68385876033815,4.94827112643818,-302.509231849116
738548.48340395442210137844,6.65616321298868,4.92980742820521,-302.509231849116
738548.48340404487680643797,6.69309060945463,4.9390392773217,-302.509231849116
738548.48340413533151149750,6.7207861568041,5.00366222113712,-302.509231849116
738548.48340422578621655703,6.75771355327006,5.04982146671956,-302.509231849116
738548.48340431624092161655,6.74848170415357,5.06828516495254,-302.509231849116
738548.48340440669562667608,6.62846766563921,4.95750297555467,-302.509231849116
738548.48340449715033173561,6.64693136387219,4.94827112643818,-302.509231849116
738548.48340458748862147331,6.7207861568041,5.01289407025361,-302.509231849116
738548.48340467794332653284,6.52691732535783,4.77286599322489,-302.509231849116
738548.48340476839803159237,6.51768547624134,4.7636341441084,-302.509231849116
738548.48340485885273665190,6.45306253242592,4.66208380382702,-302.509231849116
738548.48340494930744171143,6.45306253242592,4.68977935117649,-302.509231849116
738548.48340503976214677095,6.41613513595996,4.5974608600116,-302.509231849116
738548.48340513021685183048,6.42536698507645,4.67131565294351,-302.509231849116
738548.48340522055514156818,6.33304849391156,4.56053346354564,-302.509231849116
738548.48340531100984662771,6.24073000274667,4.55130161442915,-302.509231849116
738548.48340540146455168724,6.22226630451369,4.50514236884671,-302.509231849116
738548.48340549191925674677,6.22226630451369,4.56053346354564,-302.509231849116
738548.48340558237396180630,6.25919370097964,4.58822901089511,-302.509231849116
738548.48340567282866686583,6.27765739921262,4.5974608600116,-302.509231849116
738548.48340576328337192535,6.40690328684347,4.73593859675893,-302.509231849116
738548.48340585362166166306,6.47152623065889,4.75440229499191,-302.509231849116
738548.48340594407636672258,6.27765739921262,4.56976531266213,-302.509231849116
738548.48340603453107178211,6.27765739921262,4.54206976531266,-302.509231849116
738548.48340612498577684164,6.30535294656209,4.5974608600116,-302.509231849116
738548.48340621544048190117,6.25919370097964,4.46821497238075,-302.509231849116
738548.48340630589518696070,6.35151219214454,4.57899716177862,-302.509231849116
738548.48340639634989202023,6.34228034302805,4.55130161442915,-302.509231849116
738548.48340648668818175793,6.33304849391156,4.5974608600116,-302.509231849116
738548.48340657714288681746,6.379207739494,4.5974608600116,-302.509231849116
738548.48340666759759187698,6.36997589037751,4.63438825647755,-302.509231849116
738548.48340675805229693651,6.379207739494,4.60669270912809,-302.509231849116
738548.48340684850700199604,6.42536698507645,4.68977935117649,-302.509231849116
738548.48340693896170705557,6.50845362712485,4.74517044587542,-302.509231849116
738548.48340702941641211510,6.49922177800836,4.77286599322489,-302.509231849116
738548.48340711975470185280,6.33304849391156,4.57899716177862,-302.509231849116
738548.48340721020940691233,6.23149815363018,4.50514236884671,-302.509231849116
738548.48340730066411197186,6.2961210974456,4.53283791619617,-302.509231849116
738548.48340739111881703138,6.27765739921262,4.52360606707968,-302.509231849116
738548.48340748157352209091,6.31458479567858,4.56976531266213,-302.509231849116
738548.48340757202822715044,6.36074404126102,4.57899716177862,-302.509231849116
738548.48340766248293220997,6.36997589037751,4.61592455824457,-302.509231849116
738548.48340775282122194767,6.39767143772698,4.57899716177862,-302.509231849116
738548.48340784327592700720,6.44383068330943,4.63438825647755,-302.509231849116
738548.48340793373063206673,6.50845362712485,4.58822901089511,-302.509231849116
738548.48340802418533712626,6.50845362712485,4.62515640736106,-302.509231849116
738548.48340811464004218578,6.70232245857112,4.70824304940947,-302.509231849116
738548.48340820509474724531,6.73924985503708,4.68977935117649,-302.509231849116
738548.48340829554945230484,6.69309060945463,4.49591051973022,-302.509231849116
738548.48340838600415736437,6.98850978118229,4.68977935117649,-302.509231849116
738548.48340847634244710207,7.3208563493759,4.83748893704032,-302.509231849116
738548.48340856679715216160,7.0623645741142,4.46821497238075,-302.509231849116
738548.48340865725185722113,7.28392895290994,4.55130161442915,-302.509231849116
738548.48340874770656228065,7.38547929319132,4.66208380382702,-302.509231849116
738548.48340883816126734018,7.34855189672536,4.60669270912809,-302.509231849116
738548.48340892861597239971,7.33932004760887,4.64362010559404,-302.509231849116
738548.48340901907067745924,7.21930600909452,4.5974608600116,-302.509231849116
738548.48340910940896719694,7.1454512161626,4.64362010559404,-302.509231849116
738548.48340919986367225647,6.9792779320658,4.5974608600116,-302.509231849116
738548.48340929031837731600,6.77617725150304,4.52360606707968,-302.509231849116
738548.48340938077308237553,6.62846766563921,4.43128757591479,-302.509231849116
738548.48340947122778743505,6.56384472182379,4.44051942503128,-302.509231849116
738548.48340956168249249458,6.58230842005676,4.56053346354564,-302.509231849116
738548.48340965213719755411,6.57307657094027,4.52360606707968,-302.509231849116
738548.48340974247548729181,6.59154026917325,4.54206976531266,-302.509231849116
738548.48340983293019235134,6.69309060945463,4.58822901089511,-302.509231849116
738548.48340992338489741087,6.73001800592059,4.58822901089511,-302.509231849116
738548.48341001383960247040,6.88695944090091,4.70824304940947,-302.509231849116
738548.48341010429430752993,6.91465498825037,4.72670674764244,-302.509231849116
738548.48341019474901258945,6.78540910061953,4.62515640736106,-302.509231849116
738548.48341028520371764898,6.78540910061953,4.68054750206,-302.509231849116
738548.48341037554200738668,6.77617725150304,4.69901120029298,-302.509231849116
738548.48341046599671244621,6.5546128727073,4.55130161442915,-302.509231849116
738548.48341055645141750574,6.57307657094027,4.67131565294351,-302.509231849116
738548.48341064690612256527,6.45306253242592,4.55130161442915,-302.509231849116
738548.48341073736082762480,6.38843958861049,4.50514236884671,-302.509231849116
738548.48341082781553268433,6.47152623065889,4.54206976531266,-302.509231849116
738548.48341091827023774385,6.48075807977538,4.56976531266213,-302.509231849116
738548.48341100860852748156,6.50845362712485,4.55130161442915,-302.509231849116
738548.48341109906323254108,6.54538102359081,4.61592455824457,-302.509231849116
738548.48341118951793760061,6.6376995147557,4.68977935117649,-302.509231849116
738548.48341127997264266014,6.56384472182379,4.67131565294351,-302.509231849116
738548.48341137042734771967,6.33304849391156,4.51437421796319,-302.509231849116
738548.48341146088205277920,6.27765739921262,4.38512833033235,-302.509231849116
738548.48341155133675783873,6.6376995147557,4.34820093386639,-302.509231849116
738548.48341164167504757643,6.98850978118229,4.45898312326426,-302.509231849116
738548.48341173212975263596,6.87772759178442,4.64362010559404,-302.509231849116
738548.48341182258445769548,6.91465498825037,4.83748893704032,-302.509231849116
738548.48341191303916275501,7.21930600909452,5.25292214728233,-302.509231849116
738548.48341200349386781454,7.86553544724876,5.28984954374828,-302.509231849116
738548.48341209394857287407,7.7455214087344,4.82825708792383,-302.509231849116
738548.48341218440327793360,7.01620532853175,4.60669270912809,-302.509231849116
738548.48341227474156767130,6.4622943815424,4.22818689535203,-302.509231849116
738548.48341236519627273083,6.77617725150304,3.90507217627491,-302.509231849116
738548.48341245565097779036,7.36701559495834,4.04354991302225,-302.509231849116
738548.48341254610568284988,7.54242072817164,4.20972319711905,-302.509231849116
738548.48341263656038790941,8.13325907162694,4.64362010559404,-302.509231849116
738548.48341272701509296894,9.08413953062532,4.69901120029298,-302.509231849116
738548.48341281746979802847,10.0811792352062,4.7636341441084,-302.509231849116
738548.48341290792450308800,11.2166966765343,4.72670674764244,-302.509231849116
738548.48341299826279282570,12.1768089846492,4.72670674764244,-302.509231849116
738548.48341308871749788523,12.5645466475417,4.75440229499191,-302.509231849116
738548.48341317917220294476,13.3215582750938,4.78209784234138,-302.509231849116
738548.48341326962690800428,13.8108462782678,4.79132969145787,-302.509231849116
738548.48341336008161306381,14.0324106570635,4.51437421796319,-302.509231849116
738548.48341345053631812334,14.1247291482284,4.4220557267983,-302.509231849116
738548.48341354099102318287,14.5863216040529,4.53283791619617,-302.509231849116
738548.48341363132931292057,14.9740592669454,4.77286599322489,-302.509231849116
738548.48341372178401798010,15.0017548142949,4.70824304940947,-302.509231849116
738548.48341381223872303963,15.0848414563433,4.68977935117649,-302.509231849116
738548.48341390269342809916,14.7247993408002,4.70824304940947,-302.509231849116
738548.48341399314813315868,13.9677877132481,4.78209784234138,-302.509231849116
738548.48341408360283821821,13.5615863521226,5.04982146671956,-302.509231849116
738548.48341417405754327774,13.2938627277444,5.31754509109775,-302.509231849116
738548.48341426439583301544,12.1121860408338,4.71747489852596,-302.509231849116
738548.48341435485053807497,11.7244483779412,4.91134372997223,-302.509231849116
738548.48341444530524313450,11.4844203009125,5.04058961760308,-302.509231849116
738548.48341453575994819403,11.1705374309519,5.14213995788446,-302.509231849116
738548.48341462621465325356,10.7920316171758,5.15137180700095,-302.509231849116
738548.48341471666935831308,10.3581347087008,5.04058961760308,-302.509231849116
738548.48341480712406337261,10.0996429334391,5.04058961760308,-302.509231849116
738548.48341489746235311031,9.98886074404126,5.01289407025361,-302.509231849116
738548.48341498791705816984,9.80422376171148,5.07751701406903,-302.509231849116
738548.48341507837176322937,10.0996429334391,5.529877620777,-302.509231849116
738548.48341516882646828890,8.94566179387799,4.60669270912809,-302.509231849116
738548.48341525928117334843,8.77025666066469,4.57899716177862,-302.509231849116
738548.48341534973587840796,8.65024262215033,4.65285195471053,-302.509231849116
738548.48341544019058346748,8.5948515274514,4.68054750206,-302.509231849116
738548.48341553052887320518,8.44714194158757,4.70824304940947,-302.509231849116
738548.48341562098357826471,8.29943235572375,4.67131565294351,-302.509231849116
738548.48341571143828332424,8.18865016632588,4.68054750206,-302.509231849116
738548.48341580189298838377,8.10556352427747,4.67131565294351,-302.509231849116
738548.48341589234769344330,8.14249092074343,4.80979338969085,-302.509231849116
738548.48341598280239850283,8.32712790307321,5.11444441053499,-302.509231849116
738548.48341607325710356236,7.79168065431684,4.58822901089511,-302.509231849116
738548.48341616359539330006,7.53318887905515,4.49591051973022,-302.509231849116
738548.48341625405009835958,7.60704367198706,4.7636341441084,-302.509231849116
738548.48341634450480341911,7.49626148258919,4.74517044587542,-302.509231849116
738548.48341643495950847864,7.15468306527909,4.51437421796319,-302.509231849116
738548.48341652541421353817,7.0623645741142,4.63438825647755,-302.509231849116
738548.48341661586891859770,6.90542313913388,4.69901120029298,-302.509231849116
738548.48341670632362365723,6.64693136387219,4.64362010559404,-302.509231849116
738548.48341679666191339493,6.53614917447432,4.62515640736106,-302.509231849116
738548.48341688711661845446,6.24996185186316,4.71747489852596,-302.509231849116
738548.48341697757132351398,6.14841151158177,4.81902523880734,-302.509231849116
738548.48341706802602857351,5.69605090487381,4.63438825647755,-302.509231849116
738548.48341715848073363304,5.28984954374828,4.46821497238075,-302.509231849116
738548.48341724893543869257,5.1882992034669,4.56976531266213,-302.509231849116
738548.48341733939014375210,5.01289407025361,4.67131565294351,-302.509231849116
738548.48341742984484881163,4.82825708792383,4.68977935117649,-302.509231849116
738548.48341752018313854933,4.68977935117649,4.77286599322489,-302.509231849116
738548.48341761063784360886,4.48667867061373,4.7636341441084,-302.509231849116
738548.48341770109254866838,4.1727958006531,4.75440229499191,-302.509231849116
738548.48341779154725372791,4.19125949888607,4.80979338969085,-302.509231849116
738548.48341788200195878744,4.27434614093448,4.92980742820521,-302.509231849116
738548.48341797245666384697,4.44975127414777,5.1052125614185,-302.509231849116
738548.48341806291136890650,4.1727958006531,4.8467207861568,-302.509231849116
738548.48341815324965864420,4.08970915860469,4.60669270912809,-302.509231849116
738548.48341824370436370373,4.28357799005097,4.7636341441084,-302.509231849116
738548.48341833415906876326,4.73593859675893,5.13290810876797,-302.509231849116
738548.48341842461377382278,4.35743278298288,4.69901120029298,-302.509231849116
738548.48341851506847888231,4.55130161442915,4.80056154057436,-302.509231849116
738548.48341860552318394184,4.47744682149724,4.68054750206,-302.509231849116
738548.48341869597788900137,4.41282387768181,4.57899716177862,-302.509231849116
738548.48341878631617873907,4.60669270912809,4.70824304940947,-302.509231849116
738548.48341887677088379860,4.51437421796319,4.67131565294351,-302.509231849116
738548.48341896722558885813,4.46821497238075,4.60669270912809,-302.509231849116
738548.48341905768029391766,4.47744682149724,4.66208380382702,-302.509231849116
738548.48341914813499897718,4.49591051973022,4.65285195471053,-302.509231849116
738548.48341923858970403671,4.70824304940947,4.82825708792383,-302.509231849116
738548.48341932904440909624,4.92980742820521,4.97596667378765,-302.509231849116
738548.48341941938269883394,4.83748893704032,4.78209784234138,-302.509231849116
738548.48341950983740389347,4.78209784234138,4.46821497238075,-302.509231849116
738548.48341960029210895300,5.01289407025361,4.55130161442915,-302.509231849116
738548.48341969074681401253,5.24369029816584,4.60669270912809,-302.509231849116
738548.48341978120151907206,5.21599475081637,4.66208380382702,-302.509231849116
738548.48341987165622413158,5.26215399639882,4.63438825647755,-302.509231849116
738548.48341996211092919111,5.15137180700095,4.58822901089511,-302.509231849116
738548.48342005244921892881,5.16983550523392,4.58822901089511,-302.509231849116
738548.48342014290392398834,5.33600878933073,4.7636341441084,-302.509231849116
738548.48342023335862904787,5.58526871547594,5.0221259193701,-302.509231849116
738548.48342032381333410740,4.92980742820521,4.40359202856532,-302.509231849116
738548.48342041426803916693,4.7636341441084,4.29280983916745,-302.509231849116
738548.48342050472274422646,4.86518448438978,4.40359202856532,-302.509231849116
738548.48342059517744928598,4.85595263527329,4.47744682149724,-302.509231849116
738548.48342068551573902369,4.92057557908872,4.48667867061373,-302.509231849116
738548.48342077597044408321,4.9390392773217,4.54206976531266,-302.509231849116
738548.48342086642514914274,4.97596667378765,4.52360606707968,-302.509231849116
738548.48342095687985420227,5.04982146671956,4.50514236884671,-302.509231849116
738548.48342104733455926180,5.15137180700095,4.54206976531266,-302.509231849116
738548.48342113778926432133,5.43755912961211,4.83748893704032,-302.509231849116
738548.48342122824396938086,5.72374645222327,4.83748893704032,-302.509231849116
738548.48342131858225911856,6.5546128727073,5.41909543137913,-302.509231849116
738548.48342140903696417809,7.20084231086154,5.37293618579669,-302.509231849116
738548.48342149949166923761,6.5546128727073,4.63438825647755,-302.509231849116
738548.48342158994637429714,5.38216803491317,3.88660847804193,-302.509231849116
738548.48342168040107935667,5.16060365611744,4.07124546037172,-302.509231849116
738548.48342177085578441620,5.60373241370891,4.29280983916745,-302.509231849116
738548.48342186131048947573,5.86222418897061,4.45898312326426,-302.509231849116
738548.48342195176519453526,5.8714560380871,4.57899716177862,-302.509231849116
738548.48342204210348427296,5.84376049073763,4.60669270912809,-302.509231849116
738548.48342213255818933249,5.86222418897061,4.60669270912809,-302.509231849116
738548.48342222301289439201,6.0376293221839,4.72670674764244,-302.509231849116
738548.48342231346759945154,6.20380260628071,4.8467207861568,-302.509231849116
738548.48342240392230451107,6.0376293221839,4.61592455824457,-302.509231849116
738548.48342249437700957060,5.94531083101901,4.44975127414777,-302.509231849116
738548.48342258483171463013,6.30535294656209,4.68054750206,-302.509231849116
738548.48342267517000436783,6.59154026917325,4.92980742820521,-302.509231849116
738548.48342276562470942736,6.20380260628071,4.44975127414777,-302.509231849116
738548.48342285607941448689,6.36997589037751,4.63438825647755,-302.509231849116
738548.48342294653411954641,6.91465498825037,5.20676290169988,-302.509231849116
738548.48342303698882460594,6.00993377483444,4.39436017944884,-302.509231849116
738548.48342312744352966547,5.96377452925199,4.44975127414777,-302.509231849116
738548.48342321789823472500,6.18533890804773,4.68054750206,-302.509231849116
738548.48342330823652446270,6.2130344553972,4.7636341441084,-302.509231849116
738548.48342339869122952223,6.19457075716422,4.80056154057436,-302.509231849116
738548.48342348914593458176,6.17610705893124,4.81902523880734,-302.509231849116
738548.48342357960063964128,6.35151219214454,4.94827112643818,-302.509231849116
738548.48342367005534470081,6.24073000274667,4.87441633350627,-302.509231849116
738548.48342376051004976034,6.30535294656209,4.90211188085574,-302.509231849116
738548.48342385096475481987,6.60077211828974,5.1052125614185,-302.509231849116
738548.48342394130304455757,6.52691732535783,4.81902523880734,-302.509231849116
738548.48342403175774961710,6.79464094973601,4.95750297555467,-302.509231849116
738548.48342412221245467663,7.02543717764824,4.98519852290414,-302.509231849116
738548.48342421266715973616,7.19161046174505,5.07751701406903,-302.509231849116
738548.48342430312186479568,7.46856593523972,5.14213995788446,-302.509231849116
738548.48342439357656985521,7.88399914548173,5.37293618579669,-302.509231849116
738548.48342448403127491474,8.35482345042268,5.76067384868923,-302.509231849116
738548.48342457436956465244,6.61923581652272,3.97892696920682,-302.509231849116
738548.48342466482426971197,6.85003204443495,4.3389690847499,-302.509231849116
738548.48342475527897477150,6.95158238471633,4.55130161442915,-302.509231849116
738548.48342484573367983103,6.87772759178442,4.58822901089511,-302.509231849116
738548.48342493618838489056,6.87772759178442,4.56976531266213,-302.509231849116
738548.48342502664308995008,6.91465498825037,4.61592455824457,-302.509231849116
738548.48342511709779500961,7.08082827234718,4.68054750206,-302.509231849116
738548.48342520743608474731,7.21930600909452,4.73593859675893,-302.509231849116
738548.48342529789078980684,7.36701559495834,4.71747489852596,-302.509231849116
738548.48342538834549486637,7.49626148258919,4.71747489852596,-302.509231849116
738548.48342547880019992590,7.47779778435621,4.77286599322489,-302.509231849116
738548.48342556925490498543,7.47779778435621,4.74517044587542,-302.509231849116
738548.48342565970961004496,7.39471114230781,4.63438825647755,-302.509231849116
738548.48342575016431510448,7.35778374584185,4.62515640736106,-302.509231849116
738548.48342584061902016401,7.30239265114292,4.58822901089511,-302.509231849116
738548.48342593095730990171,7.17314676351207,4.62515640736106,-302.509231849116
738548.48342602141201496124,7.44087038789026,5.0221259193701,-302.509231849116
738548.48342611186672002077,7.33008819849239,5.00366222113712,-302.509231849116
738548.48342620232142508030,6.61923581652272,4.37589648121586,-302.509231849116
738548.48342629277613013983,6.76694540238655,4.44975127414777,-302.509231849116
738548.48342638323083519936,6.95158238471633,4.54206976531266,-302.509231849116
738548.48342647368554025888,7.228537858211,4.5974608600116,-302.509231849116
738548.48342656402382999659,7.35778374584185,4.61592455824457,-302.509231849116
738548.48342665447853505611,7.4870296334727,4.5974608600116,-302.509231849116
738548.48342674493324011564,7.58857997375408,4.64362010559404,-302.509231849116
738548.48342683538794517517,7.66243476668599,4.68054750206,-302.509231849116
738548.48342692584265023470,8.13325907162694,5.21599475081637,-302.509231849116
738548.48342701629735529423,7.18237861262856,4.28357799005097,-302.509231849116
738548.48342710675206035376,7.04390087588122,4.32973723563341,-302.509231849116
738548.48342719709035009146,7.03466902676473,4.46821497238075,-302.509231849116
738548.48342728754505515099,6.81310464796899,4.50514236884671,-302.509231849116
738548.48342737799976021051,6.6376995147557,4.49591051973022,-302.509231849116
738548.48342746845446527004,6.50845362712485,4.56976531266213,-302.509231849116
738548.48342755890917032957,6.45306253242592,4.58822901089511,-302.509231849116
738548.48342764936387538910,6.39767143772698,4.58822901089511,-302.509231849116
738548.48342773981858044863,6.42536698507645,4.51437421796319,-302.509231849116
738548.48342783015687018633,6.60077211828974,4.61592455824457,-302.509231849116
738548.48342792061157524586,6.79464094973601,4.60669270912809,-302.509231849116
738548.48342801106628030539,6.93311868648335,4.64362010559404,-302.509231849116
738548.48342810152098536491,7.228537858211,4.75440229499191,-302.509231849116
738548.48342819197569042444,6.95158238471633,4.28357799005097,-302.509231849116
738548.48342828243039548397,7.09006012146367,4.4220557267983,-302.509231849116
738548.48342837288510054350,7.08082827234718,4.44051942503128,-302.509231849116
738548.48342846322339028120,6.98850978118229,4.57899716177862,-302.509231849116
738548.48342855367809534073,6.52691732535783,4.41282387768181,-302.509231849116
738548.48342864413280040026,6.39767143772698,4.51437421796319,-302.509231849116
738548.48342873458750545979,6.31458479567858,4.51437421796319,-302.509231849116
738548.48342882504221051931,6.30535294656209,4.55130161442915,-302.509231849116
738548.48342891549691557884,6.2961210974456,4.56976531266213,-302.509231849116
738548.48342900595162063837,6.81310464796899,5.09598071230201,-302.509231849116
738548.48342909628991037607,6.19457075716422,4.41282387768181,-302.509231849116
738548.48342918674461543560,6.01916562395093,4.26511429181799,-302.509231849116
738548.48342927719932049513,6.31458479567858,4.60669270912809,-302.509231849116
738548.48342936765402555466,6.85926389355144,4.83748893704032,-302.509231849116
738548.48342945810873061419,7.64397106845302,5.20676290169988,-302.509231849116
738548.48342954856343567371,8.40098269600513,5.14213995788446,-302.509231849116
738548.48342963901814073324,7.64397106845302,4.65285195471053,-302.509231849116
738548.48342972935643047094,6.77617725150304,4.18202764976959,-302.509231849116
738548.48342981981113553047,6.53614917447432,4.19125949888607,-302.509231849116
738548.48342991026584059000,6.70232245857112,4.36666463209937,-302.509231849116
738548.48343000072054564953,6.90542313913388,4.50514236884671,-302.509231849116
738548.48343009117525070906,6.78540910061953,4.55130161442915,-302.509231849116
738548.48343018162995576859,6.65616321298868,4.58822901089511,-302.509231849116
738548.48343027208466082811,6.67462691122166,4.68977935117649,-302.509231849116
738548.48343036253936588764,6.48998992889187,4.57899716177862,-302.509231849116
738548.48343045287765562534,6.61000396740623,4.80056154057436,-302.509231849116
738548.48343054333236068487,7.1454512161626,5.37293618579669,-302.509231849116
738548.48343063378706574440,5.92684713278603,4.22818689535203,-302.509231849116
738548.48343072424177080393,6.07455671864986,4.37589648121586,-302.509231849116
738548.48343081469647586346,6.23149815363018,4.57899716177862,-302.509231849116
738548.48343090515118092299,6.34228034302805,4.60669270912809,-302.509231849116
738548.48343099560588598251,6.34228034302805,4.69901120029298,-302.509231849116
738548.48343108594417572021,6.24996185186316,4.63438825647755,-302.509231849116
738548.48343117639888077974,6.30535294656209,4.68054750206,-302.509231849116
738548.48343126685358583927,6.22226630451369,4.67131565294351,-302.509231849116
738548.48343135730829089880,6.1299478133488,4.75440229499191,-302.509231849116
738548.48343144776299595833,5.98223822748497,4.80056154057436,-302.509231849116
738548.48343153821770101786,5.84376049073763,4.86518448438978,-302.509231849116
738548.48343162867240607738,5.84376049073763,4.92980742820521,-302.509231849116
738548.48343171901069581509,5.86222418897061,4.96673482467116,-302.509231849116
738548.48343180946540087461,5.89915158543657,5.05905331583605,-302.509231849116
738548.48343189992010593414,6.36997589037751,5.3637043366802,-302.509231849116
738548.48343199037481099367,6.17610705893124,5.13290810876797,-302.509231849116
738548.48343208082951605320,5.60373241370891,4.70824304940947,-302.509231849116
738548.48343217128422111273,5.75144199957274,5.04058961760308,-302.509231849116
738548.48343226173892617226,5.6129642628254,4.97596667378765,-302.509231849116
738548.48343235207721590996,5.46525467696158,4.97596667378765,-302.509231849116
738548.48343244253192096949,5.32677694021424,4.92980742820521,-302.509231849116
738548.48343253298662602901,5.17906735435041,4.91134372997223,-302.509231849116
738548.48343262344133108854,5.09598071230201,4.83748893704032,-302.509231849116
738548.48343271389603614807,5.1052125614185,4.83748893704032,-302.509231849116
738548.48343280435074120760,5.16983550523392,4.79132969145787,-302.509231849116
738548.48343289480544626713,5.25292214728233,4.79132969145787,-302.509231849116
738548.48343298514373600483,5.45602282784509,4.71747489852596,-302.509231849116
738548.48343307559844106436,5.47448652607807,4.72670674764244,-302.509231849116
738548.48343316605314612389,5.55757316812647,4.68977935117649,-302.509231849116
738548.48343325650785118341,5.60373241370891,4.65285195471053,-302.509231849116
738548.48343334696255624294,5.54834131900998,4.5974608600116,-302.509231849116
738548.48343343741726130247,5.45602282784509,4.54206976531266,-302.509231849116
738548.48343352787196636200,5.37293618579669,4.51437421796319,-302.509231849116
738548.48343361821025609970,5.23445844904935,4.46821497238075,-302.509231849116
738548.48343370866496115923,5.17906735435041,4.54206976531266,-302.509231849116
738548.48343379911966621876,5.19753105258339,4.64362010559404,-302.509231849116
738548.48343388957437127829,5.32677694021424,4.74517044587542,-302.509231849116
738548.48343398002907633781,5.21599475081637,4.52360606707968,-302.509231849116
738548.48343407048378139734,5.38216803491317,4.51437421796319,-302.509231849116
738548.48343416093848645687,5.55757316812647,4.52360606707968,-302.509231849116
738548.48343425127677619457,5.73297830133976,4.5974608600116,-302.509231849116
738548.48343434173148125410,5.86222418897061,4.61592455824457,-302.509231849116
738548.48343443218618631363,5.94531083101901,4.62515640736106,-302.509231849116
738548.48343452264089137316,5.7883693960387,4.60669270912809,-302.509231849116
738548.48343461309559643269,5.76067384868923,4.61592455824457,-302.509231849116
738548.48343470355030149221,5.73297830133976,4.5974608600116,-302.509231849116
738548.48343479400500655174,5.67758720664083,4.5974608600116,-302.509231849116
738548.48343488445971161127,5.67758720664083,4.49591051973022,-302.509231849116
738548.48343497479800134897,5.77913754692221,4.56976531266213,-302.509231849116
738548.48343506525270640850,6.00070192571795,4.72670674764244,-302.509231849116
738548.48343515570741146803,6.23149815363018,4.8467207861568,-302.509231849116
738548.48343524616211652756,6.04686117130039,4.52360606707968,-302.509231849116
738548.48343533661682158709,6.02839747306742,4.46821497238075,-302.509231849116
738548.48343542707152664661,6.08378856776635,4.51437421796319,-302.509231849116
738548.48343551752623170614,6.19457075716422,4.5974608600116,-302.509231849116
738548.48343560786452144384,6.18533890804773,4.63438825647755,-302.509231849116
738548.48343569831922650337,6.20380260628071,4.61592455824457,-302.509231849116
738548.48343578877393156290,6.18533890804773,4.63438825647755,-302.509231849116
738548.48343587922863662243,6.25919370097964,4.68977935117649,-302.509231849116
738548.48343596968334168196,6.28688924832911,4.71747489852596,-302.509231849116
738548.48343606013804674149,6.22226630451369,4.67131565294351,-302.509231849116
738548.48343615059275180101,6.30535294656209,4.7636341441084,-302.509231849116
738548.48343624093104153872,6.28688924832911,4.69901120029298,-302.509231849116
738548.48343633138574659824,6.49922177800836,4.80056154057436,-302.509231849116
738548.48343642184045165777,6.36074404126102,4.61592455824457,-302.509231849116
738548.48343651229515671730,6.48075807977538,4.56976531266213,-302.509231849116
738548.48343660274986177683,6.58230842005676,4.5974608600116,-302.509231849116
738548.48343669320456683636,6.60077211828974,4.56053346354564,-302.509231849116
738548.48343678365927189589,6.64693136387219,4.58822901089511,-302.509231849116
738548.48343687399756163359,6.62846766563921,4.56976531266213,-302.509231849116
738548.48343696445226669312,6.6376995147557,4.60669270912809,-302.509231849116
738548.48343705490697175264,6.64693136387219,4.58822901089511,-302.509231849116
738548.48343714536167681217,6.67462691122166,4.61592455824457,-302.509231849116
738548.48343723581638187170,6.73001800592059,4.64362010559404,-302.509231849116
738548.48343732627108693123,6.78540910061953,4.73593859675893,-302.509231849116
738548.48343741672579199076,7.24700155644398,4.92057557908872,-302.509231849116
738548.48343750706408172846,7.9947813348796,5.28061769463179,-302.509231849116
738548.48343759751878678799,9.03798028504288,5.40986358226264,-302.509231849116
738548.48343768797349184752,8.4194463942381,4.80056154057436,-302.509231849116
738548.48343777842819690704,7.1454512161626,4.23741874446852,-302.509231849116
738548.48343786888290196657,6.64693136387219,4.06201361125523,-302.509231849116
738548.48343795933760702610,6.93311868648335,4.27434614093448,-302.509231849116
738548.48343804979231208563,7.01620532853175,4.4220557267983,-302.509231849116
738548.48343814013060182333,6.89619129001739,4.50514236884671,-302.509231849116
738548.48343823058530688286,6.87772759178442,4.56053346354564,-302.509231849116
738548.48343832104001194239,6.84080019531846,4.63438825647755,-302.509231849116
738548.48343841149471700191,6.76694540238655,4.64362010559404,-302.509231849116
738548.48343850194942206144,6.70232245857112,4.68977935117649,-302.509231849116
738548.48343859240412712097,6.77617725150304,4.69901120029298,-302.509231849116
738548.48343868285883218050,6.78540910061953,4.73593859675893,-302.509231849116
738548.48343877319712191820,6.82233649708548,4.70824304940947,-302.509231849116
738548.48343886365182697773,6.84080019531846,4.69901120029298,-302.509231849116
738548.48343895410653203726,6.89619129001739,4.65285195471053,-302.509231849116
738548.48343904456123709679,6.92388683736686,4.66208380382702,-302.509231849116
738548.48343913501594215631,6.94235053559984,4.67131565294351,-302.509231849116
738548.48343922547064721584,6.94235053559984,4.64362010559404,-302.509231849116
738548.48343931592535227537,6.95158238471633,4.77286599322489,-302.509231849116
738548.48343940638005733490,6.97004608294931,4.82825708792383,-302.509231849116
738548.48343949671834707260,6.96081423383282,4.87441633350627,-302.509231849116
738548.48343958717305213213,7.09006012146367,4.89288003173925,-302.509231849116
738548.48343967762775719166,7.36701559495834,4.99443037202063,-302.509231849116
738548.48343976808246225119,7.95785393841365,5.16060365611744,-302.509231849116
738548.48343985853716731071,8.55792413098544,5.2713858455153,-302.509231849116
738548.48343994899187237024,8.73332926419874,4.97596667378765,-302.509231849116
738548.48344003944657742977,8.83487960448012,4.92980742820521,-302.509231849116
738548.48344012978486716747,8.78872035889767,4.98519852290414,-302.509231849116
738548.48344022023957222700,8.35482345042268,4.98519852290414,-302.509231849116
738548.48344031069427728653,7.7455214087344,4.90211188085574,-302.509231849116
738548.48344040114898234606,7.12698751792962,4.85595263527329,-302.509231849116
738548.48344049160368740559,6.68385876033815,4.80056154057436,-302.509231849116
738548.48344058205839246511,6.38843958861049,4.77286599322489,-302.509231849116
738548.48344067251309752464,6.31458479567858,4.75440229499191,-302.509231849116
738548.48344076285138726234,6.31458479567858,4.73593859675893,-302.509231849116
738548.48344085330609232187,6.36997589037751,4.68977935117649,-302.509231849116
738548.48344094376079738140,6.58230842005676,4.7636341441084,-302.509231849116
738548.48344103421550244093,6.7207861568041,4.8467207861568,-302.509231849116
738548.48344112467020750046,7.11775566881313,4.97596667378765,-302.509231849116
738548.48344121512491255999,7.08082827234718,4.66208380382702,-302.509231849116
738548.48344130557961761951,7.25623340556047,4.50514236884671,-302.509231849116
738548.48344139591790735722,7.58857997375408,4.65285195471053,-302.509231849116
738548.48344148637261241674,7.81014435254982,4.68977935117649,-302.509231849116
738548.48344157682731747627,7.75475325785089,4.60669270912809,-302.509231849116
738548.48344166728202253580,7.78244880520035,4.60669270912809,-302.509231849116
738548.48344175773672759533,7.79168065431684,4.66208380382702,-302.509231849116
738548.48344184819143265486,7.77321695608386,4.63438825647755,-302.509231849116
738548.48344193864613771439,7.79168065431684,4.64362010559404,-302.509231849116
738548.48344202898442745209,7.85630359813227,4.65285195471053,-302.509231849116
738548.48344211943913251162,7.86553544724876,4.67131565294351,-302.509231849116
738548.48344220989383757114,7.79168065431684,4.62515640736106,-302.509231849116
738548.48344230034854263067,7.7455214087344,4.63438825647755,-302.509231849116
738548.48344239080324769020,7.66243476668599,4.66208380382702,-302.509231849116
738548.48344248125795274973,7.57934812463759,4.68054750206,-302.509231849116
738548.48344257171265780926,7.39471114230781,4.66208380382702,-302.509231849116
738548.48344266205094754696,7.35778374584185,4.74517044587542,-302.509231849116
738548.48344275250565260649,7.26546525467696,4.79132969145787,-302.509231849116
738548.48344284296035766602,7.1454512161626,4.68977935117649,-302.509231849116
738548.48344293341506272554,7.04390087588122,4.67131565294351,-302.509231849116
738548.48344302386976778507,7.12698751792962,4.81902523880734,-302.509231849116
738548.48344311432447284460,7.08082827234718,4.83748893704032,-302.509231849116
738548.48344320477917790413,6.69309060945463,4.52360606707968,-302.509231849116
738548.48344329511746764183,6.59154026917325,4.52360606707968,-302.509231849116
738548.48344338557217270136,6.59154026917325,4.57899716177862,-302.509231849116
738548.48344347602687776089,6.49922177800836,4.60669270912809,-302.509231849116
738548.48344356648158282042,6.36997589037751,4.61592455824457,-302.509231849116
738548.48344365693628787994,6.35151219214454,4.67131565294351,-302.509231849116
738548.48344374739099293947,6.33304849391156,4.68054750206,-302.509231849116
738548.48344383784569799900,6.26842555009613,4.63438825647755,-302.509231849116
738548.48344392830040305853,6.26842555009613,4.72670674764244,-302.509231849116
738548.48344401863869279623,6.35151219214454,4.78209784234138,-302.509231849116
738548.48344410909339785576,6.17610705893124,4.61592455824457,-302.509231849116
738548.48344419954810291529,6.09302041688284,4.47744682149724,-302.509231849116
738548.48344429000280797482,6.09302041688284,4.54206976531266,-302.509231849116
738548.48344438045751303434,6.11148411511582,4.5974608600116,-302.509231849116
738548.48344447091221809387,6.09302041688284,4.62515640736106,-302.509231849116
738548.48344456136692315340,6.11148411511582,4.60669270912809,-302.509231849116
738548.48344465170521289110,6.07455671864986,4.60669270912809,-302.509231849116
738548.48344474215991795063,6.05609302041688,4.58822901089511,-302.509231849116
738548.48344483261462301016,6.10225226599933,4.62515640736106,-302.509231849116
738548.48344492306932806969,6.10225226599933,4.64362010559404,-302.509231849116
738548.48344501352403312922,6.48075807977538,5.03135776848659,-302.509231849116
738548.48344510397873818874,6.00070192571795,4.65285195471053,-302.509231849116
738548.48344519443344324827,6.13917966246528,4.63438825647755,-302.509231849116
738548.48344528477173298597,6.95158238471633,5.20676290169988,-302.509231849116
738548.48344537522643804550,7.75475325785089,5.2713858455153,-302.509231849116
738548.48344546568114310503,7.31162450025941,4.77286599322489,-302.509231849116
738548.48344555613584816456,6.23149815363018,4.29280983916745,-302.509231849116
738548.48344564659055322409,5.92684713278603,4.22818689535203,-302.509231849116
738548.48344573704525828362,6.39767143772698,4.39436017944884,-302.509231849116
738548.48344582749996334314,6.54538102359081,4.55130161442915,-302.509231849116
738548.48344591783825308084,6.48998992889187,4.61592455824457,-302.509231849116
738548.48344600829295814037,6.47152623065889,4.71747489852596,-302.509231849116
738548.48344609874766319990,6.47152623065889,4.71747489852596,-302.509231849116
738548.48344618920236825943,6.44383068330943,4.74517044587542,-302.509231849116
738548.48344627965707331896,6.44383068330943,4.74517044587542,-302.509231849116
738548.48344637011177837849,6.44383068330943,4.7636341441084,-302.509231849116
738548.48344646056648343801,6.47152623065889,4.75440229499191,-302.509231849116
738548.48344655090477317572,6.50845362712485,4.78209784234138,-302.509231849116
738548.48344664135947823524,6.52691732535783,4.80056154057436,-302.509231849116
738548.48344673181418329477,6.53614917447432,4.78209784234138,-302.509231849116
738548.48344682226888835430,6.54538102359081,4.81902523880734,-302.509231849116
738548.48344691272359341383,6.56384472182379,4.81902523880734,-302.509231849116
738548.48344700317829847336,6.75771355327006,5.06828516495254,-302.509231849116
738548.48344709363300353289,6.74848170415357,5.0221259193701,-302.509231849116
738548.48344718397129327059,6.47152623065889,4.77286599322489,-302.509231849116
738548.48344727442599833012,6.6376995147557,4.90211188085574,-302.509231849116
738548.48344736488070338964,6.57307657094027,4.87441633350627,-302.509231849116
738548.48344745533540844917,6.61923581652272,4.89288003173925,-302.509231849116
738548.48344754579011350870,6.74848170415357,5.03135776848659,-302.509231849116
738548.48344763624481856823,6.78540910061953,5.06828516495254,-302.509231849116
738548.48344772669952362776,6.8038727988525,5.1052125614185,-302.509231849116
738548.48344781715422868729,6.78540910061953,5.09598071230201,-302.509231849116
738548.48344790749251842499,6.78540910061953,5.11444441053499,-302.509231849116
738548.48344799794722348452,6.74848170415357,5.07751701406903,-302.509231849116
738548.48344808840192854404,6.71155430768761,5.04058961760308,-302.509231849116
738548.48344817885663360357,6.66539506210517,4.99443037202063,-302.509231849116
738548.48344826931133866310,6.60077211828974,4.91134372997223,-302.509231849116
738548.48344835976604372263,6.60077211828974,4.91134372997223,-302.509231849116
738548.48344845022074878216,6.8038727988525,5.1052125614185,-302.509231849116
738548.48344854055903851986,6.70232245857112,5.00366222113712,-302.509231849116
738548.48344863101374357939,6.2130344553972,4.44975127414777,-302.509231849116
738548.48344872146844863892,6.36997589037751,4.5974608600116,-302.509231849116
738548.48344881192315369844,6.43459883419294,4.61592455824457,-302.509231849116
738548.48344890237785875797,6.48998992889187,4.68054750206,-302.509231849116
738548.48344899283256381750,6.52691732535783,4.67131565294351,-302.509231849116
738548.48344908328726887703,6.48998992889187,4.65285195471053,-302.509231849116
738548.48344917362555861473,6.52691732535783,4.67131565294351,-302.509231849116
738548.48344926408026367426,6.5546128727073,4.68054750206,-302.509231849116
738548.48344935453496873379,6.56384472182379,4.65285195471053,-302.509231849116
738548.48344944498967379332,6.62846766563921,4.67131565294351,-302.509231849116
738548.48344953544437885284,6.69309060945463,4.69901120029298,-302.509231849116
738548.48344962589908391237,6.71155430768761,4.68054750206,-302.509231849116
738548.48344971635378897190,6.7207861568041,4.68054750206,-302.509231849116
738548.48344980669207870960,6.73924985503708,4.68054750206,-302.509231849116
738548.48344989714678376913,6.68385876033815,4.68054750206,-302.509231849116
738548.48344998760148882866,6.73001800592059,4.68977935117649,-302.509231849116
738548.48345007805619388819,6.7207861568041,4.72670674764244,-302.509231849116
738548.48345016851089894772,6.66539506210517,4.66208380382702,-302.509231849116
738548.48345025896560400724,6.73001800592059,4.81902523880734,-302.509231849116
738548.48345034942030906677,6.84080019531846,4.9390392773217,-302.509231849116
738548.48345043975859880447,6.58230842005676,4.71747489852596,-302.509231849116
738548.48345053021330386400,6.40690328684347,4.62515640736106,-302.509231849116
738548.48345062066800892353,6.64693136387219,4.89288003173925,-302.509231849116
738548.48345071112271398306,6.4622943815424,4.71747489852596,-302.509231849116
738548.48345080157741904259,6.35151219214454,4.5974608600116,-302.509231849116
738548.48345089203212410212,6.49922177800836,4.70824304940947,-302.509231849116
738548.48345098248682916164,6.6376995147557,4.73593859675893,-302.509231849116
738548.48345107282511889935,6.6376995147557,4.72670674764244,-302.509231849116
738548.48345116327982395887,6.68385876033815,4.69901120029298,-302.509231849116
738548.48345125373452901840,6.85003204443495,4.8467207861568,-302.509231849116
738548.48345134418923407793,6.85003204443495,4.78209784234138,-302.509231849116
738548.48345143464393913746,7.37624744407483,5.40063173314615,-302.509231849116
738548.48345152509864419699,6.84080019531846,4.88364818262276,-302.509231849116
738548.48345161555334925652,6.23149815363018,4.39436017944884,-302.509231849116
738548.48345170589163899422,6.41613513595996,4.58822901089511,-302.509231849116
738548.48345179634634405375,6.44383068330943,4.68054750206,-302.509231849116
738548.48345188680104911327,6.42536698507645,4.67131565294351,-302.509231849116
738548.48345197725575417280,6.379207739494,4.68977935117649,-302.509231849116
738548.48345206771045923233,6.41613513595996,4.68054750206,-302.509231849116
738548.48345215816516429186,6.43459883419294,4.68054750206,-302.509231849116
738548.48345224861986935139,6.44383068330943,4.67131565294351,-302.509231849116
738548.48345233907457441092,6.49922177800836,4.64362010559404,-302.509231849116
738548.48345242941286414862,6.51768547624134,4.63438825647755,-302.509231849116
738548.48345251986756920815,6.56384472182379,4.63438825647755,-302.509231849116
738548.48345261032227426767,6.59154026917325,4.68977935117649,-302.509231849116
738548.48345270077697932720,6.68385876033815,4.81902523880734,-302.509231849116
738548.48345279123168438673,6.85926389355144,4.85595263527329,-302.509231849116
738548.48345288168638944626,7.54242072817164,5.28984954374828,-302.509231849116
738548.48345297214109450579,8.32712790307321,5.40986358226264,-302.509231849116
738548.48345306247938424349,7.93015839106418,4.85595263527329,-302.509231849116
738548.48345315293408930302,6.84080019531846,4.40359202856532,-302.509231849116
738548.48345324338879436255,6.48998992889187,4.2558824427015,-302.509231849116
738548.48345333384349942207,6.90542313913388,4.47744682149724,-302.509231849116
738548.48345342429820448160,7.05313272499771,4.62515640736106,-302.509231849116
738548.48345351475290954113,6.93311868648335,4.72670674764244,-302.509231849116
738548.48345360520761460066,6.79464094973601,4.7636341441084,-302.509231849116
738548.48345369554590433836,6.70232245857112,4.77286599322489,-302.509231849116
738548.48345378600060939789,6.60077211828974,4.77286599322489,-302.509231849116
738548.48345387645531445742,6.53614917447432,4.79132969145787,-302.509231849116
738548.48345396691001951694,6.50845362712485,4.80056154057436,-302.509231849116
738548.48345405736472457647,6.48998992889187,4.78209784234138,-302.509231849116
738548.48345414781942963600,6.50845362712485,4.8467207861568,-302.509231849116
738548.48345423827413469553,6.40690328684347,4.74517044587542,-302.509231849116
738548.48345432861242443323,6.36997589037751,4.80979338969085,-302.509231849116
738548.48345441906712949276,6.40690328684347,4.90211188085574,-302.509231849116
738548.48345450952183455229,6.30535294656209,4.88364818262276,-302.509231849116
738548.48345459997653961182,6.17610705893124,4.78209784234138,-302.509231849116
738548.48345469043124467134,6.2130344553972,4.8467207861568,-302.509231849116
738548.48345478088594973087,6.27765739921262,4.90211188085574,-302.509231849116
738548.48345487134065479040,6.35151219214454,4.96673482467116,-302.509231849116
738548.48345496167894452810,6.379207739494,4.95750297555467,-302.509231849116
738548.48345505213364958763,6.45306253242592,5.00366222113712,-302.509231849116
738548.48345514258835464716,6.51768547624134,5.03135776848659,-302.509231849116
738548.48345523304305970669,6.54538102359081,5.06828516495254,-302.509231849116
738548.48345532349776476622,6.58230842005676,5.08674886318552,-302.509231849116
738548.48345541395246982574,6.59154026917325,5.08674886318552,-302.509231849116
738548.48345550440717488527,6.61923581652272,5.1052125614185,-302.509231849116
738548.48345559474546462297,6.64693136387219,5.09598071230201,-302.509231849116
738548.48345568520016968250,6.61000396740623,5.07751701406903,-302.509231849116
738548.48345577565487474203,6.60077211828974,5.01289407025361,-302.509231849116
738548.48345586610957980156,6.57307657094027,5.00366222113712,-302.509231849116
738548.48345595656428486109,6.54538102359081,4.9390392773217,-302.509231849116
738548.48345604701898992062,6.53614917447432,4.89288003173925,-302.509231849116
738548.48345613747369498014,6.48998992889187,4.81902523880734,-302.509231849116
738548.48345622781198471785,6.4622943815424,4.79132969145787,-302.509231849116
738548.48345631826668977737,6.4622943815424,4.7636341441084,-302.509231849116
738548.48345640872139483690,6.4622943815424,4.75440229499191,-302.509231849116
738548.48345649917609989643,6.41613513595996,4.73593859675893,-302.509231849116
738548.48345658963080495596,6.42536698507645,4.72670674764244,-302.509231849116
738548.48345668008551001549,6.42536698507645,4.73593859675893,-302.509231849116
738548.48345677054021507502,6.4622943815424,4.74517044587542,-302.509231849116
738548.48345686099492013454,6.48075807977538,4.7636341441084,-302.509231849116
738548.48345695133320987225,6.48998992889187,4.74517044587542,-302.509231849116
738548.48345704178791493177,6.50845362712485,4.77286599322489,-302.509231849116
738548.48345713224261999130,6.54538102359081,4.73593859675893,-302.509231849116
738548.48345722269732505083,6.58230842005676,4.77286599322489,-302.509231849116
738548.48345731315203011036,6.62846766563921,4.77286599322489,-302.509231849116
738548.48345740360673516989,6.61000396740623,4.77286599322489,-302.509231849116
738548.48345749406144022942,6.61923581652272,4.7636341441084,-302.509231849116
738548.48345758439972996712,6.62846766563921,4.79132969145787,-302.509231849116
738548.48345767485443502665,6.62846766563921,4.78209784234138,-302.509231849116
738548.48345776530914008617,6.61923581652272,4.79132969145787,-302.509231849116
738548.48345785576384514570,6.60077211828974,4.82825708792383,-302.509231849116
738548.48345794621855020523,6.56384472182379,4.80056154057436,-302.509231849116
738548.48345803667325526476,6.49922177800836,4.82825708792383,-302.509231849116
738548.48345812712796032429,6.40690328684347,4.86518448438978,-302.509231849116
738548.48345821746625006199,6.36074404126102,4.8467207861568,-302.509231849116
738548.48345830792095512152,6.31458479567858,4.81902523880734,-302.509231849116
738548.48345839837566018105,6.26842555009613,4.83748893704032,-302.509231849116
738548.48345848883036524057,6.2961210974456,4.79132969145787,-302.509231849116
738548.48345857928507030010,6.24073000274667,4.79132969145787,-302.509231849116
738548.48345866973977535963,6.2961210974456,4.7636341441084,-302.509231849116
738548.48345876019448041916,6.38843958861049,4.8467207861568,-302.509231849116
738548.48345885053277015686,6.38843958861049,4.77286599322489,-302.509231849116
738548.48345894098747521639,6.36997589037751,4.78209784234138,-302.509231849116
738548.48345903144218027592,6.379207739494,4.75440229499191,-302.509231849116
738548.48345912189688533545,6.35151219214454,4.7636341441084,-302.509231849116
738548.48345921235159039497,6.36074404126102,4.70824304940947,-302.509231849116
738548.48345930280629545450,6.36997589037751,4.72670674764244,-302.509231849116
738548.48345939326100051403,6.36997589037751,4.68054750206,-302.509231849116
738548.48345948359929025173,6.38843958861049,4.71747489852596,-302.509231849116
738548.48345957405399531126,6.40690328684347,4.70824304940947,-302.509231849116
738548.48345966450870037079,6.42536698507645,4.71747489852596,-302.509231849116
738548.48345975496340543032,6.42536698507645,4.69901120029298,-302.509231849116
738548.48345984541811048985,6.44383068330943,4.66208380382702,-302.509231849116
738548.48345993587281554937,6.43459883419294,4.65285195471053,-302.509231849116
738548.48346002632752060890,6.43459883419294,4.62515640736106,-302.509231849116
738548.48346011666581034660,6.39767143772698,4.63438825647755,-302.509231849116
738548.48346020712051540613,6.38843958861049,4.73593859675893,-302.509231849116
738548.48346029757522046566,6.70232245857112,4.9390392773217,-302.509231849116
738548.48346038802992552519,7.29316080202643,5.33600878933073,-302.509231849116
738548.48346047848463058472,7.9116946928312,5.29908139286477,-302.509231849116
738548.48346056893933564425,7.26546525467696,4.68977935117649,-302.509231849116
738548.48346065939404070377,6.2130344553972,4.23741874446852,-302.509231849116
738548.48346074973233044147,5.9545426801355,4.1727958006531,-302.509231849116
738548.48346084018703550100,6.35151219214454,4.39436017944884,-302.509231849116
738548.48346093064174056053,6.57307657094027,4.5974608600116,-302.509231849116
738548.48346102109644562006,6.50845362712485,4.67131565294351,-302.509231849116
738548.48346111155115067959,6.4622943815424,4.71747489852596,-302.509231849116
738548.48346120200585573912,6.4622943815424,4.73593859675893,-302.509231849116
738548.48346129246056079865,6.40690328684347,4.73593859675893,-302.509231849116
738548.48346138291526585817,6.36997589037751,4.72670674764244,-302.509231849116
738548.48346147325355559587,6.36997589037751,4.7636341441084,-302.509231849116
738548.48346156370826065540,6.36074404126102,4.7636341441084,-302.509231849116
738548.48346165416296571493,6.40690328684347,4.88364818262276,-302.509231849116
738548.48346174461767077446,6.32381664479507,4.80056154057436,-302.509231849116
738548.48346183507237583399,6.26842555009613,4.80979338969085,-302.509231849116
738548.48346192552708089352,6.2130344553972,4.80056154057436,-302.509231849116
738548.48346201598178595304,6.33304849391156,4.94827112643818,-302.509231849116
738548.48346210632007569075,6.49922177800836,5.16060365611744,-302.509231849116
738548.48346219677478075027,6.00993377483444,4.65285195471053,-302.509231849116
738548.48346228722948580980,6.10225226599933,4.74517044587542,-302.509231849116
738548.48346237768419086933,6.2130344553972,4.83748893704032,-302.509231849116
738548.48346246813889592886,6.2961210974456,4.92057557908872,-302.509231849116
738548.48346255859360098839,6.48075807977538,5.04982146671956,-302.509231849116
738548.48346264904830604792,6.57307657094027,5.09598071230201,-302.509231849116
738548.48346273938659578562,6.70232245857112,5.11444441053499,-302.509231849116
738548.48346282984130084515,6.92388683736686,5.28061769463179,-302.509231849116
738548.48346292029600590467,7.18237861262856,5.40063173314615,-302.509231849116
738548.48346301075071096420,7.01620532853175,5.1882992034669,-302.509231849116
738548.48346310120541602373,6.85926389355144,4.9390392773217,-302.509231849116
738548.48346319166012108326,6.92388683736686,4.98519852290414,-302.509231849116
738548.48346328211482614279,6.9792779320658,4.98519852290414,-302.509231849116
738548.48346337245311588049,7.00697347941527,4.98519852290414,-302.509231849116
738548.48346346290782094002,7.02543717764824,4.96673482467116,-302.509231849116
738548.48346355336252599955,7.00697347941527,4.9390392773217,-302.509231849116
738548.48346364381723105907,7.00697347941527,4.90211188085574,-302.509231849116
738548.48346373427193611860,6.9792779320658,4.83748893704032,-302.509231849116
738548.48346382472664117813,6.95158238471633,4.80056154057436,-302.509231849116
738548.48346391518134623766,6.94235053559984,4.74517044587542,-302.509231849116
738548.48346400551963597536,6.92388683736686,4.70824304940947,-302.509231849116
738548.48346409597434103489,6.96081423383282,4.68054750206,-302.509231849116
738548.48346418642904609442,6.98850978118229,4.68977935117649,-302.509231849116
738548.48346427688375115395,7.00697347941527,4.63438825647755,-302.509231849116
738548.48346436733845621347,7.03466902676473,4.68054750206,-302.509231849116
738548.48346445779316127300,7.0623645741142,4.68054750206,-302.509231849116
738548.48346454824786633253,6.96081423383282,4.62515640736106,-302.509231849116
738548.48346463858615607023,6.91465498825037,4.58822901089511,-302.509231849116
738548.48346472904086112976,6.88695944090091,4.63438825647755,-302.509231849116
738548.48346481949556618929,6.85003204443495,4.65285195471053,-302.509231849116
738548.48346490995027124882,6.81310464796899,4.69901120029298,-302.509231849116
738548.48346500040497630835,6.74848170415357,4.68977935117649,-302.509231849116
738548.48346509085968136787,6.69309060945463,4.72670674764244,-302.509231849116
738548.48346518131438642740,6.69309060945463,4.7636341441084,-302.509231849116
738548.48346527165267616510,6.96081423383282,5.04982146671956,-302.509231849116
738548.48346536210738122463,6.79464094973601,4.92057557908872,-302.509231849116
738548.48346545256208628416,6.31458479567858,4.44051942503128,-302.509231849116
738548.48346554301679134369,6.379207739494,4.55130161442915,-302.509231849116
738548.48346563347149640322,6.43459883419294,4.58822901089511,-302.509231849116
738548.48346572392620146275,6.45306253242592,4.64362010559404,-302.509231849116
738548.48346581438090652227,6.41613513595996,4.61592455824457,-302.509231849116
738548.48346590483561158180,6.379207739494,4.65285195471053,-302.509231849116
738548.48346599517390131950,6.31458479567858,4.61592455824457,-302.509231849116
738548.48346608562860637903,6.25919370097964,4.63438825647755,-302.509231849116
738548.48346617608331143856,6.22226630451369,4.5974608600116,-302.509231849116
738548.48346626653801649809,6.25919370097964,4.65285195471053,-302.509231849116
738548.48346635699272155762,6.16687520981475,4.60669270912809,-302.509231849116
738548.48346644744742661715,6.31458479567858,4.75440229499191,-302.509231849116
738548.48346653790213167667,6.24996185186316,4.62515640736106,-302.509231849116
738548.48346662824042141438,6.27765739921262,4.68054750206,-302.509231849116
738548.48346671869512647390,6.2130344553972,4.64362010559404,-302.509231849116
738548.48346680914983153343,6.17610705893124,4.63438825647755,-302.509231849116
738548.48346689960453659296,6.16687520981475,4.62515640736106,-302.509231849116
738548.48346699005924165249,6.08378856776635,4.54206976531266,-302.509231849116
738548.48346708051394671202,6.08378856776635,4.55130161442915,-302.509231849116
738548.48346717096865177155,6.13917966246528,4.58822901089511,-302.509231849116
738548.48346726130694150925,6.15764336069826,4.64362010559404,-302.509231849116
738548.48346735176164656878,6.09302041688284,4.52360606707968,-302.509231849116
738548.48346744221635162830,6.12071596423231,4.55130161442915,-302.509231849116
738548.48346753267105668783,6.2130344553972,4.58822901089511,-302.509231849116
738548.48346762312576174736,6.26842555009613,4.62515640736106,-302.509231849116
738548.48346771358046680689,6.2961210974456,4.61592455824457,-302.509231849116
738548.48346780403517186642,6.33304849391156,4.64362010559404,-302.509231849116
738548.48346789437346160412,6.39767143772698,4.77286599322489,-302.509231849116
738548.48346798482816666365,6.52691732535783,4.88364818262276,-302.509231849116
738548.48346807528287172318,6.97004608294931,5.15137180700095,-302.509231849116
738548.48346816573757678270,7.69936216315195,5.40986358226264,-302.509231849116
738548.48346825619228184223,7.66243476668599,4.92057557908872,-302.509231849116
738548.48346834664698690176,6.57307657094027,4.32050538651692,-302.509231849116
738548.48346843710169196129,5.85299233985412,4.13586840418714,-302.509231849116
738548.48346852743998169899,6.14841151158177,4.31127353740043,-302.509231849116
738548.48346861789468675852,6.48075807977538,4.57899716177862,-302.509231849116
738548.48346870834939181805,6.42536698507645,4.64362010559404,-302.509231849116
738548.48346879880409687757,6.36997589037751,4.72670674764244,-302.509231849116
738548.48346888925880193710,6.36997589037751,4.73593859675893,-302.509231849116
738548.48346897971350699663,6.39767143772698,4.79132969145787,-302.509231849116
738548.48346907016821205616,6.36997589037751,4.79132969145787,-302.509231849116
738548.48346916050650179386,6.27765739921262,4.7636341441084,-302.509231849116
738548.48346925096120685339,6.40690328684347,4.9390392773217,-302.509231849116
738548.48346934141591191292,6.14841151158177,4.69901120029298,-302.509231849116
738548.48346943187061697245,6.01916562395093,4.62515640736106,-302.509231849116
738548.48346952232532203197,6.12071596423231,4.74517044587542,-302.509231849116
738548.48346961278002709150,6.17610705893124,4.83748893704032,-302.509231849116
738548.48346970323473215103,6.20380260628071,4.8467207861568,-302.509231849116
738548.48346979368943721056,6.22226630451369,4.88364818262276,-302.509231849116
738548.48346988402772694826,6.25919370097964,4.89288003173925,-302.509231849116
738548.48346997448243200779,6.2961210974456,4.94827112643818,-302.509231849116
738548.48347006493713706732,6.30535294656209,4.91134372997223,-302.509231849116
738548.48347015539184212685,6.36997589037751,4.98519852290414,-302.509231849116
738548.48347024584654718637,6.56384472182379,5.17906735435041,-302.509231849116
738548.48347033630125224590,6.43459883419294,5.08674886318552,-302.509231849116
738548.48347042675595730543,6.2961210974456,4.9390392773217,-302.509231849116
738548.48347051709424704313,6.22226630451369,4.91134372997223,-302.509231849116
738548.48347060754895210266,6.31458479567858,4.95750297555467,-302.509231849116
738548.48347069800365716219,6.40690328684347,5.00366222113712,-302.509231849116
738548.48347078845836222172,6.42536698507645,5.0221259193701,-302.509231849116
738548.48347087891306728125,6.47152623065889,5.00366222113712,-302.509231849116
738548.48347096936777234077,6.50845362712485,5.01289407025361,-302.509231849116
738548.48347105982247740030,6.57307657094027,5.06828516495254,-302.509231849116
738548.48347115016076713800,6.74848170415357,5.2713858455153,-302.509231849116
738548.48347124061547219753,6.73001800592059,5.23445844904935,-302.509231849116
738548.48347133107017725706,6.2130344553972,4.72670674764244,-302.509231849116
738548.48347142152488231659,6.08378856776635,4.61592455824457,-302.509231849116
738548.48347151197958737612,6.10225226599933,4.69901120029298,-302.509231849116
738548.48347160243429243565,6.09302041688284,4.69901120029298,-302.509231849116
738548.48347169288899749517,6.04686117130039,4.73593859675893,-302.509231849116
738548.48347178322728723288,6.00993377483444,4.70824304940947,-302.509231849116
738548.48347187368199229240,5.96377452925199,4.68054750206,-302.509231849116
738548.48347196413669735193,5.93607898190252,4.61592455824457,-302.509231849116
738548.48347205459140241146,5.88991973632008,4.5974608600116,-302.509231849116
738548.48347214504610747099,5.89915158543657,4.68054750206,-302.509231849116
738548.48347223550081253052,5.85299233985412,4.71747489852596,-302.509231849116
738548.48347232595551759005,5.9545426801355,4.79132969145787,-302.509231849116
738548.48347241629380732775,6.08378856776635,4.89288003173925,-302.509231849116
738548.48347250674851238728,5.82529679250465,4.57899716177862,-302.509231849116
738548.48347259720321744680,5.86222418897061,4.5974608600116,-302.509231849116
738548.48347268765792250633,5.93607898190252,4.67131565294351,-302.509231849116
738548.48347277811262756586,6.01916562395093,4.68977935117649,-302.509231849116
738548.48347286856733262539,6.0376293221839,4.68977935117649,-302.509231849116
738548.48347295902203768492,6.01916562395093,4.66208380382702,-302.509231849116
738548.48347304936032742262,5.97300637836848,4.74517044587542,-302.509231849116
738548.48347313981503248215,5.94531083101901,4.64362010559404,-302.509231849116
738548.48347323026973754168,5.9545426801355,4.68977935117649,-302.509231849116
738548.48347332072444260120,6.0376293221839,4.86518448438978,-302.509231849116
738548.48347341117914766073,6.12071596423231,4.97596667378765,-302.509231849116
738548.48347350163385272026,5.79760124515519,4.5974608600116,-302.509231849116
738548.48347359208855777979,5.75144199957274,4.56976531266213,-302.509231849116
738548.48347368242684751749,5.84376049073763,4.65285195471053,-302.509231849116
738548.48347377288155257702,5.90838343455306,4.69901120029298,-302.509231849116
738548.48347386333625763655,5.99147007660146,4.69901120029298,-302.509231849116
738548.48347395379096269608,6.07455671864986,4.72670674764244,-302.509231849116
738548.48347404424566775560,6.12071596423231,4.73593859675893,-302.509231849116
738548.48347413470037281513,6.10225226599933,4.72670674764244,-302.509231849116
738548.48347422515507787466,6.12071596423231,4.74517044587542,-302.509231849116
738548.48347431560978293419,6.16687520981475,4.75440229499191,-302.509231849116
738548.48347440594807267189,6.14841151158177,4.73593859675893,-302.509231849116
738548.48347449640277773142,6.16687520981475,4.77286599322489,-302.509231849116
738548.48347458685748279095,6.35151219214454,5.07751701406903,-302.509231849116
738548.48347467731218785048,5.83452864162114,4.54206976531266,-302.509231849116
738548.48347476776689291000,5.74221015045625,4.44051942503128,-302.509231849116
738548.48347485822159796953,5.8714560380871,4.57899716177862,-302.509231849116
738548.48347494867630302906,5.90838343455306,4.67131565294351,-302.509231849116
738548.48347503901459276676,5.90838343455306,4.65285195471053,-302.509231849116
738548.48347512946929782629,5.90838343455306,4.65285195471053,-302.509231849116
738548.48347521992400288582,5.89915158543657,4.63438825647755,-302.509231849116
738548.48347531037870794535,5.89915158543657,4.62515640736106,-302.509231849116
738548.48347540083341300488,5.8714560380871,4.62515640736106,-302.509231849116
738548.48347549128811806440,5.8714560380871,4.62515640736106,-302.509231849116
738548.48347558174282312393,5.84376049073763,4.62515640736106,-302.509231849116
738548.48347567208111286163,5.79760124515519,4.62515640736106,-302.509231849116
738548.48347576253581792116,5.89915158543657,4.74517044587542,-302.509231849116
738548.48347585299052298069,6.36997589037751,5.03135776848659,-302.509231849116
738548.48347594344522804022,7.09006012146367,5.37293618579669,-302.509231849116
738548.48347603389993309975,7.34855189672536,5.08674886318552,-302.509231849116
738548.48347612435463815928,6.36074404126102,4.55130161442915,-302.509231849116
738548.48347621480934321880,5.56680501724296,4.21895504623554,-302.509231849116
738548.48347630514763295650,5.6129642628254,4.31127353740043,-302.509231849116
738548.48347639560233801603,5.83452864162114,4.38512833033235,-302.509231849116
738548.48347648605704307556,6.10225226599933,4.54206976531266,-302.509231849116
738548.48347657651174813509,6.18533890804773,4.68054750206,-302.509231849116
738548.48347666696645319462,6.12071596423231,4.69901120029298,-302.509231849116
738548.48347675742115825415,6.02839747306742,4.67131565294351,-302.509231849116
738548.48347684787586331367,6.00993377483444,4.66208380382702,-302.509231849116
738548.48347693821415305138,6.00993377483444,4.68977935117649,-302.509231849116
738548.48347702866885811090,6.05609302041688,4.71747489852596,-302.509231849116
738548.48347711912356317043,6.07455671864986,4.74517044587542,-302.509231849116
738548.48347720957826822996,6.13917966246528,4.73593859675893,-302.509231849116
738548.48347730003297328949,6.16687520981475,4.7636341441084,-302.509231849116
738548.48347739048767834902,6.24073000274667,4.7636341441084,-302.509231849116
738548.48347748094238340855,6.36997589037751,4.87441633350627,-302.509231849116
738548.48347757128067314625,6.48998992889187,4.92980742820521,-302.509231849116
738548.48347766173537820578,6.34228034302805,4.79132969145787,-302.509231849116
738548.48347775219008326530,6.35151219214454,4.74517044587542,-302.509231849116
738548.48347784264478832483,6.38843958861049,4.79132969145787,-302.509231849116
738548.48347793309949338436,6.50845362712485,4.85595263527329,-302.509231849116
738548.48347802355419844389,6.58230842005676,4.92057557908872,-302.509231849116
738548.48347811400890350342,6.69309060945463,4.94827112643818,-302.509231849116
738548.48347820434719324112,6.77617725150304,4.98519852290414,-302.509231849116
738548.48347829480189830065,6.81310464796899,5.01289407025361,-302.509231849116
738548.48347838525660336018,6.87772759178442,5.01289407025361,-302.509231849116
738548.48347847571130841970,6.96081423383282,5.09598071230201,-302.509231849116
738548.48347856616601347923,6.96081423383282,5.05905331583605,-302.509231849116
738548.48347865662071853876,6.93311868648335,5.04058961760308,-302.509231849116
738548.48347874707542359829,6.95158238471633,5.04982146671956,-302.509231849116
738548.48347883753012865782,7.20084231086154,5.37293618579669,-302.509231849116
738548.48347892786841839552,6.85926389355144,4.92057557908872,-302.509231849116
738548.48347901832312345505,6.52691732535783,4.64362010559404,-302.509231849116
738548.48347910877782851458,6.65616321298868,4.77286599322489,-302.509231849116
738548.48347919923253357410,6.62846766563921,4.79132969145787,-302.509231849116
738548.48347928968723863363,6.59154026917325,4.73593859675893,-302.509231849116
738548.48347938014194369316,6.57307657094027,4.74517044587542,-302.509231849116
738548.48347947059664875269,6.58230842005676,4.72670674764244,-302.509231849116
738548.48347956093493849039,6.57307657094027,4.72670674764244,-302.509231849116
738548.48347965138964354992,6.56384472182379,4.72670674764244,-302.509231849116
738548.48347974184434860945,6.56384472182379,4.71747489852596,-302.509231849116
738548.48347983229905366898,6.59154026917325,4.70824304940947,-302.509231849116
738548.48347992275375872850,6.60077211828974,4.70824304940947,-302.509231849116
738548.48348001320846378803,6.61000396740623,4.69901120029298,-302.509231849116
738548.48348010366316884756,6.62846766563921,4.68977935117649,-302.509231849116
738548.48348019400145858526,6.69309060945463,4.7636341441084,-302.509231849116
738548.48348028445616364479,6.74848170415357,4.79132969145787,-302.509231849116
738548.48348037491086870432,6.71155430768761,4.7636341441084,-302.509231849116
738548.48348046536557376385,6.6376995147557,4.67131565294351,-302.509231849116
738548.48348055582027882338,6.53614917447432,4.62515640736106,-302.509231849116
738548.48348064627498388290,6.5546128727073,4.65285195471053,-302.509231849116
738548.48348073672968894243,6.5546128727073,4.72670674764244,-302.509231849116
738548.48348082706797868013,6.54538102359081,4.75440229499191,-302.509231849116
738548.48348091752268373966,6.44383068330943,4.68977935117649,-302.509231849116
738548.48348100797738879919,6.43459883419294,4.68977935117649,-302.509231849116
738548.48348109843209385872,6.43459883419294,4.70824304940947,-302.509231849116
738548.48348118888679891825,6.43459883419294,4.70824304940947,-302.509231849116
738548.48348127934150397778,6.4622943815424,4.71747489852596,-302.509231849116
738548.48348136979620903730,6.42536698507645,4.69901120029298,-302.509231849116
738548.48348146013449877501,6.42536698507645,4.68054750206,-302.509231849116
738548.48348155058920383453,6.42536698507645,4.69901120029298,-302.509231849116
738548.48348164104390889406,6.48998992889187,4.70824304940947,-302.509231849116
738548.48348173149861395359,6.50845362712485,4.72670674764244,-302.509231849116
738548.48348182195331901312,6.49922177800836,4.70824304940947,-302.509231849116
738548.48348191240802407265,6.73924985503708,4.96673482467116,-302.509231849116
738548.48348200286272913218,6.79464094973601,4.98519852290414,-302.509231849116
738548.48348209320101886988,6.49922177800836,4.65285195471053,-302.509231849116
738548.48348218365572392941,6.40690328684347,4.5974608600116,-302.509231849116
738548.48348227411042898893,6.44383068330943,4.68977935117649,-302.509231849116
738548.48348236456513404846,6.36074404126102,4.65285195471053,-302.509231849116
738548.48348245501983910799,6.35151219214454,4.62515640736106,-302.509231849116
738548.48348254547454416752,6.33304849391156,4.64362010559404,-302.509231849116
738548.48348263592924922705,6.32381664479507,4.65285195471053,-302.509231849116
738548.48348272626753896475,6.30535294656209,4.66208380382702,-302.509231849116
738548.48348281672224402428,6.33304849391156,4.65285195471053,-302.509231849116
738548.48348290717694908381,6.33304849391156,4.64362010559404,-302.509231849116
738548.48348299763165414333,6.31458479567858,4.5974608600116,-302.509231849116
738548.48348308808635920286,6.36074404126102,4.65285195471053,-302.509231849116
738548.48348317854106426239,6.43459883419294,4.67131565294351,-302.509231849116
738548.48348326899576932192,6.42536698507645,4.69901120029298,-302.509231849116
738548.48348335945047438145,6.42536698507645,4.68977935117649,-302.509231849116
738548.48348344978876411915,6.42536698507645,4.74517044587542,-302.509231849116
738548.48348354024346917868,6.90542313913388,4.99443037202063,-302.509231849116
738548.48348363069817423820,7.62550737022004,5.34524063844722,-302.509231849116
738548.48348372115287929773,8.03170873134556,5.11444441053499,-302.509231849116
738548.48348381160758435726,7.60704367198706,4.86518448438978,-302.509231849116
738548.48348390206228941679,6.4622943815424,4.38512833033235,-302.509231849116
738548.48348399251699447632,5.99147007660146,4.29280983916745,-302.509231849116
738548.48348408285528421402,6.379207739494,4.49591051973022,-302.509231849116
738548.48348417330998927355,6.56384472182379,4.5974608600116,-302.509231849116
738548.48348426376469433308,6.49922177800836,4.70824304940947,-302.509231849116
738548.48348435421939939260,6.66539506210517,4.99443037202063,-302.509231849116
738548.48348444467410445213,6.43459883419294,4.8467207861568,-302.509231849116
738548.48348453512880951166,6.18533890804773,4.60669270912809,-302.509231849116
738548.48348462558351457119,6.20380260628071,4.70824304940947,-302.509231849116
738548.48348471592180430889,6.28688924832911,4.74517044587542,-302.509231849116
738548.48348480637650936842,6.34228034302805,4.80979338969085,-302.509231849116
738548.48348489683121442795,6.379207739494,4.78209784234138,-302.509231849116
738548.48348498728591948748,6.41613513595996,4.80979338969085,-302.509231849116
738548.48348507774062454700,6.48075807977538,4.80979338969085,-302.509231849116
738548.48348516819532960653,6.50845362712485,4.83748893704032,-302.509231849116
738548.48348525865003466606,6.53614917447432,4.81902523880734,-302.509231849116
738548.48348534898832440376,6.5546128727073,4.87441633350627,-302.509231849116
738548.48348543944302946329,6.57307657094027,4.86518448438978,-302.509231849116
738548.48348552989773452282,6.60077211828974,4.92980742820521,-302.509231849116
738548.48348562035243958235,6.7207861568041,5.0221259193701,-302.509231849116
738548.48348571080714464188,6.82233649708548,5.09598071230201,-302.509231849116
738548.48348580126184970140,6.77617725150304,5.05905331583605,-302.509231849116
738548.48348589171655476093,6.65616321298868,4.86518448438978,-302.509231849116
738548.48348598205484449863,6.73001800592059,4.97596667378765,-302.509231849116
738548.48348607250954955816,6.85003204443495,5.04982146671956,-302.509231849116
738548.48348616296425461769,6.86849574266793,5.07751701406903,-302.509231849116
738548.48348625341895967722,6.88695944090091,5.06828516495254,-302.509231849116
738548.48348634387366473675,6.88695944090091,5.08674886318552,-302.509231849116
738548.48348643432836979628,6.87772759178442,5.04982146671956,-302.509231849116
738548.48348652478307485580,6.81310464796899,5.00366222113712,-302.509231849116
738548.48348661512136459351,6.74848170415357,4.92057557908872,-302.509231849116
738548.48348670557606965303,6.66539506210517,4.92980742820521,-302.509231849116
738548.48348679603077471256,6.58230842005676,4.88364818262276,-302.509231849116
738548.48348688648547977209,6.51768547624134,4.81902523880734,-302.509231849116
738548.48348697694018483162,6.53614917447432,4.88364818262276,-302.509231849116
738548.48348706739488989115,6.45306253242592,4.81902523880734,-302.509231849116
738548.48348715784959495068,6.56384472182379,4.94827112643818,-302.509231849116
738548.48348724818788468838,6.33304849391156,4.69901120029298,-302.509231849116
738548.48348733864258974791,6.20380260628071,4.58822901089511,-302.509231849116
738548.48348742909729480743,6.26842555009613,4.61592455824457,-302.509231849116
738548.48348751955199986696,6.32381664479507,4.69901120029298,-302.509231849116
738548.48348761000670492649,6.34228034302805,4.68054750206,-302.509231849116
738548.48348770046140998602,6.379207739494,4.71747489852596,-302.509231849116
738548.48348779091611504555,6.39767143772698,4.69901120029298,-302.509231849116
738548.48348788137082010508,6.41613513595996,4.71747489852596,-302.509231849116
738548.48348797170910984278,6.43459883419294,4.70824304940947,-302.509231849116
738548.48348806216381490231,6.43459883419294,4.70824304940947,-302.509231849116
738548.48348815261851996183,6.43459883419294,4.71747489852596,-302.509231849116
738548.48348824307322502136,6.43459883419294,4.72670674764244,-302.509231849116
738548.48348833352793008089,6.43459883419294,4.72670674764244,-302.509231849116
738548.48348842398263514042,6.43459883419294,4.70824304940947,-302.509231849116
738548.48348851443734019995,6.43459883419294,4.72670674764244,-302.509231849116
738548.48348860477562993765,6.4622943815424,4.73593859675893,-302.509231849116
738548.48348869523033499718,6.48998992889187,4.74517044587542,-302.509231849116
738548.48348878568504005671,6.51768547624134,4.72670674764244,-302.509231849116
738548.48348887613974511623,6.51768547624134,4.75440229499191,-302.509231849116
738548.48348896659445017576,6.51768547624134,4.72670674764244,-302.509231849116
738548.48348905704915523529,6.50845362712485,4.73593859675893,-302.509231849116
738548.48348914750386029482,6.53614917447432,4.75440229499191,-302.509231849116
738548.48348923784215003252,6.59154026917325,4.85595263527329,-302.509231849116
738548.48348932829685509205,6.54538102359081,4.79132969145787,-302.509231849116
738548.48348941875156015158,6.42536698507645,4.68054750206,-302.509231849116
738548.48348950920626521111,6.36997589037751,4.63438825647755,-302.509231849116
738548.48348959966097027063,6.48075807977538,4.70824304940947,-302.509231849116
738548.48348969011567533016,6.53614917447432,4.73593859675893,-302.509231849116
738548.48348978057038038969,6.49922177800836,4.72670674764244,-302.509231849116
738548.48348987090867012739,6.53614917447432,4.79132969145787,-302.509231849116
738548.48348996136337518692,6.5546128727073,4.77286599322489,-302.509231849116
738548.48349005181808024645,6.48998992889187,4.75440229499191,-302.509231849116
738548.48349014227278530598,6.41613513595996,4.71747489852596,-302.509231849116
738548.48349023272749036551,6.36074404126102,4.73593859675893,-302.509231849116
738548.48349032318219542503,6.31458479567858,4.68977935117649,-302.509231849116
738548.48349041363690048456,6.31458479567858,4.70824304940947,-302.509231849116
738548.48349050397519022226,6.33304849391156,4.68054750206,-302.509231849116
738548.48349059442989528179,6.28688924832911,4.65285195471053,-302.509231849116
738548.48349068488460034132,6.36997589037751,4.68054750206,-302.509231849116
738548.48349077533930540085,6.41613513595996,4.72670674764244,-302.509231849116
738548.48349086579401046038,6.35151219214454,4.61592455824457,-302.509231849116
738548.48349095624871551991,6.38843958861049,4.65285195471053,-302.509231849116
738548.48349104670342057943,6.42536698507645,4.66208380382702,-302.509231849116
738548.48349113704171031713,6.41613513595996,4.68054750206,-302.509231849116
738548.48349122749641537666,6.44383068330943,4.73593859675893,-302.509231849116
738548.48349131795112043619,6.4622943815424,4.80979338969085,-302.509231849116
738548.48349140840582549572,6.6376995147557,4.95750297555467,-302.509231849116
738548.48349149886053055525,7.09929197058016,5.15137180700095,-302.509231849116
738548.48349158931523561478,7.78244880520035,5.30831324198126,-302.509231849116
738548.48349167976994067430,7.79168065431684,4.91134372997223,-302.509231849116
738548.48349177022464573383,6.65616321298868,4.45898312326426,-302.509231849116
738548.48349186056293547153,6.05609302041688,4.26511429181799,-302.509231849116
738548.48349195101764053106,6.44383068330943,4.47744682149724,-302.509231849116
738548.48349204147234559059,6.75771355327006,4.62515640736106,-302.509231849116
738548.48349213192705065012,6.73001800592059,4.75440229499191,-302.509231849116
738548.48349222238175570965,6.70232245857112,4.80056154057436,-302.509231849116
738548.48349231283646076918,6.71155430768761,4.8467207861568,-302.509231849116
738548.48349240329116582870,6.99774163029878,5.13290810876797,-302.509231849116
738548.48349249362945556641,6.54538102359081,4.72670674764244,-302.509231849116
738548.48349258408416062593,6.41613513595996,4.5974608600116,-302.509231849116
738548.48349267453886568546,6.53614917447432,4.71747489852596,-302.509231849116
738548.48349276499357074499,6.58230842005676,4.75440229499191,-302.509231849116
738548.48349285544827580452,6.62846766563921,4.80056154057436,-302.509231849116
738548.48349294590298086405,6.64693136387219,4.81902523880734,-302.509231849116
738548.48349303635768592358,6.66539506210517,4.83748893704032,-302.509231849116
738548.48349312669597566128,6.69309060945463,4.86518448438978,-302.509231849116
738548.48349321715068072081,6.73924985503708,4.86518448438978,-302.509231849116
738548.48349330760538578033,6.76694540238655,4.88364818262276,-302.509231849116
738548.48349339806009083986,6.79464094973601,4.85595263527329,-302.509231849116
738548.48349348851479589939,6.84080019531846,4.91134372997223,-302.509231849116
738548.48349357896950095892,6.96081423383282,4.98519852290414,-302.509231849116
738548.48349366942420601845,7.04390087588122,5.03135776848659,-302.509231849116
738548.48349375976249575615,7.0623645741142,5.00366222113712,-302.509231849116
