time_dn,ecg_projection_ll_ra_mV,ecg_projection_la_ra_mV,ecg_projection_vx_rl_mV
738279.53516229859087616205,12.4814600054933,-9.83499659209978,337.996459852901
738279.53516238904558122158,12.4814600054933,-9.84730572425509,337.897986795658
738279.53516247950028628111,12.4814600054933,-9.83499659209978,337.984150720745
738279.53516256983857601881,12.469150873338,-9.83499659209978,337.97184158859
738279.53516266029328107834,12.4814600054933,-9.84730572425509,337.799513738416
738279.53516275074798613787,12.4814600054933,-9.83499659209978,337.897986795658
738279.53516284120269119740,12.4814600054933,-9.81037832778914,337.97184158859
738279.53516293165739625692,12.4814600054933,-9.83499659209978,337.984150720745
738279.53516302199568599463,12.4814600054933,-9.82268745994446,337.947223324279
738279.53516311245039105415,12.4937691376487,-9.82268745994446,337.996459852901
738279.53516320290509611368,12.506078269804,-9.87192398856573,337.984150720745
738279.53516329335980117321,12.5430056662699,-9.72421440270191,338.008768985056
738279.53516338381450623274,12.6291695913572,-9.37955870235298,338.082623777988
738279.53516347415279597044,12.8507339701529,-8.8748842839849,338.021078117211
738279.53516356460750102997,12.8630431023082,-8.32097333699555,338.119551174454
738279.53516365506220608950,12.6291695913572,-8.76410209458703,337.885677663503
738279.53516374551691114902,12.3952960804061,-9.57650481683808,338.033387249367
738279.53516383597161620855,12.3337504196295,-9.94577878149764,338.045696381522
738279.53516392630990594625,12.469150873338,-9.74883266701254,337.97184158859
738279.53516401676461100578,12.4937691376487,-9.76114179916786,338.008768985056
738279.53516410721931606531,12.506078269804,-9.76114179916786,337.947223324279
738279.53516419767402112484,12.5183874019593,-9.7857600634785,337.947223324279
738279.53516428812872618437,12.5306965341146,-9.77345093132318,337.934914192124
738279.53516437846701592207,12.5430056662699,-9.71190527054659,337.996459852901
738279.53516446892172098160,12.5430056662699,-9.71190527054659,338.021078117211
738279.53516455937642604113,12.5183874019593,-9.7857600634785,337.97184158859
738279.53516464983113110065,12.5306965341146,-9.74883266701254,337.984150720745
738279.53516474028583616018,12.5306965341146,-9.76114179916786,337.996459852901
738279.53516483062412589788,12.5430056662699,-9.76114179916786,337.885677663503
738279.53516492107883095741,12.5430056662699,-9.74883266701254,337.984150720745
738279.53516501153353601694,12.5553147984252,-9.73652353485722,337.934914192124
738279.53516510198824107647,12.5553147984252,-9.72421440270191,337.873368531348
738279.53516519244294613600,12.5676239305806,-9.71190527054659,337.97184158859
738279.53516528278123587370,12.5799330627359,-9.69959613839127,337.947223324279
738279.53516537323594093323,12.5922421948912,-9.67497787408063,337.922605059969
738279.53516546369064599276,12.5922421948912,-9.65035960976999,337.910295927814
738279.53516555414535105228,12.6045513270465,-9.63805047761467,337.922605059969
738279.53516564460005611181,12.6291695913572,-9.62574134545936,337.959532456435
738279.53516573493834584951,12.6291695913572,-9.61343221330404,337.873368531348
738279.53516582539305090904,12.6537878556678,-9.56419568468276,337.897986795658
738279.53516591584775596857,12.6660969878231,-9.5272682882168,337.897986795658
738279.53516600630246102810,12.6907152521338,-9.50265002390617,337.873368531348
738279.53516609675716608763,12.7030243842891,-9.46572262744021,337.688731549018
738279.53516618709545582533,12.7030243842891,-9.42879523097425,337.76258634195
738279.53516627755016088486,12.7030243842891,-9.45341349528489,337.910295927814
738279.53516636800486594439,12.7030243842891,-9.46572262744021,337.873368531348
738279.53516645845957100391,12.7030243842891,-9.42879523097425,337.97184158859
738279.53516654891427606344,12.7030243842891,-9.42879523097425,337.959532456435
738279.53516663925256580114,12.6907152521338,-9.45341349528489,337.934914192124
738279.53516672970727086067,12.6660969878231,-9.47803175959553,337.848750267037
738279.53516682016197592020,12.6537878556678,-9.50265002390617,337.885677663503
738279.53516691061668097973,12.6414787235125,-9.62574134545936,337.922605059969
738279.53516700107138603926,12.5922421948912,-9.61343221330404,337.97184158859
738279.53516709140967577696,12.5799330627359,-9.66266874192531,337.824132002726
738279.53516718186438083649,12.5676239305806,-9.69959613839127,337.97184158859
738279.53516727231908589602,12.5430056662699,-9.73652353485722,337.97184158859
738279.53516736277379095554,12.5306965341146,-9.73652353485722,337.97184158859
738279.53516745322849601507,12.5306965341146,-9.77345093132318,337.97184158859
738279.53516754356678575277,12.5306965341146,-9.77345093132318,337.984150720745
738279.53516763402149081230,12.5183874019593,-9.77345093132318,337.97184158859
738279.53516772447619587183,12.5306965341146,-9.77345093132318,337.934914192124
738279.53516781493090093136,12.5183874019593,-9.7857600634785,337.984150720745
738279.53516790538560599089,12.5183874019593,-9.7857600634785,337.984150720745
738279.53516799572389572859,12.5183874019593,-9.7857600634785,337.934914192124
738279.53516808617860078812,12.5183874019593,-9.77345093132318,337.959532456435
738279.53516817663330584764,12.5183874019593,-9.7857600634785,337.959532456435
738279.53516826708801090717,12.5183874019593,-9.77345093132318,337.97184158859
738279.53516835754271596670,12.5306965341146,-9.77345093132318,337.922605059969
738279.53516844788100570440,12.5306965341146,-9.77345093132318,337.97184158859
738279.53516853833571076393,12.5306965341146,-9.76114179916786,337.97184158859
738279.53516862879041582346,12.5306965341146,-9.76114179916786,337.897986795658
738279.53516871924512088299,12.5306965341146,-9.76114179916786,337.97184158859
738279.53516880969982594252,12.5306965341146,-9.77345093132318,337.959532456435
738279.53516890003811568022,12.5306965341146,-9.77345093132318,337.910295927814
738279.53516899049282073975,12.5183874019593,-9.77345093132318,337.959532456435
738279.53516908094752579927,12.5306965341146,-9.77345093132318,337.922605059969
738279.53516917140223085880,12.5183874019593,-9.77345093132318,337.910295927814
738279.53516926185693591833,12.5183874019593,-9.7857600634785,337.97184158859
738279.53516935219522565603,12.5183874019593,-9.79806919563382,337.947223324279
738279.53516944264993071556,12.5183874019593,-9.7857600634785,337.959532456435
738279.53516953310463577509,12.5183874019593,-9.79806919563382,337.922605059969
738279.53516962355934083462,12.5183874019593,-9.79806919563382,337.78720460626
738279.53516971401404589415,12.506078269804,-9.7857600634785,337.799513738416
738279.53516980435233563185,12.506078269804,-9.7857600634785,337.922605059969
738279.53516989480704069138,12.506078269804,-9.7857600634785,338.021078117211
738279.53516998526174575090,12.4937691376487,-9.7857600634785,337.996459852901
738279.53517007571645081043,12.506078269804,-9.81037832778914,337.97184158859
738279.53517016617115586996,12.506078269804,-9.79806919563382,337.947223324279
738279.53517025650944560766,12.506078269804,-9.81037832778914,337.97184158859
738279.53517034696415066719,12.4937691376487,-9.79806919563382,337.97184158859
738279.53517043741885572672,12.4937691376487,-9.81037832778914,337.934914192124
738279.53517052787356078625,12.506078269804,-9.79806919563382,337.97184158859
738279.53517061832826584578,12.4937691376487,-9.79806919563382,337.97184158859
738279.53517070866655558348,12.4937691376487,-9.81037832778914,337.947223324279
738279.53517079912126064301,12.4937691376487,-9.82268745994446,337.959532456435
738279.53517088957596570253,12.4937691376487,-9.79806919563382,337.97184158859
738279.53517098003067076206,12.4937691376487,-9.81037832778914,337.97184158859
738279.53517107048537582159,12.4937691376487,-9.81037832778914,337.996459852901
738279.53517116082366555929,12.4814600054933,-9.82268745994446,337.959532456435
738279.53517125127837061882,12.4937691376487,-9.81037832778914,337.97184158859
738279.53517134173307567835,12.4937691376487,-9.81037832778914,337.984150720745
738279.53517143218778073788,12.4937691376487,-9.81037832778914,337.959532456435
738279.53517152264248579741,12.4937691376487,-9.82268745994446,337.97184158859
738279.53517161298077553511,12.4937691376487,-9.81037832778914,337.984150720745
738279.53517170343548059464,12.4937691376487,-9.81037832778914,337.959532456435
738279.53517179389018565416,12.4937691376487,-9.81037832778914,337.959532456435
738279.53517188434489071369,12.4937691376487,-9.82268745994446,337.984150720745
738279.53517197479959577322,12.4937691376487,-9.81037832778914,337.984150720745
738279.53517206513788551092,12.4814600054933,-9.79806919563382,337.947223324279
738279.53517215559259057045,12.4814600054933,-9.81037832778914,337.97184158859
738279.53517224604729562998,12.4937691376487,-9.82268745994446,337.959532456435
738279.53517233650200068951,12.4937691376487,-9.79806919563382,337.97184158859
738279.53517242695670574903,12.4937691376487,-9.81037832778914,337.861059399192
738279.53517251729499548674,12.4937691376487,-9.81037832778914,337.97184158859
738279.53517260774970054626,12.4937691376487,-9.79806919563382,337.996459852901
738279.53517269820440560579,12.506078269804,-9.7857600634785,337.984150720745
738279.53517278865911066532,12.5183874019593,-9.77345093132318,337.996459852901
738279.53517287911381572485,12.5183874019593,-9.76114179916786,337.996459852901
738279.53517296945210546255,12.5306965341146,-9.73652353485722,337.996459852901
738279.53517305990681052208,12.5430056662699,-9.73652353485722,337.934914192124
738279.53517315036151558161,12.5306965341146,-9.74883266701254,337.848750267037
738279.53517324081622064114,12.506078269804,-9.76114179916786,337.799513738416
738279.53517333127092570066,12.5183874019593,-9.74883266701254,337.910295927814
738279.53517342160921543837,12.506078269804,-9.77345093132318,337.873368531348
738279.53517351206392049789,12.506078269804,-9.77345093132318,337.885677663503
738279.53517360251862555742,12.4814600054933,-9.7857600634785,337.922605059969
738279.53517369297333061695,12.4814600054933,-9.81037832778914,337.873368531348
738279.53517378342803567648,12.469150873338,-9.82268745994446,337.885677663503
738279.53517387376632541418,12.469150873338,-9.83499659209978,337.934914192124
738279.53517396422103047371,12.469150873338,-9.82268745994446,337.97184158859
738279.53517405467573553324,12.469150873338,-9.82268745994446,337.97184158859
738279.53517414513044059277,12.4814600054933,-9.81037832778914,337.959532456435
738279.53517423558514565229,12.469150873338,-9.82268745994446,337.959532456435
738279.53517432592343539000,12.469150873338,-9.83499659209978,338.021078117211
738279.53517441637814044952,12.4568417411827,-9.84730572425509,337.959532456435
738279.53517450683284550905,12.469150873338,-9.82268745994446,337.861059399192
738279.53517459728755056858,12.469150873338,-9.84730572425509,337.996459852901
738279.53517468774225562811,12.4814600054933,-9.84730572425509,338.033387249367
738279.53517477808054536581,12.506078269804,-9.69959613839127,338.131860306609
738279.53517486853525042534,12.6291695913572,-9.35494043804234,338.082623777988
738279.53517495898995548487,12.8507339701529,-8.76410209458703,338.082623777988
738279.53517504944466054440,12.8630431023082,-8.29635507268492,338.131860306609
738279.53517513989936560392,12.5922421948912,-8.89950254829554,337.984150720745
738279.53517523023765534163,12.3583686839401,-9.69959613839127,338.045696381522
738279.53517532069236040115,12.3214412874742,-9.95808791365296,338.082623777988
738279.53517541114706546068,12.4445326090274,-9.76114179916786,338.045696381522
738279.53517550160177052021,12.469150873338,-9.76114179916786,337.934914192124
738279.53517559205647557974,12.4937691376487,-9.77345093132318,337.996459852901
738279.53517568239476531744,12.4937691376487,-9.77345093132318,337.97184158859
738279.53517577284947037697,12.506078269804,-9.77345093132318,337.934914192124
738279.53517586330417543650,12.506078269804,-9.77345093132318,337.910295927814
738279.53517595375888049603,12.4937691376487,-9.77345093132318,337.984150720745
738279.53517604421358555555,12.506078269804,-9.77345093132318,337.97184158859
738279.53517613455187529325,12.506078269804,-9.76114179916786,337.873368531348
738279.53517622500658035278,12.506078269804,-9.76114179916786,337.959532456435
738279.53517631546128541231,12.506078269804,-9.76114179916786,337.947223324279
738279.53517640591599047184,12.5183874019593,-9.74883266701254,337.922605059969
738279.53517649637069553137,12.5183874019593,-9.73652353485722,337.848750267037
738279.53517658670898526907,12.5306965341146,-9.73652353485722,337.947223324279
738279.53517667716369032860,12.5430056662699,-9.69959613839127,337.78720460626
738279.53517676761839538813,12.5553147984252,-9.68728700623595,337.76258634195
738279.53517685807310044765,12.5553147984252,-9.66266874192531,337.910295927814
738279.53517694852780550718,12.5553147984252,-9.66266874192531,337.934914192124
738279.53517703886609524488,12.5553147984252,-9.66266874192531,337.848750267037
738279.53517712932080030441,12.5676239305806,-9.62574134545936,337.873368531348
738279.53517721977550536394,12.5799330627359,-9.61343221330404,337.885677663503
738279.53517731023021042347,12.6045513270465,-9.57650481683808,337.873368531348
738279.53517740068491548300,12.6291695913572,-9.53957742037212,337.836441134882
738279.53517749102320522070,12.6414787235125,-9.50265002390617,337.861059399192
738279.53517758147791028023,12.6537878556678,-9.51495915606148,337.947223324279
738279.53517767193261533976,12.6414787235125,-9.49034089175085,337.885677663503
738279.53517776238732039928,12.6537878556678,-9.46572262744021,337.947223324279
738279.53517785284202545881,12.6537878556678,-9.47803175959553,337.848750267037
738279.53517794318031519651,12.6291695913572,-9.47803175959553,337.885677663503
738279.53517803363502025604,12.6168604592018,-9.50265002390617,337.947223324279
738279.53517812408972531557,12.6168604592018,-9.5272682882168,338.008768985056
738279.53517821454443037510,12.5799330627359,-9.5888139489934,337.873368531348
738279.53517830499913543463,12.5553147984252,-9.62574134545936,337.996459852901
738279.53517839533742517233,12.5306965341146,-9.66266874192531,338.008768985056
738279.53517848579213023186,12.4937691376487,-9.71190527054659,337.97184158859
738279.53517857624683529139,12.4814600054933,-9.74883266701254,337.947223324279
738279.53517866670154035091,12.4568417411827,-9.79806919563382,337.934914192124
738279.53517875715624541044,12.4445326090274,-9.82268745994446,337.984150720745
738279.53517884749453514814,12.4322234768721,-9.82268745994446,337.885677663503
738279.53517893794924020767,12.4322234768721,-9.84730572425509,337.959532456435
738279.53517902840394526720,12.4199143447167,-9.84730572425509,338.008768985056
738279.53517911885865032673,12.4199143447167,-9.84730572425509,337.97184158859
738279.53517920931335538626,12.4076052125614,-9.85961485641041,337.996459852901
738279.53517929965164512396,12.4076052125614,-9.85961485641041,337.996459852901
738279.53517939010635018349,12.4076052125614,-9.84730572425509,337.984150720745
738279.53517948056105524302,12.4199143447167,-9.84730572425509,337.984150720745
738279.53517957101576030254,12.4076052125614,-9.87192398856573,337.996459852901
738279.53517966147046536207,12.4076052125614,-9.85961485641041,337.996459852901
738279.53517975180875509977,12.4076052125614,-9.84730572425509,337.910295927814
738279.53517984226346015930,12.4076052125614,-9.85961485641041,337.984150720745
738279.53517993271816521883,12.4199143447167,-9.83499659209978,337.984150720745
738279.53518002317287027836,12.4199143447167,-9.83499659209978,337.934914192124
738279.53518011362757533789,12.4199143447167,-9.83499659209978,337.984150720745
738279.53518020396586507559,12.4199143447167,-9.84730572425509,337.910295927814
738279.53518029442057013512,12.4322234768721,-9.84730572425509,337.848750267037
738279.53518038487527519464,12.4199143447167,-9.83499659209978,337.934914192124
738279.53518047532998025417,12.4199143447167,-9.83499659209978,337.959532456435
738279.53518056578468531370,12.4199143447167,-9.83499659209978,337.947223324279
738279.53518065612297505140,12.4322234768721,-9.81037832778914,337.934914192124
738279.53518074657768011093,12.4322234768721,-9.84730572425509,337.934914192124
738279.53518083703238517046,12.4322234768721,-9.84730572425509,337.861059399192
738279.53518092748709022999,12.4322234768721,-9.83499659209978,337.922605059969
738279.53518101794179528952,12.4322234768721,-9.84730572425509,337.996459852901
738279.53518110828008502722,12.4199143447167,-9.84730572425509,337.934914192124
738279.53518119873479008675,12.4199143447167,-9.84730572425509,337.848750267037
738279.53518128918949514627,12.4199143447167,-9.84730572425509,337.885677663503
738279.53518137964420020580,12.4322234768721,-9.84730572425509,337.910295927814
738279.53518147009890526533,12.4199143447167,-9.85961485641041,337.885677663503
738279.53518156043719500303,12.4199143447167,-9.85961485641041,337.873368531348
738279.53518165089190006256,12.4199143447167,-9.85961485641041,337.947223324279
738279.53518174134660512209,12.4199143447167,-9.85961485641041,337.97184158859
738279.53518183180131018162,12.4322234768721,-9.84730572425509,337.959532456435
738279.53518192225601524115,12.4199143447167,-9.85961485641041,337.984150720745
738279.53518201259430497885,12.4076052125614,-9.85961485641041,337.97184158859
738279.53518210304901003838,12.4199143447167,-9.84730572425509,337.959532456435
738279.53518219350371509790,12.4199143447167,-9.84730572425509,337.97184158859
738279.53518228395842015743,12.4199143447167,-9.85961485641041,337.984150720745
738279.53518237441312521696,12.4199143447167,-9.84730572425509,337.97184158859
738279.53518246475141495466,12.4199143447167,-9.84730572425509,337.947223324279
738279.53518255520612001419,12.4322234768721,-9.84730572425509,337.947223324279
738279.53518264566082507372,12.4199143447167,-9.83499659209978,337.947223324279
738279.53518273611553013325,12.4199143447167,-9.85961485641041,337.947223324279
738279.53518282657023519278,12.4199143447167,-9.84730572425509,337.934914192124
738279.53518291690852493048,12.4199143447167,-9.85961485641041,337.996459852901
738279.53518300736322999001,12.4199143447167,-9.84730572425509,337.947223324279
738279.53518309781793504953,12.4322234768721,-9.85961485641041,337.922605059969
738279.53518318827264010906,12.4322234768721,-9.84730572425509,338.033387249367
738279.53518327872734516859,12.4322234768721,-9.83499659209978,338.058005513677
738279.53518336906563490629,12.4322234768721,-9.83499659209978,337.97184158859
738279.53518345952033996582,12.4322234768721,-9.83499659209978,337.97184158859
738279.53518354997504502535,12.4322234768721,-9.84730572425509,337.984150720745
738279.53518364042975008488,12.4322234768721,-9.83499659209978,337.959532456435
738279.53518373088445514441,12.4322234768721,-9.87192398856573,337.922605059969
738279.53518382122274488211,12.4199143447167,-9.87192398856573,337.824132002726
738279.53518391167744994164,12.4322234768721,-9.85961485641041,338.008768985056
738279.53518400213215500116,12.4322234768721,-9.84730572425509,337.922605059969
738279.53518409258686006069,12.4445326090274,-9.83499659209978,337.947223324279
738279.53518418292514979839,12.4322234768721,-9.83499659209978,337.959532456435
738279.53518427337985485792,12.4322234768721,-9.85961485641041,337.97184158859
738279.53518436383455991745,12.4445326090274,-9.83499659209978,337.910295927814
738279.53518445428926497698,12.4199143447167,-9.85961485641041,337.984150720745
738279.53518454474397003651,12.4199143447167,-9.85961485641041,337.984150720745
738279.53518463508225977421,12.4322234768721,-9.83499659209978,337.984150720745
738279.53518472553696483374,12.4445326090274,-9.81037832778914,337.996459852901
738279.53518481599166989326,12.4445326090274,-9.83499659209978,337.996459852901
738279.53518490644637495279,12.4568417411827,-9.79806919563382,337.984150720745
738279.53518499690108001232,12.4568417411827,-9.7857600634785,337.959532456435
738279.53518508723936975002,12.4937691376487,-9.77345093132318,337.996459852901
738279.53518517769407480955,12.4937691376487,-9.77345093132318,337.97184158859
738279.53518526814877986908,12.4814600054933,-9.79806919563382,337.910295927814
738279.53518535860348492861,12.4445326090274,-9.82268745994446,337.984150720745
738279.53518544905818998814,12.4568417411827,-9.79806919563382,337.996459852901
738279.53518553939647972584,12.4445326090274,-9.7857600634785,337.984150720745
738279.53518562985118478537,12.4445326090274,-9.84730572425509,337.959532456435
738279.53518572030588984489,12.4322234768721,-9.83499659209978,338.008768985056
738279.53518581076059490442,12.4199143447167,-9.85961485641041,337.996459852901
738279.53518590121529996395,12.4076052125614,-9.87192398856573,337.984150720745
738279.53518599155358970165,12.4076052125614,-9.87192398856573,337.934914192124
738279.53518608200829476118,12.4076052125614,-9.85961485641041,337.910295927814
738279.53518617246299982071,12.4076052125614,-9.87192398856573,337.922605059969
738279.53518626291770488024,12.4076052125614,-9.87192398856573,337.922605059969
738279.53518635337240993977,12.4076052125614,-9.88423312072105,337.922605059969
738279.53518644371069967747,12.4199143447167,-9.85961485641041,337.947223324279
738279.53518653416540473700,12.4199143447167,-9.85961485641041,337.910295927814
738279.53518662462010979652,12.4199143447167,-9.88423312072105,337.97184158859
738279.53518671507481485605,12.4199143447167,-9.92116051718701,337.97184158859
738279.53518680552951991558,12.4445326090274,-9.87192398856573,337.934914192124
738279.53518689586780965328,12.4814600054933,-9.65035960976999,338.082623777988
738279.53518698632251471281,12.6537878556678,-9.21953998433383,338.008768985056
738279.53518707677721977234,12.8014974415316,-8.62870164087853,338.033387249367
738279.53518716723192483187,12.7153335164444,-8.46868292285938,337.848750267037
738279.53518725768662989140,12.4445326090274,-9.21953998433383,337.750277209794
738279.53518734802491962910,12.3460595517848,-9.5888139489934,337.836441134882
738279.53518743847962468863,12.2722047588529,-9.99501531011892,338.070314645833
738279.53518752893432974815,12.4076052125614,-9.79806919563382,338.058005513677
738279.53518761938903480768,12.4568417411827,-9.77345093132318,337.934914192124
738279.53518770984373986721,12.469150873338,-9.7857600634785,337.984150720745
738279.53518780018202960491,12.4568417411827,-9.81037832778914,337.97184158859
738279.53518789063673466444,12.469150873338,-9.81037832778914,337.97184158859
738279.53518798109143972397,12.469150873338,-9.81037832778914,337.934914192124
738279.53518807154614478350,12.469150873338,-9.81037832778914,337.959532456435
738279.53518816200084984303,12.4814600054933,-9.79806919563382,337.959532456435
738279.53518825233913958073,12.4814600054933,-9.77345093132318,337.947223324279
738279.53518834279384464025,12.4937691376487,-9.7857600634785,337.947223324279
738279.53518843324854969978,12.4937691376487,-9.7857600634785,337.947223324279
738279.53518852370325475931,12.4814600054933,-9.7857600634785,337.959532456435
738279.53518861415795981884,12.4937691376487,-9.76114179916786,337.922605059969
738279.53518870449624955654,12.506078269804,-9.74883266701254,337.959532456435
738279.53518879495095461607,12.5183874019593,-9.73652353485722,337.959532456435
738279.53518888540565967560,12.5183874019593,-9.72421440270191,337.873368531348
738279.53518897586036473513,12.5306965341146,-9.69959613839127,337.959532456435
738279.53518906631506979465,12.5430056662699,-9.69959613839127,337.959532456435
738279.53518915665335953236,12.5676239305806,-9.66266874192531,337.861059399192
738279.53518924710806459188,12.5676239305806,-9.65035960976999,337.861059399192
738279.53518933756276965141,12.5799330627359,-9.63805047761467,337.934914192124
738279.53518942801747471094,12.5799330627359,-9.61343221330404,337.934914192124
738279.53518951847217977047,12.6045513270465,-9.57650481683808,337.97184158859
738279.53518960881046950817,12.6291695913572,-9.55188655252744,337.947223324279
738279.53518969926517456770,12.6291695913572,-9.5272682882168,337.861059399192
738279.53518978971987962723,12.6414787235125,-9.50265002390617,337.922605059969
738279.53518988017458468676,12.6537878556678,-9.49034089175085,337.947223324279
738279.53518997062928974628,12.6660969878231,-9.46572262744021,337.934914192124
738279.53519006096757948399,12.6537878556678,-9.49034089175085,337.885677663503
738279.53519015142228454351,12.6414787235125,-9.50265002390617,337.922605059969
738279.53519024187698960304,12.6291695913572,-9.51495915606148,337.910295927814
738279.53519033233169466257,12.6168604592018,-9.55188655252744,337.811822870571
738279.53519042278639972210,12.5799330627359,-9.60112308114872,337.873368531348
738279.53519051312468945980,12.5553147984252,-9.63805047761467,337.861059399192
738279.53519060357939451933,12.5306965341146,-9.69959613839127,337.873368531348
738279.53519069403409957886,12.5183874019593,-9.71190527054659,337.885677663503
738279.53519078448880463839,12.506078269804,-9.72421440270191,337.76258634195
738279.53519087494350969791,12.4937691376487,-9.77345093132318,337.861059399192
738279.53519096528179943562,12.469150873338,-9.7857600634785,337.959532456435
738279.53519105573650449514,12.4814600054933,-9.79806919563382,337.861059399192
738279.53519114619120955467,12.469150873338,-9.79806919563382,337.947223324279
738279.53519123664591461420,12.469150873338,-9.79806919563382,337.97184158859
738279.53519132710061967373,12.469150873338,-9.7857600634785,337.97184158859
738279.53519141743890941143,12.469150873338,-9.79806919563382,337.959532456435
738279.53519150789361447096,12.469150873338,-9.7857600634785,337.959532456435
738279.53519159834831953049,12.469150873338,-9.79806919563382,337.959532456435
738279.53519168880302459002,12.469150873338,-9.79806919563382,337.873368531348
738279.53519177925772964954,12.469150873338,-9.81037832778914,337.984150720745
738279.53519186959601938725,12.469150873338,-9.7857600634785,337.97184158859
738279.53519196005072444677,12.469150873338,-9.79806919563382,337.910295927814
738279.53519205050542950630,12.469150873338,-9.79806919563382,337.97184158859
738279.53519214096013456583,12.469150873338,-9.79806919563382,337.959532456435
738279.53519223141483962536,12.4814600054933,-9.79806919563382,337.947223324279
738279.53519232175312936306,12.4814600054933,-9.7857600634785,337.934914192124
738279.53519241220783442259,12.4814600054933,-9.79806919563382,337.984150720745
738279.53519250266253948212,12.469150873338,-9.81037832778914,337.97184158859
738279.53519259311724454165,12.4814600054933,-9.81037832778914,337.934914192124
738279.53519268357194960117,12.469150873338,-9.79806919563382,337.984150720745
738279.53519277391023933887,12.4814600054933,-9.79806919563382,337.97184158859
738279.53519286436494439840,12.4814600054933,-9.7857600634785,337.910295927814
738279.53519295481964945793,12.469150873338,-9.79806919563382,338.008768985056
738279.53519304527435451746,12.469150873338,-9.81037832778914,338.008768985056
738279.53519313572905957699,12.4568417411827,-9.83499659209978,337.984150720745
738279.53519322606734931469,12.469150873338,-9.83499659209978,337.996459852901
738279.53519331652205437422,12.469150873338,-9.82268745994446,337.947223324279
738279.53519340697675943375,12.469150873338,-9.81037832778914,337.984150720745
738279.53519349743146449327,12.4568417411827,-9.85961485641041,337.97184158859
738279.53519358788616955280,12.4568417411827,-9.82268745994446,337.922605059969
738279.53519367822445929050,12.4445326090274,-9.84730572425509,337.97184158859
738279.53519376867916435003,12.4568417411827,-9.83499659209978,337.97184158859
738279.53519385913386940956,12.4568417411827,-9.83499659209978,337.959532456435
738279.53519394958857446909,12.4568417411827,-9.84730572425509,337.996459852901
738279.53519404004327952862,12.4445326090274,-9.84730572425509,337.996459852901
738279.53519413038156926632,12.4445326090274,-9.84730572425509,337.984150720745
738279.53519422083627432585,12.4445326090274,-9.85961485641041,337.947223324279
738279.53519431129097938538,12.4322234768721,-9.87192398856573,337.799513738416
738279.53519440174568444490,12.4322234768721,-9.85961485641041,337.885677663503
738279.53519449220038950443,12.4322234768721,-9.84730572425509,337.885677663503
738279.53519458253867924213,12.4322234768721,-9.87192398856573,337.947223324279
738279.53519467299338430166,12.4322234768721,-9.87192398856573,337.97184158859
738279.53519476344808936119,12.4322234768721,-9.85961485641041,337.97184158859
738279.53519485390279442072,12.4322234768721,-9.83499659209978,337.97184158859
738279.53519494435749948025,12.4445326090274,-9.83499659209978,337.984150720745
738279.53519503469578921795,12.4322234768721,-9.85961485641041,337.984150720745
738279.53519512515049427748,12.4322234768721,-9.84730572425509,337.934914192124
738279.53519521560519933701,12.4322234768721,-9.83499659209978,337.910295927814
738279.53519530605990439653,12.4322234768721,-9.85961485641041,337.947223324279
738279.53519539651460945606,12.4322234768721,-9.88423312072105,337.97184158859
738279.53519548685289919376,12.4445326090274,-9.83499659209978,337.996459852901
738279.53519557730760425329,12.4445326090274,-9.87192398856573,337.934914192124
738279.53519566776230931282,12.4199143447167,-9.87192398856573,337.959532456435
738279.53519575821701437235,12.4076052125614,-9.87192398856573,337.97184158859
738279.53519584867171943188,12.4199143447167,-9.89654225287637,337.922605059969
738279.53519593901000916958,12.4322234768721,-9.87192398856573,337.910295927814
738279.53519602946471422911,12.4322234768721,-9.87192398856573,337.910295927814
738279.53519611991941928864,12.4445326090274,-9.85961485641041,337.861059399192
738279.53519621037412434816,12.4199143447167,-9.88423312072105,337.897986795658
738279.53519630082882940769,12.4076052125614,-9.88423312072105,337.959532456435
738279.53519639116711914539,12.4076052125614,-9.88423312072105,337.947223324279
738279.53519648162182420492,12.4199143447167,-9.85961485641041,337.984150720745
738279.53519657207652926445,12.4322234768721,-9.87192398856573,337.97184158859
738279.53519666253123432398,12.4199143447167,-9.87192398856573,337.959532456435
738279.53519675298593938351,12.4199143447167,-9.87192398856573,337.959532456435
738279.53519684332422912121,12.4199143447167,-9.87192398856573,337.97184158859
738279.53519693377893418074,12.4199143447167,-9.85961485641041,337.934914192124
738279.53519702423363924026,12.4076052125614,-9.88423312072105,337.922605059969
738279.53519711468834429979,12.4199143447167,-9.88423312072105,337.959532456435
738279.53519720514304935932,12.4199143447167,-9.85961485641041,337.984150720745
738279.53519729548133909702,12.4199143447167,-9.89654225287637,338.008768985056
738279.53519738593604415655,12.4199143447167,-9.85961485641041,337.996459852901
738279.53519747639074921608,12.4076052125614,-9.85961485641041,337.984150720745
738279.53519756684545427561,12.4076052125614,-9.88423312072105,337.984150720745
738279.53519765730015933514,12.4322234768721,-9.85961485641041,337.910295927814
738279.53519774763844907284,12.4322234768721,-9.82268745994446,337.996459852901
738279.53519783809315413237,12.4568417411827,-9.82268745994446,337.76258634195
738279.53519792854785919189,12.469150873338,-9.81037832778914,337.848750267037
738279.53519801900256425142,12.4568417411827,-9.83499659209978,337.947223324279
738279.53519810945726931095,12.4322234768721,-9.85961485641041,337.959532456435
738279.53519819979555904865,12.4199143447167,-9.84730572425509,337.947223324279
738279.53519829025026410818,12.4199143447167,-9.83499659209978,337.984150720745
738279.53519838070496916771,12.4199143447167,-9.84730572425509,337.97184158859
738279.53519847115967422724,12.3952960804061,-9.87192398856573,337.947223324279
738279.53519856161437928677,12.3952960804061,-9.89654225287637,337.984150720745
738279.53519865195266902447,12.3952960804061,-9.89654225287637,337.97184158859
738279.53519874240737408400,12.4076052125614,-9.89654225287637,337.959532456435
738279.53519883286207914352,12.3952960804061,-9.90885138503169,337.959532456435
738279.53519892331678420305,12.3829869482508,-9.89654225287637,337.97184158859
738279.53519901377148926258,12.3829869482508,-9.93346964934233,337.97184158859
738279.53519910410977900028,12.3829869482508,-9.92116051718701,337.959532456435
738279.53519919456448405981,12.3829869482508,-9.93346964934233,337.934914192124
738279.53519928501918911934,12.3829869482508,-9.92116051718701,337.984150720745
738279.53519937547389417887,12.3952960804061,-9.89654225287637,337.947223324279
738279.53519946592859923840,12.3952960804061,-9.93346964934233,337.922605059969
738279.53519955626688897610,12.4076052125614,-9.93346964934233,337.97184158859
738279.53519964672159403563,12.4322234768721,-9.71190527054659,338.094932910143
738279.53519973717629909515,12.5799330627359,-9.3303221737317,338.033387249367
738279.53519982763100415468,12.7645700450657,-8.72717469812108,338.070314645833
738279.53519991808570921421,12.7153335164444,-8.44406465854874,338.058005513677
738279.53520000842399895191,12.4076052125614,-9.15799432355724,337.934914192124
738279.53520009887870401144,12.2475864945423,-9.87192398856573,338.033387249367
738279.53520018933340907097,12.2598956266976,-9.9827061779636,338.070314645833
738279.53520027978811413050,12.3706778160955,-9.85961485641041,338.021078117211
738279.53520037024281919003,12.3952960804061,-9.83499659209978,338.021078117211
738279.53520046058110892773,12.4076052125614,-9.88423312072105,337.97184158859
738279.53520055103581398726,12.4076052125614,-9.87192398856573,337.934914192124
738279.53520064149051904678,12.4076052125614,-9.85961485641041,337.922605059969
738279.53520073194522410631,12.4199143447167,-9.87192398856573,337.934914192124
738279.53520082239992916584,12.4199143447167,-9.85961485641041,337.934914192124
738279.53520091273821890354,12.4199143447167,-9.85961485641041,337.996459852901
738279.53520100319292396307,12.4199143447167,-9.85961485641041,337.959532456435
738279.53520109364762902260,12.4322234768721,-9.85961485641041,337.885677663503
738279.53520118410233408213,12.4199143447167,-9.84730572425509,337.947223324279
738279.53520127455703914165,12.4322234768721,-9.83499659209978,337.959532456435
738279.53520136489532887936,12.4322234768721,-9.82268745994446,337.873368531348
738279.53520145535003393888,12.4445326090274,-9.81037832778914,337.799513738416
738279.53520154580473899841,12.4568417411827,-9.7857600634785,337.922605059969
738279.53520163625944405794,12.4568417411827,-9.79806919563382,337.959532456435
738279.53520172671414911747,12.4814600054933,-9.76114179916786,337.922605059969
738279.53520181705243885517,12.4814600054933,-9.76114179916786,337.922605059969
738279.53520190750714391470,12.506078269804,-9.73652353485722,337.934914192124
738279.53520199796184897423,12.5183874019593,-9.71190527054659,337.897986795658
738279.53520208841655403376,12.5430056662699,-9.65035960976999,337.984150720745
738279.53520217887125909328,12.5430056662699,-9.66266874192531,337.947223324279
738279.53520226920954883099,12.5676239305806,-9.63805047761467,337.885677663503
738279.53520235966425389051,12.5799330627359,-9.57650481683808,337.97184158859
738279.53520245011895895004,12.5922421948912,-9.55188655252744,337.959532456435
738279.53520254057366400957,12.6045513270465,-9.56419568468276,337.97184158859
738279.53520263102836906910,12.6045513270465,-9.53957742037212,337.861059399192
738279.53520272136665880680,12.6045513270465,-9.5272682882168,337.934914192124
738279.53520281182136386633,12.6168604592018,-9.53957742037212,337.897986795658
738279.53520290227606892586,12.6045513270465,-9.53957742037212,337.873368531348
738279.53520299273077398539,12.5922421948912,-9.55188655252744,337.897986795658
738279.53520308318547904491,12.5799330627359,-9.57650481683808,337.873368531348
738279.53520317352376878262,12.5676239305806,-9.5888139489934,337.873368531348
738279.53520326397847384214,12.5553147984252,-9.67497787408063,337.934914192124
738279.53520335443317890167,12.5183874019593,-9.68728700623595,337.934914192124
738279.53520344488788396120,12.5183874019593,-9.71190527054659,337.885677663503
738279.53520353534258902073,12.4937691376487,-9.7857600634785,337.934914192124
738279.53520362568087875843,12.4814600054933,-9.77345093132318,337.897986795658
738279.53520371613558381796,12.469150873338,-9.82268745994446,337.897986795658
738279.53520380659028887749,12.4445326090274,-9.81037832778914,337.910295927814
738279.53520389704499393702,12.4445326090274,-9.82268745994446,337.910295927814
738279.53520398749969899654,12.4322234768721,-9.84730572425509,337.97184158859
738279.53520407783798873425,12.4322234768721,-9.84730572425509,337.897986795658
738279.53520416829269379377,12.4445326090274,-9.82268745994446,337.922605059969
738279.53520425874739885330,12.4445326090274,-9.84730572425509,337.97184158859
738279.53520434920210391283,12.4445326090274,-9.85961485641041,337.947223324279
738279.53520443965680897236,12.4445326090274,-9.83499659209978,337.97184158859
738279.53520452999509871006,12.469150873338,-9.83499659209978,338.021078117211
738279.53520462044980376959,12.469150873338,-9.79806919563382,338.033387249367
738279.53520471090450882912,12.4322234768721,-9.85961485641041,337.97184158859
738279.53520480135921388865,12.4322234768721,-9.85961485641041,337.947223324279
738279.53520489181391894817,12.4445326090274,-9.83499659209978,337.848750267037
738279.53520498215220868587,12.4445326090274,-9.84730572425509,337.676422416862
738279.53520507260691374540,12.4445326090274,-9.88423312072105,337.811822870571
738279.53520516306161880493,12.4322234768721,-9.85961485641041,337.885677663503
738279.53520525351632386446,12.4199143447167,-9.84730572425509,337.97184158859
738279.53520534397102892399,12.4322234768721,-9.87192398856573,337.97184158859
738279.53520543430931866169,12.4322234768721,-9.87192398856573,337.934914192124
738279.53520552476402372122,12.4445326090274,-9.84730572425509,337.97184158859
738279.53520561521872878075,12.4322234768721,-9.85961485641041,337.959532456435
738279.53520570567343384027,12.4445326090274,-9.84730572425509,337.897986795658
738279.53520579612813889980,12.4199143447167,-9.87192398856573,337.947223324279
738279.53520588646642863750,12.4076052125614,-9.88423312072105,337.873368531348
738279.53520597692113369703,12.4199143447167,-9.90885138503169,337.885677663503
738279.53520606737583875656,12.4199143447167,-9.88423312072105,337.873368531348
738279.53520615783054381609,12.4199143447167,-9.88423312072105,337.922605059969
738279.53520624816883355379,12.4199143447167,-9.89654225287637,337.934914192124
738279.53520633862353861332,12.4199143447167,-9.90885138503169,337.873368531348
738279.53520642907824367285,12.4199143447167,-9.89654225287637,337.910295927814
738279.53520651953294873238,12.4199143447167,-9.87192398856573,337.934914192124
738279.53520660998765379190,12.4199143447167,-9.88423312072105,337.873368531348
738279.53520670032594352961,12.4322234768721,-9.92116051718701,337.885677663503
738279.53520679078064858913,12.4199143447167,-9.89654225287637,337.947223324279
738279.53520688123535364866,12.4199143447167,-9.89654225287637,337.984150720745
738279.53520697169005870819,12.4199143447167,-9.90885138503169,337.947223324279
738279.53520706214476376772,12.4199143447167,-9.88423312072105,337.97184158859
738279.53520715248305350542,12.4199143447167,-9.90885138503169,337.910295927814
738279.53520724293775856495,12.4199143447167,-9.87192398856573,337.873368531348
738279.53520733339246362448,12.4076052125614,-9.89654225287637,337.885677663503
738279.53520742384716868401,12.4076052125614,-9.93346964934233,337.959532456435
738279.53520751430187374353,12.4076052125614,-9.89654225287637,338.033387249367
738279.53520760464016348124,12.4199143447167,-9.87192398856573,337.984150720745
738279.53520769509486854076,12.4199143447167,-9.90885138503169,337.922605059969
738279.53520778554957360029,12.4076052125614,-9.89654225287637,338.008768985056
738279.53520787600427865982,12.4199143447167,-9.88423312072105,337.996459852901
738279.53520796645898371935,12.4199143447167,-9.89654225287637,337.922605059969
738279.53520805679727345705,12.4199143447167,-9.90885138503169,337.873368531348
738279.53520814725197851658,12.4199143447167,-9.88423312072105,337.897986795658
738279.53520823770668357611,12.4322234768721,-9.90885138503169,337.885677663503
738279.53520832816138863564,12.4199143447167,-9.90885138503169,337.885677663503
738279.53520841861609369516,12.4199143447167,-9.88423312072105,337.836441134882
738279.53520850895438343287,12.4199143447167,-9.89654225287637,337.774895474105
738279.53520859940908849239,12.4199143447167,-9.89654225287637,337.959532456435
738279.53520868986379355192,12.4076052125614,-9.92116051718701,337.934914192124
738279.53520878031849861145,12.4076052125614,-9.88423312072105,337.959532456435
738279.53520887077320367098,12.4322234768721,-9.88423312072105,338.021078117211
738279.53520896111149340868,12.4322234768721,-9.90885138503169,338.008768985056
738279.53520905156619846821,12.4322234768721,-9.88423312072105,337.984150720745
738279.53520914202090352774,12.4322234768721,-9.85961485641041,338.008768985056
738279.53520923247560858727,12.4322234768721,-9.87192398856573,338.058005513677
738279.53520932293031364679,12.4445326090274,-9.85961485641041,337.897986795658
738279.53520941326860338449,12.469150873338,-9.83499659209978,338.021078117211
738279.53520950372330844402,12.469150873338,-9.82268745994446,337.996459852901
738279.53520959417801350355,12.4568417411827,-9.84730572425509,337.885677663503
738279.53520968463271856308,12.4445326090274,-9.83499659209978,337.984150720745
738279.53520977508742362261,12.4445326090274,-9.84730572425509,337.984150720745
738279.53520986542571336031,12.4445326090274,-9.82268745994446,337.922605059969
738279.53520995588041841984,12.4322234768721,-9.87192398856573,337.934914192124
738279.53521004633512347937,12.4199143447167,-9.88423312072105,338.008768985056
738279.53521013678982853889,12.4322234768721,-9.87192398856573,337.996459852901
738279.53521022724453359842,12.4199143447167,-9.90885138503169,337.897986795658
738279.53521031758282333612,12.4076052125614,-9.92116051718701,337.984150720745
738279.53521040803752839565,12.3952960804061,-9.92116051718701,337.947223324279
738279.53521049849223345518,12.3952960804061,-9.92116051718701,337.922605059969
738279.53521058894693851471,12.3952960804061,-9.92116051718701,337.959532456435
738279.53521067940164357424,12.3952960804061,-9.90885138503169,337.947223324279
738279.53521076973993331194,12.4076052125614,-9.90885138503169,337.947223324279
738279.53521086019463837147,12.4076052125614,-9.90885138503169,337.861059399192
738279.53521095064934343100,12.4199143447167,-9.90885138503169,337.97184158859
738279.53521104110404849052,12.4199143447167,-9.94577878149764,337.959532456435
738279.53521113155875355005,12.4445326090274,-9.87192398856573,337.873368531348
738279.53521122189704328775,12.4814600054933,-9.66266874192531,337.996459852901
738279.53521131235174834728,12.6660969878231,-9.20723085217851,337.934914192124
738279.53521140280645340681,12.8014974415316,-8.60408337656789,337.97184158859
738279.53521149326115846634,12.6907152521338,-8.56715598010193,337.910295927814
738279.53521158371586352587,12.3952960804061,-9.41648609881893,337.897986795658
738279.53521167405415326357,12.2598956266976,-9.99501531011892,337.984150720745
738279.53521176450885832310,12.3460595517848,-9.90885138503169,338.021078117211
738279.53521185496356338263,12.4199143447167,-9.82268745994446,338.045696381522
738279.53521194541826844215,12.4322234768721,-9.83499659209978,337.78720460626
738279.53521203587297350168,12.4445326090274,-9.83499659209978,337.737968077639
738279.53521212621126323938,12.4445326090274,-9.83499659209978,337.934914192124
738279.53521221666596829891,12.4568417411827,-9.84730572425509,337.934914192124
738279.53521230712067335844,12.4568417411827,-9.84730572425509,337.97184158859
738279.53521239757537841797,12.469150873338,-9.83499659209978,337.848750267037
738279.53521248803008347750,12.4814600054933,-9.81037832778914,337.910295927814
738279.53521257836837321520,12.469150873338,-9.82268745994446,337.873368531348
738279.53521266882307827473,12.469150873338,-9.84730572425509,337.897986795658
738279.53521275927778333426,12.469150873338,-9.82268745994446,337.934914192124
738279.53521284973248839378,12.4814600054933,-9.79806919563382,337.897986795658
738279.53521294018719345331,12.4937691376487,-9.7857600634785,337.97184158859
738279.53521303052548319101,12.506078269804,-9.77345093132318,337.947223324279
738279.53521312098018825054,12.506078269804,-9.79806919563382,337.97184158859
738279.53521321143489331007,12.5183874019593,-9.76114179916786,337.97184158859
738279.53521330188959836960,12.5306965341146,-9.71190527054659,338.008768985056
738279.53521339234430342913,12.5306965341146,-9.72421440270191,338.021078117211
738279.53521348268259316683,12.5306965341146,-9.72421440270191,337.959532456435
738279.53521357313729822636,12.5553147984252,-9.67497787408063,337.934914192124
738279.53521366359200328588,12.5799330627359,-9.65035960976999,337.959532456435
738279.53521375404670834541,12.5922421948912,-9.61343221330404,338.008768985056
738279.53521384450141340494,12.6168604592018,-9.57650481683808,337.848750267037
738279.53521393483970314264,12.6291695913572,-9.5888139489934,337.811822870571
738279.53521402529440820217,12.6291695913572,-9.56419568468276,337.996459852901
738279.53521411574911326170,12.6291695913572,-9.5272682882168,338.008768985056
738279.53521420620381832123,12.6414787235125,-9.50265002390617,337.910295927814
738279.53521429665852338076,12.6414787235125,-9.5272682882168,337.934914192124
738279.53521438699681311846,12.6414787235125,-9.51495915606148,337.922605059969
738279.53521447745151817799,12.6414787235125,-9.51495915606148,337.910295927814
738279.53521456790622323751,12.6168604592018,-9.55188655252744,337.934914192124
738279.53521465836092829704,12.5922421948912,-9.61343221330404,337.934914192124
738279.53521474881563335657,12.5676239305806,-9.66266874192531,337.922605059969
738279.53521483915392309427,12.5430056662699,-9.67497787408063,337.910295927814
738279.53521492960862815380,12.5183874019593,-9.73652353485722,337.848750267037
738279.53521502006333321333,12.4937691376487,-9.7857600634785,337.947223324279
738279.53521511051803827286,12.4814600054933,-9.77345093132318,337.947223324279
738279.53521520097274333239,12.469150873338,-9.81037832778914,337.97184158859
738279.53521529131103307009,12.4568417411827,-9.83499659209978,337.97184158859
738279.53521538176573812962,12.4568417411827,-9.82268745994446,337.959532456435
738279.53521547222044318914,12.4322234768721,-9.84730572425509,337.774895474105
738279.53521556267514824867,12.4445326090274,-9.85961485641041,337.873368531348
738279.53521565312985330820,12.4322234768721,-9.87192398856573,337.934914192124
738279.53521574346814304590,12.4322234768721,-9.84730572425509,337.959532456435
738279.53521583392284810543,12.4322234768721,-9.85961485641041,337.897986795658
738279.53521592437755316496,12.4322234768721,-9.85961485641041,338.008768985056
738279.53521601483225822449,12.4322234768721,-9.85961485641041,337.97184158859
738279.53521610528696328402,12.4199143447167,-9.87192398856573,337.947223324279
738279.53521619562525302172,12.4445326090274,-9.82268745994446,337.984150720745
738279.53521628607995808125,12.4445326090274,-9.83499659209978,337.97184158859
738279.53521637653466314077,12.4322234768721,-9.83499659209978,337.959532456435
738279.53521646698936820030,12.4199143447167,-9.88423312072105,337.910295927814
738279.53521655744407325983,12.4199143447167,-9.84730572425509,337.947223324279
738279.53521664778236299753,12.4199143447167,-9.88423312072105,337.885677663503
738279.53521673823706805706,12.4199143447167,-9.87192398856573,337.861059399192
738279.53521682869177311659,12.4199143447167,-9.87192398856573,337.897986795658
738279.53521691914647817612,12.4199143447167,-9.88423312072105,337.873368531348
738279.53521700960118323565,12.4322234768721,-9.85961485641041,337.861059399192
738279.53521709993947297335,12.4322234768721,-9.85961485641041,337.885677663503
738279.53521719039417803288,12.4199143447167,-9.87192398856573,337.959532456435
738279.53521728084888309240,12.4199143447167,-9.87192398856573,337.97184158859
738279.53521737130358815193,12.4199143447167,-9.88423312072105,337.959532456435
738279.53521746175829321146,12.4076052125614,-9.89654225287637,337.934914192124
738279.53521755209658294916,12.4076052125614,-9.89654225287637,337.959532456435
738279.53521764255128800869,12.4199143447167,-9.88423312072105,337.97184158859
738279.53521773300599306822,12.3952960804061,-9.89654225287637,337.97184158859
738279.53521782346069812775,12.3952960804061,-9.89654225287637,337.97184158859
738279.53521791391540318727,12.4076052125614,-9.88423312072105,337.848750267037
738279.53521800425369292498,12.3829869482508,-9.93346964934233,337.97184158859
738279.53521809470839798450,12.3952960804061,-9.90885138503169,337.97184158859
738279.53521818516310304403,12.3952960804061,-9.89654225287637,337.885677663503
738279.53521827561780810356,12.3829869482508,-9.89654225287637,337.97184158859
738279.53521836607251316309,12.3829869482508,-9.93346964934233,337.984150720745
738279.53521845641080290079,12.3952960804061,-9.92116051718701,337.959532456435
738279.53521854686550796032,12.3952960804061,-9.88423312072105,337.959532456435
738279.53521863732021301985,12.3952960804061,-9.89654225287637,337.97184158859
738279.53521872777491807938,12.3952960804061,-9.90885138503169,337.959532456435
738279.53521881822962313890,12.3829869482508,-9.93346964934233,337.947223324279
738279.53521890856791287661,12.3829869482508,-9.92116051718701,337.984150720745
738279.53521899902261793613,12.3829869482508,-9.92116051718701,337.848750267037
738279.53521908947732299566,12.3829869482508,-9.92116051718701,337.811822870571
738279.53521917993202805519,12.3829869482508,-9.92116051718701,337.959532456435
738279.53521927038673311472,12.3706778160955,-9.92116051718701,337.984150720745
738279.53521936072502285242,12.3706778160955,-9.92116051718701,337.922605059969
738279.53521945117972791195,12.3829869482508,-9.90885138503169,337.984150720745
738279.53521954163443297148,12.3829869482508,-9.90885138503169,337.97184158859
738279.53521963208913803101,12.3829869482508,-9.93346964934233,337.934914192124
738279.53521972254384309053,12.3952960804061,-9.92116051718701,337.897986795658
738279.53521981288213282824,12.3829869482508,-9.92116051718701,337.984150720745
738279.53521990333683788776,12.3706778160955,-9.90885138503169,337.984150720745
738279.53521999379154294729,12.3829869482508,-9.92116051718701,337.959532456435
738279.53522008424624800682,12.3583686839401,-9.92116051718701,337.959532456435
738279.53522017470095306635,12.3706778160955,-9.95808791365296,337.947223324279
738279.53522026503924280405,12.3829869482508,-9.92116051718701,337.873368531348
738279.53522035549394786358,12.3829869482508,-9.89654225287637,337.873368531348
738279.53522044594865292311,12.3706778160955,-9.90885138503169,337.836441134882
738279.53522053640335798264,12.3706778160955,-9.93346964934233,337.861059399192
738279.53522062685806304216,12.3583686839401,-9.95808791365296,337.861059399192
738279.53522071719635277987,12.3706778160955,-9.92116051718701,337.873368531348
738279.53522080765105783939,12.3706778160955,-9.93346964934233,337.934914192124
738279.53522089810576289892,12.3706778160955,-9.92116051718701,337.934914192124
738279.53522098856046795845,12.3829869482508,-9.92116051718701,337.959532456435
738279.53522107901517301798,12.3706778160955,-9.93346964934233,337.922605059969
738279.53522116935346275568,12.3706778160955,-9.92116051718701,337.97184158859
738279.53522125980816781521,12.3706778160955,-9.89654225287637,337.934914192124
738279.53522135026287287474,12.3952960804061,-9.87192398856573,337.959532456435
738279.53522144071757793427,12.4076052125614,-9.89654225287637,338.008768985056
738279.53522153117228299379,12.3952960804061,-9.88423312072105,338.033387249367
738279.53522162151057273149,12.4076052125614,-9.87192398856573,338.008768985056
738279.53522171196527779102,12.4322234768721,-9.85961485641041,337.885677663503
738279.53522180241998285055,12.4076052125614,-9.87192398856573,338.008768985056
738279.53522189287468791008,12.3952960804061,-9.89654225287637,338.021078117211
738279.53522198332939296961,12.3829869482508,-9.88423312072105,337.996459852901
738279.53522207366768270731,12.3829869482508,-9.88423312072105,337.996459852901
738279.53522216412238776684,12.3829869482508,-9.88423312072105,338.021078117211
738279.53522225457709282637,12.3706778160955,-9.92116051718701,338.021078117211
738279.53522234503179788589,12.3460595517848,-9.93346964934233,337.934914192124
738279.53522243548650294542,12.3460595517848,-9.95808791365296,338.058005513677
738279.53522252582479268312,12.3460595517848,-9.94577878149764,337.861059399192
738279.53522261627949774265,12.3583686839401,-9.94577878149764,337.774895474105
738279.53522270673420280218,12.3460595517848,-9.95808791365296,337.959532456435
738279.53522279718890786171,12.3460595517848,-9.94577878149764,337.934914192124
738279.53522288764361292124,12.3460595517848,-9.94577878149764,337.959532456435
738279.53522297798190265894,12.3583686839401,-9.95808791365296,337.910295927814
738279.53522306843660771847,12.3460595517848,-9.93346964934233,337.984150720745
738279.53522315889131277800,12.3583686839401,-9.95808791365296,337.959532456435
738279.53522324934601783752,12.3706778160955,-9.95808791365296,337.97184158859
738279.53522333980072289705,12.4076052125614,-9.79806919563382,338.045696381522
738279.53522343013901263475,12.5183874019593,-9.46572262744021,338.021078117211
738279.53522352059371769428,12.6168604592018,-9.23184911648915,337.910295927814
738279.53522361104842275381,12.7030243842891,-8.6779381694998,338.094932910143
738279.53522370150312781334,12.5799330627359,-8.71486556596576,337.996459852901
738279.53522379195783287287,12.3214412874742,-9.47803175959553,337.934914192124
738279.53522388229612261057,12.1860408337657,-10.0565609708955,338.021078117211
738279.53522397275082767010,12.2845138910082,-9.93346964934233,338.021078117211
738279.53522406320553272963,12.3706778160955,-9.85961485641041,337.984150720745
738279.53522415366023778915,12.3829869482508,-9.88423312072105,337.959532456435
738279.53522424411494284868,12.3952960804061,-9.88423312072105,337.959532456435
738279.53522433445323258638,12.3952960804061,-9.88423312072105,337.959532456435
738279.53522442490793764591,12.4076052125614,-9.87192398856573,337.897986795658
738279.53522451536264270544,12.4076052125614,-9.89654225287637,337.959532456435
738279.53522460581734776497,12.3952960804061,-9.89654225287637,337.910295927814
738279.53522469627205282450,12.3952960804061,-9.88423312072105,337.922605059969
738279.53522478661034256220,12.4076052125614,-9.88423312072105,337.848750267037
738279.53522487706504762173,12.4076052125614,-9.85961485641041,337.947223324279
738279.53522496751975268126,12.4076052125614,-9.85961485641041,337.885677663503
738279.53522505797445774078,12.4076052125614,-9.84730572425509,337.885677663503
738279.53522514842916280031,12.4199143447167,-9.85961485641041,337.947223324279
738279.53522523876745253801,12.4199143447167,-9.82268745994446,337.836441134882
738279.53522532922215759754,12.4445326090274,-9.83499659209978,337.934914192124
738279.53522541967686265707,12.4445326090274,-9.82268745994446,337.922605059969
738279.53522551013156771660,12.4568417411827,-9.77345093132318,337.836441134882
738279.53522560058627277613,12.469150873338,-9.77345093132318,337.885677663503
738279.53522569092456251383,12.4814600054933,-9.76114179916786,337.922605059969
738279.53522578137926757336,12.506078269804,-9.72421440270191,337.947223324279
738279.53522587183397263288,12.5183874019593,-9.68728700623595,337.959532456435
738279.53522596228867769241,12.5306965341146,-9.67497787408063,337.861059399192
738279.53522605274338275194,12.5306965341146,-9.66266874192531,337.78720460626
738279.53522614308167248964,12.5553147984252,-9.63805047761467,337.750277209794
738279.53522623353637754917,12.5553147984252,-9.61343221330404,337.824132002726
738279.53522632399108260870,12.5676239305806,-9.57650481683808,337.861059399192
738279.53522641444578766823,12.5676239305806,-9.60112308114872,337.910295927814
738279.53522650490049272776,12.5676239305806,-9.60112308114872,337.984150720745
738279.53522659523878246546,12.5553147984252,-9.5888139489934,337.996459852901
738279.53522668569348752499,12.5553147984252,-9.61343221330404,337.897986795658
738279.53522677614819258451,12.5430056662699,-9.62574134545936,337.947223324279
738279.53522686660289764404,12.5183874019593,-9.65035960976999,337.947223324279
738279.53522695705760270357,12.4937691376487,-9.72421440270191,337.885677663503
738279.53522704739589244127,12.4568417411827,-9.77345093132318,337.897986795658
738279.53522713785059750080,12.4445326090274,-9.7857600634785,337.885677663503
738279.53522722830530256033,12.4199143447167,-9.82268745994446,337.922605059969
738279.53522731876000761986,12.4199143447167,-9.85961485641041,337.885677663503
738279.53522740921471267939,12.4076052125614,-9.87192398856573,337.910295927814
738279.53522749955300241709,12.4076052125614,-9.85961485641041,337.934914192124
738279.53522759000770747662,12.3952960804061,-9.88423312072105,337.934914192124
738279.53522768046241253614,12.3829869482508,-9.89654225287637,337.897986795658
738279.53522777091711759567,12.3829869482508,-9.89654225287637,337.885677663503
738279.53522786125540733337,12.3829869482508,-9.89654225287637,337.984150720745
738279.53522795171011239290,12.3829869482508,-9.88423312072105,337.934914192124
738279.53522804216481745243,12.3829869482508,-9.88423312072105,337.959532456435
738279.53522813261952251196,12.3952960804061,-9.89654225287637,337.959532456435
738279.53522822307422757149,12.3829869482508,-9.89654225287637,337.861059399192
738279.53522831341251730919,12.3952960804061,-9.87192398856573,337.934914192124
738279.53522840386722236872,12.3952960804061,-9.89654225287637,337.97184158859
738279.53522849432192742825,12.3952960804061,-9.88423312072105,337.897986795658
738279.53522858477663248777,12.3952960804061,-9.89654225287637,337.910295927814
738279.53522867523133754730,12.3952960804061,-9.89654225287637,337.947223324279
738279.53522876556962728500,12.3952960804061,-9.90885138503169,337.897986795658
738279.53522885602433234453,12.3952960804061,-9.89654225287637,337.885677663503
738279.53522894647903740406,12.3829869482508,-9.89654225287637,337.934914192124
738279.53522903693374246359,12.4076052125614,-9.85961485641041,337.861059399192
738279.53522912738844752312,12.3952960804061,-9.87192398856573,337.959532456435
738279.53522921772673726082,12.3952960804061,-9.89654225287637,337.984150720745
738279.53522930818144232035,12.3952960804061,-9.89654225287637,337.996459852901
738279.53522939863614737988,12.3952960804061,-9.88423312072105,337.934914192124
738279.53522948909085243940,12.3952960804061,-9.90885138503169,337.984150720745
738279.53522957954555749893,12.3952960804061,-9.90885138503169,337.910295927814
738279.53522966988384723663,12.3952960804061,-9.89654225287637,337.76258634195
738279.53522976033855229616,12.3706778160955,-9.90885138503169,337.897986795658
738279.53522985079325735569,12.3706778160955,-9.93346964934233,337.897986795658
738279.53522994124796241522,12.3706778160955,-9.93346964934233,337.922605059969
738279.53523003170266747475,12.3706778160955,-9.90885138503169,337.97184158859
738279.53523012204095721245,12.3706778160955,-9.90885138503169,337.996459852901
738279.53523021249566227198,12.3829869482508,-9.89654225287637,337.885677663503
738279.53523030295036733150,12.3829869482508,-9.92116051718701,338.008768985056
738279.53523039340507239103,12.3829869482508,-9.89654225287637,337.947223324279
738279.53523048385977745056,12.3829869482508,-9.92116051718701,337.873368531348
738279.53523057419806718826,12.3829869482508,-9.90885138503169,337.947223324279
738279.53523066465277224779,12.3829869482508,-9.90885138503169,338.021078117211
738279.53523075510747730732,12.3952960804061,-9.90885138503169,337.959532456435
738279.53523084556218236685,12.3829869482508,-9.92116051718701,337.959532456435
738279.53523093601688742638,12.3829869482508,-9.92116051718701,338.021078117211
738279.53523102635517716408,12.3829869482508,-9.90885138503169,337.97184158859
738279.53523111680988222361,12.3829869482508,-9.90885138503169,337.984150720745
738279.53523120726458728313,12.3829869482508,-9.89654225287637,337.97184158859
738279.53523129771929234266,12.3829869482508,-9.90885138503169,337.984150720745
738279.53523138817399740219,12.3829869482508,-9.90885138503169,337.996459852901
738279.53523147851228713989,12.3706778160955,-9.93346964934233,337.947223324279
738279.53523156896699219942,12.3829869482508,-9.92116051718701,337.97184158859
738279.53523165942169725895,12.3829869482508,-9.92116051718701,337.947223324279
738279.53523174987640231848,12.3829869482508,-9.90885138503169,337.934914192124
738279.53523184033110737801,12.3829869482508,-9.90885138503169,337.934914192124
738279.53523193066939711571,12.3829869482508,-9.89654225287637,337.984150720745
738279.53523202112410217524,12.3829869482508,-9.90885138503169,337.996459852901
738279.53523211157880723476,12.3829869482508,-9.92116051718701,337.934914192124
738279.53523220203351229429,12.3952960804061,-9.90885138503169,337.947223324279
738279.53523229248821735382,12.3829869482508,-9.93346964934233,338.008768985056
738279.53523238282650709152,12.3829869482508,-9.93346964934233,337.885677663503
738279.53523247328121215105,12.3829869482508,-9.92116051718701,337.959532456435
738279.53523256373591721058,12.3829869482508,-9.93346964934233,337.97184158859
738279.53523265419062227011,12.3829869482508,-9.93346964934233,337.910295927814
738279.53523274464532732964,12.3829869482508,-9.92116051718701,337.947223324279
738279.53523283498361706734,12.3706778160955,-9.92116051718701,337.959532456435
738279.53523292543832212687,12.3706778160955,-9.89654225287637,337.897986795658
738279.53523301589302718639,12.3706778160955,-9.92116051718701,337.848750267037
738279.53523310634773224592,12.3706778160955,-9.92116051718701,337.922605059969
738279.53523319680243730545,12.3706778160955,-9.92116051718701,337.774895474105
738279.53523328714072704315,12.3829869482508,-9.90885138503169,337.910295927814
738279.53523337759543210268,12.3952960804061,-9.92116051718701,337.959532456435
738279.53523346805013716221,12.3952960804061,-9.90885138503169,337.873368531348
738279.53523355850484222174,12.3952960804061,-9.89654225287637,337.934914192124
738279.53523364895954728127,12.3952960804061,-9.89654225287637,337.934914192124
738279.53523373929783701897,12.4199143447167,-9.88423312072105,337.885677663503
738279.53523382975254207850,12.4199143447167,-9.85961485641041,337.885677663503
738279.53523392020724713802,12.4322234768721,-9.85961485641041,337.97184158859
738279.53523401066195219755,12.4445326090274,-9.84730572425509,337.897986795658
738279.53523410111665725708,12.4445326090274,-9.82268745994446,337.861059399192
738279.53523419145494699478,12.4199143447167,-9.84730572425509,337.947223324279
738279.53523428190965205431,12.4199143447167,-9.85961485641041,338.021078117211
738279.53523437236435711384,12.3952960804061,-9.85961485641041,337.934914192124
738279.53523446281906217337,12.3952960804061,-9.87192398856573,337.996459852901
738279.53523455327376723289,12.3829869482508,-9.89654225287637,338.045696381522
738279.53523464361205697060,12.3829869482508,-9.93346964934233,338.033387249367
738279.53523473406676203012,12.3706778160955,-9.93346964934233,337.97184158859
738279.53523482452146708965,12.3706778160955,-9.93346964934233,338.021078117211
738279.53523491497617214918,12.3583686839401,-9.95808791365296,338.008768985056
738279.53523500543087720871,12.3706778160955,-9.94577878149764,337.984150720745
738279.53523509576916694641,12.3829869482508,-9.92116051718701,337.97184158859
738279.53523518622387200594,12.3706778160955,-9.90885138503169,337.996459852901
738279.53523527667857706547,12.3829869482508,-9.94577878149764,337.959532456435
738279.53523536713328212500,12.3829869482508,-9.90885138503169,337.959532456435
738279.53523545758798718452,12.3829869482508,-9.90885138503169,337.947223324279
738279.53523554792627692223,12.3952960804061,-9.93346964934233,337.934914192124
738279.53523563838098198175,12.4076052125614,-9.90885138503169,337.861059399192
738279.53523572883568704128,12.4445326090274,-9.71190527054659,337.984150720745
738279.53523581929039210081,12.5922421948912,-9.3303221737317,337.959532456435
738279.53523590974509716034,12.7522609129103,-8.72717469812108,337.97184158859
738279.53523600008338689804,12.7030243842891,-8.40713726208279,337.996459852901
738279.53523609053809195757,12.4076052125614,-9.19492172002319,337.897986795658
738279.53523618099279701710,12.2475864945423,-9.90885138503169,337.996459852901
738279.53523627144750207663,12.2845138910082,-9.95808791365296,337.984150720745
738279.53523636190220713615,12.3829869482508,-9.83499659209978,337.947223324279
738279.53523645224049687386,12.4076052125614,-9.84730572425509,337.947223324279
738279.53523654269520193338,12.4199143447167,-9.83499659209978,337.922605059969
738279.53523663314990699291,12.4199143447167,-9.85961485641041,337.774895474105
738279.53523672360461205244,12.4322234768721,-9.87192398856573,337.873368531348
738279.53523681405931711197,12.4199143447167,-9.87192398856573,337.959532456435
738279.53523690439760684967,12.4199143447167,-9.87192398856573,337.922605059969
738279.53523699485231190920,12.4322234768721,-9.87192398856573,337.910295927814
738279.53523708530701696873,12.4322234768721,-9.87192398856573,337.996459852901
738279.53523717576172202826,12.4322234768721,-9.84730572425509,337.959532456435
738279.53523726621642708778,12.4322234768721,-9.84730572425509,337.897986795658
738279.53523735655471682549,12.4568417411827,-9.81037832778914,337.922605059969
738279.53523744700942188501,12.4568417411827,-9.7857600634785,337.959532456435
738279.53523753746412694454,12.4445326090274,-9.81037832778914,337.922605059969
738279.53523762791883200407,12.4568417411827,-9.7857600634785,337.984150720745
738279.53523771837353706360,12.469150873338,-9.79806919563382,337.996459852901
738279.53523780871182680130,12.4937691376487,-9.74883266701254,337.97184158859
738279.53523789916653186083,12.4937691376487,-9.74883266701254,338.008768985056
738279.53523798962123692036,12.4937691376487,-9.73652353485722,337.996459852901
738279.53523808007594197989,12.506078269804,-9.71190527054659,337.947223324279
738279.53523817053064703941,12.5183874019593,-9.68728700623595,337.97184158859
738279.53523826086893677711,12.5430056662699,-9.63805047761467,338.021078117211
738279.53523835132364183664,12.5553147984252,-9.61343221330404,337.873368531348
738279.53523844177834689617,12.5676239305806,-9.57650481683808,337.959532456435
738279.53523853223305195570,12.5922421948912,-9.5272682882168,337.984150720745
738279.53523862268775701523,12.6045513270465,-9.56419568468276,337.873368531348
738279.53523871302604675293,12.6045513270465,-9.53957742037212,337.885677663503
738279.53523880348075181246,12.5922421948912,-9.5272682882168,337.97184158859
738279.53523889393545687199,12.5922421948912,-9.53957742037212,337.873368531348
738279.53523898439016193151,12.5922421948912,-9.57650481683808,337.897986795658
738279.53523907484486699104,12.5922421948912,-9.55188655252744,337.873368531348
738279.53523916518315672874,12.5676239305806,-9.5888139489934,337.959532456435
738279.53523925563786178827,12.5553147984252,-9.61343221330404,337.947223324279
738279.53523934609256684780,12.5183874019593,-9.66266874192531,337.885677663503
738279.53523943654727190733,12.4937691376487,-9.74883266701254,337.947223324279
738279.53523952700197696686,12.469150873338,-9.76114179916786,337.959532456435
738279.53523961734026670456,12.4445326090274,-9.81037832778914,337.848750267037
738279.53523970779497176409,12.4445326090274,-9.83499659209978,337.836441134882
738279.53523979824967682362,12.4322234768721,-9.84730572425509,337.848750267037
738279.53523988870438188314,12.4199143447167,-9.84730572425509,337.897986795658
738279.53523997915908694267,12.4076052125614,-9.87192398856573,337.897986795658
738279.53524006949737668037,12.4199143447167,-9.85961485641041,337.959532456435
738279.53524015995208173990,12.4076052125614,-9.87192398856573,337.78720460626
738279.53524025040678679943,12.4076052125614,-9.85961485641041,337.774895474105
738279.53524034086149185896,12.4199143447167,-9.83499659209978,337.922605059969
738279.53524043131619691849,12.4199143447167,-9.82268745994446,337.910295927814
738279.53524052165448665619,12.4076052125614,-9.89654225287637,337.910295927814
738279.53524061210919171572,12.4199143447167,-9.85961485641041,337.824132002726
738279.53524070256389677525,12.4199143447167,-9.84730572425509,337.934914192124
738279.53524079301860183477,12.4076052125614,-9.87192398856573,337.97184158859
738279.53524088347330689430,12.4322234768721,-9.85961485641041,337.959532456435
738279.53524097381159663200,12.4322234768721,-9.84730572425509,337.922605059969
738279.53524106426630169153,12.4199143447167,-9.84730572425509,337.97184158859
738279.53524115472100675106,12.4199143447167,-9.85961485641041,337.947223324279
738279.53524124517571181059,12.4199143447167,-9.84730572425509,337.910295927814
738279.53524133563041687012,12.4199143447167,-9.84730572425509,337.959532456435
738279.53524142596870660782,12.4322234768721,-9.83499659209978,337.947223324279
738279.53524151642341166735,12.4199143447167,-9.84730572425509,337.934914192124
738279.53524160687811672688,12.4199143447167,-9.83499659209978,337.861059399192
738279.53524169733282178640,12.4199143447167,-9.89654225287637,337.959532456435
738279.53524178778752684593,12.4199143447167,-9.85961485641041,337.947223324279
738279.53524187812581658363,12.4199143447167,-9.85961485641041,337.897986795658
738279.53524196858052164316,12.4199143447167,-9.87192398856573,337.922605059969
738279.53524205903522670269,12.4199143447167,-9.87192398856573,337.885677663503
738279.53524214948993176222,12.4199143447167,-9.85961485641041,337.910295927814
738279.53524223994463682175,12.4199143447167,-9.87192398856573,337.97184158859
738279.53524233028292655945,12.4076052125614,-9.84730572425509,337.97184158859
738279.53524242073763161898,12.4076052125614,-9.88423312072105,337.897986795658
738279.53524251119233667850,12.3952960804061,-9.90885138503169,337.959532456435
738279.53524260164704173803,12.4076052125614,-9.90885138503169,337.97184158859
738279.53524269210174679756,12.3952960804061,-9.88423312072105,337.959532456435
738279.53524278244003653526,12.3952960804061,-9.89654225287637,337.885677663503
738279.53524287289474159479,12.4076052125614,-9.89654225287637,337.959532456435
738279.53524296334944665432,12.4076052125614,-9.87192398856573,337.922605059969
738279.53524305380415171385,12.4076052125614,-9.87192398856573,337.910295927814
738279.53524314425885677338,12.4076052125614,-9.90885138503169,337.897986795658
738279.53524323459714651108,12.3952960804061,-9.87192398856573,337.947223324279
738279.53524332505185157061,12.4076052125614,-9.90885138503169,337.934914192124
738279.53524341550655663013,12.3952960804061,-9.90885138503169,337.897986795658
738279.53524350596126168966,12.3952960804061,-9.87192398856573,337.922605059969
738279.53524359641596674919,12.3952960804061,-9.89654225287637,337.959532456435
738279.53524368675425648689,12.3952960804061,-9.88423312072105,337.750277209794
738279.53524377720896154642,12.4076052125614,-9.88423312072105,337.848750267037
738279.53524386766366660595,12.3952960804061,-9.89654225287637,337.897986795658
738279.53524395811837166548,12.3952960804061,-9.90885138503169,337.897986795658
738279.53524404857307672501,12.4076052125614,-9.87192398856573,337.959532456435
738279.53524413891136646271,12.3952960804061,-9.90885138503169,337.959532456435
738279.53524422936607152224,12.3829869482508,-9.90885138503169,337.996459852901
738279.53524431982077658176,12.3952960804061,-9.90885138503169,337.984150720745
738279.53524441027548164129,12.3952960804061,-9.89654225287637,337.984150720745
738279.53524450073018670082,12.3952960804061,-9.89654225287637,337.824132002726
738279.53524459106847643852,12.3952960804061,-9.89654225287637,337.97184158859
738279.53524468152318149805,12.3952960804061,-9.89654225287637,337.959532456435
738279.53524477197788655758,12.3952960804061,-9.88423312072105,337.934914192124
738279.53524486243259161711,12.4076052125614,-9.89654225287637,337.922605059969
738279.53524495288729667664,12.3952960804061,-9.87192398856573,337.934914192124
738279.53524504322558641434,12.4076052125614,-9.89654225287637,337.947223324279
738279.53524513368029147387,12.4199143447167,-9.87192398856573,337.934914192124
738279.53524522413499653339,12.4322234768721,-9.82268745994446,337.922605059969
738279.53524531458970159292,12.4322234768721,-9.88423312072105,337.97184158859
738279.53524540504440665245,12.4445326090274,-9.81037832778914,337.947223324279
738279.53524549538269639015,12.4568417411827,-9.79806919563382,337.848750267037
738279.53524558583740144968,12.4322234768721,-9.84730572425509,337.947223324279
738279.53524567629210650921,12.4322234768721,-9.84730572425509,337.97184158859
738279.53524576674681156874,12.4199143447167,-9.83499659209978,337.97184158859
738279.53524585720151662827,12.4076052125614,-9.84730572425509,337.984150720745
738279.53524594753980636597,12.3952960804061,-9.85961485641041,337.97184158859
738279.53524603799451142550,12.3952960804061,-9.89654225287637,337.947223324279
738279.53524612844921648502,12.3829869482508,-9.90885138503169,337.984150720745
738279.53524621890392154455,12.3829869482508,-9.92116051718701,337.97184158859
738279.53524630935862660408,12.3706778160955,-9.93346964934233,337.959532456435
738279.53524639969691634178,12.3706778160955,-9.92116051718701,337.947223324279
738279.53524649015162140131,12.3829869482508,-9.90885138503169,337.848750267037
738279.53524658060632646084,12.3829869482508,-9.90885138503169,337.947223324279
738279.53524667106103152037,12.3952960804061,-9.90885138503169,337.947223324279
738279.53524676151573657990,12.3829869482508,-9.93346964934233,337.922605059969
738279.53524685185402631760,12.3829869482508,-9.92116051718701,337.947223324279
738279.53524694230873137712,12.3829869482508,-9.89654225287637,337.873368531348
738279.53524703276343643665,12.4076052125614,-9.92116051718701,337.861059399192
738279.53524712321814149618,12.4199143447167,-9.87192398856573,337.910295927814
738279.53524721367284655571,12.4814600054933,-9.61343221330404,337.910295927814
738279.53524730401113629341,12.6660969878231,-9.17030345571256,337.811822870571
738279.53524739446584135294,12.7645700450657,-8.56715598010193,337.910295927814
738279.53524748492054641247,12.6291695913572,-8.64101077303384,337.959532456435
738279.53524757537525147200,12.3460595517848,-9.42879523097425,337.996459852901
738279.53524766582995653152,12.2106590980763,-10.0565609708955,337.996459852901
738279.53524775616824626923,12.3337504196295,-9.87192398856573,338.021078117211
738279.53524784662295132875,12.3952960804061,-9.81037832778914,338.008768985056
738279.53524793707765638828,12.4199143447167,-9.83499659209978,337.959532456435
738279.53524802753236144781,12.4199143447167,-9.85961485641041,337.934914192124
738279.53524811798706650734,12.4322234768721,-9.83499659209978,337.934914192124
738279.53524820832535624504,12.4322234768721,-9.85961485641041,337.947223324279
738279.53524829878006130457,12.4322234768721,-9.85961485641041,337.97184158859
738279.53524838923476636410,12.4322234768721,-9.85961485641041,337.947223324279
738279.53524847968947142363,12.4445326090274,-9.82268745994446,337.922605059969
738279.53524857014417648315,12.4568417411827,-9.83499659209978,337.922605059969
738279.53524866048246622086,12.4445326090274,-9.81037832778914,337.934914192124
738279.53524875093717128038,12.469150873338,-9.7857600634785,337.897986795658
738279.53524884139187633991,12.469150873338,-9.84730572425509,337.934914192124
738279.53524893184658139944,12.469150873338,-9.7857600634785,337.922605059969
738279.53524902230128645897,12.469150873338,-9.7857600634785,337.848750267037
738279.53524911263957619667,12.4814600054933,-9.7857600634785,337.934914192124
738279.53524920309428125620,12.4937691376487,-9.76114179916786,337.922605059969
738279.53524929354898631573,12.506078269804,-9.72421440270191,337.910295927814
738279.53524938400369137526,12.5183874019593,-9.71190527054659,337.897986795658
738279.53524947434198111296,12.5306965341146,-9.68728700623595,337.910295927814
738279.53524956479668617249,12.5430056662699,-9.66266874192531,337.910295927814
738279.53524965525139123201,12.5553147984252,-9.65035960976999,337.897986795658
738279.53524974570609629154,12.5799330627359,-9.5888139489934,337.922605059969
738279.53524983616080135107,12.5922421948912,-9.5888139489934,337.922605059969
738279.53524992649909108877,12.6168604592018,-9.55188655252744,337.848750267037
738279.53525001695379614830,12.6168604592018,-9.5272682882168,337.897986795658
738279.53525010740850120783,12.6291695913572,-9.51495915606148,337.922605059969
738279.53525019786320626736,12.6291695913572,-9.50265002390617,337.848750267037
738279.53525028831791132689,12.6414787235125,-9.50265002390617,337.824132002726
738279.53525037865620106459,12.6414787235125,-9.50265002390617,337.934914192124
738279.53525046911090612411,12.6291695913572,-9.51495915606148,337.934914192124
738279.53525055956561118364,12.6045513270465,-9.53957742037212,337.848750267037
738279.53525065002031624317,12.5922421948912,-9.5888139489934,337.799513738416
738279.53525074047502130270,12.5676239305806,-9.62574134545936,337.78720460626
738279.53525083081331104040,12.5430056662699,-9.67497787408063,337.737968077639
738279.53525092126801609993,12.5183874019593,-9.68728700623595,337.861059399192
738279.53525101172272115946,12.4937691376487,-9.76114179916786,337.861059399192
738279.53525110217742621899,12.4814600054933,-9.77345093132318,337.873368531348
738279.53525119263213127851,12.469150873338,-9.7857600634785,337.885677663503
738279.53525128297042101622,12.469150873338,-9.7857600634785,337.984150720745
738279.53525137342512607574,12.4568417411827,-9.81037832778914,338.008768985056
738279.53525146387983113527,12.4568417411827,-9.82268745994446,337.959532456435
738279.53525155433453619480,12.4445326090274,-9.82268745994446,337.996459852901
738279.53525164478924125433,12.4445326090274,-9.81037832778914,338.008768985056
738279.53525173512753099203,12.4568417411827,-9.83499659209978,337.959532456435
738279.53525182558223605156,12.4568417411827,-9.81037832778914,338.045696381522
738279.53525191603694111109,12.4568417411827,-9.79806919563382,337.97184158859
738279.53525200649164617062,12.469150873338,-9.82268745994446,337.984150720745
738279.53525209694635123014,12.469150873338,-9.82268745994446,337.934914192124
738279.53525218728464096785,12.4568417411827,-9.81037832778914,337.947223324279
738279.53525227773934602737,12.469150873338,-9.7857600634785,337.97184158859
738279.53525236819405108690,12.4814600054933,-9.81037832778914,337.848750267037
738279.53525245864875614643,12.4814600054933,-9.79806919563382,337.959532456435
738279.53525254910346120596,12.469150873338,-9.79806919563382,337.97184158859
738279.53525263944175094366,12.469150873338,-9.79806919563382,337.922605059969
738279.53525272989645600319,12.4814600054933,-9.7857600634785,337.947223324279
738279.53525282035116106272,12.4814600054933,-9.7857600634785,337.97184158859
738279.53525291080586612225,12.4814600054933,-9.7857600634785,337.934914192124
738279.53525300126057118177,12.469150873338,-9.82268745994446,337.922605059969
738279.53525309159886091948,12.469150873338,-9.7857600634785,337.934914192124
738279.53525318205356597900,12.469150873338,-9.81037832778914,337.97184158859
738279.53525327250827103853,12.469150873338,-9.81037832778914,337.897986795658
738279.53525336296297609806,12.469150873338,-9.81037832778914,337.947223324279
738279.53525345341768115759,12.469150873338,-9.82268745994446,337.97184158859
738279.53525354375597089529,12.469150873338,-9.82268745994446,337.922605059969
738279.53525363421067595482,12.4568417411827,-9.83499659209978,337.947223324279
738279.53525372466538101435,12.4568417411827,-9.81037832778914,337.959532456435
738279.53525381512008607388,12.4568417411827,-9.84730572425509,337.910295927814
738279.53525390557479113340,12.4568417411827,-9.82268745994446,337.910295927814
738279.53525399591308087111,12.4568417411827,-9.82268745994446,337.922605059969
738279.53525408636778593063,12.4568417411827,-9.81037832778914,337.922605059969
738279.53525417682249099016,12.4445326090274,-9.83499659209978,337.873368531348
738279.53525426727719604969,12.4445326090274,-9.84730572425509,337.811822870571
738279.53525435773190110922,12.4568417411827,-9.82268745994446,337.713349813328
738279.53525444807019084692,12.4568417411827,-9.84730572425509,337.848750267037
738279.53525453852489590645,12.4445326090274,-9.83499659209978,337.910295927814
738279.53525462897960096598,12.4445326090274,-9.84730572425509,337.861059399192
738279.53525471943430602551,12.4445326090274,-9.84730572425509,337.836441134882
738279.53525480988901108503,12.4568417411827,-9.82268745994446,337.885677663503
738279.53525490022730082273,12.4568417411827,-9.82268745994446,337.934914192124
738279.53525499068200588226,12.4568417411827,-9.82268745994446,337.897986795658
738279.53525508113671094179,12.4568417411827,-9.83499659209978,337.897986795658
738279.53525517159141600132,12.4445326090274,-9.82268745994446,337.873368531348
738279.53525526204612106085,12.4445326090274,-9.85961485641041,337.934914192124
738279.53525535238441079855,12.4322234768721,-9.85961485641041,337.934914192124
738279.53525544283911585808,12.4322234768721,-9.85961485641041,337.934914192124
738279.53525553329382091761,12.4445326090274,-9.83499659209978,337.984150720745
738279.53525562374852597713,12.4445326090274,-9.83499659209978,337.934914192124
738279.53525571420323103666,12.4322234768721,-9.85961485641041,337.959532456435
738279.53525580454152077436,12.4322234768721,-9.87192398856573,337.947223324279
738279.53525589499622583389,12.4322234768721,-9.85961485641041,337.996459852901
738279.53525598545093089342,12.4322234768721,-9.84730572425509,337.996459852901
738279.53525607590563595295,12.4199143447167,-9.88423312072105,337.934914192124
738279.53525616636034101248,12.4199143447167,-9.87192398856573,337.947223324279
738279.53525625669863075018,12.4199143447167,-9.87192398856573,337.984150720745
738279.53525634715333580971,12.4076052125614,-9.87192398856573,337.947223324279
738279.53525643760804086924,12.4199143447167,-9.87192398856573,337.934914192124
738279.53525652806274592876,12.4076052125614,-9.88423312072105,337.996459852901
738279.53525661851745098829,12.3952960804061,-9.89654225287637,337.984150720745
738279.53525670885574072599,12.3829869482508,-9.87192398856573,337.910295927814
738279.53525679931044578552,12.3952960804061,-9.92116051718701,337.984150720745
738279.53525688976515084505,12.3829869482508,-9.90885138503169,337.996459852901
738279.53525698021985590458,12.3952960804061,-9.88423312072105,337.922605059969
738279.53525707067456096411,12.3952960804061,-9.89654225287637,337.984150720745
738279.53525716101285070181,12.3952960804061,-9.92116051718701,338.021078117211
738279.53525725146755576134,12.3952960804061,-9.88423312072105,338.021078117211
738279.53525734192226082087,12.3952960804061,-9.87192398856573,337.934914192124
738279.53525743237696588039,12.4076052125614,-9.84730572425509,337.947223324279
738279.53525752283167093992,12.3952960804061,-9.87192398856573,337.996459852901
738279.53525761316996067762,12.4199143447167,-9.85961485641041,337.922605059969
738279.53525770362466573715,12.4199143447167,-9.84730572425509,337.97184158859
738279.53525779407937079668,12.4199143447167,-9.85961485641041,337.947223324279
738279.53525788453407585621,12.3952960804061,-9.85961485641041,337.811822870571
738279.53525797498878091574,12.3952960804061,-9.87192398856573,337.922605059969
738279.53525806532707065344,12.3829869482508,-9.87192398856573,337.996459852901
738279.53525815578177571297,12.3829869482508,-9.87192398856573,337.996459852901
738279.53525824623648077250,12.3706778160955,-9.89654225287637,337.885677663503
738279.53525833669118583202,12.3583686839401,-9.92116051718701,337.959532456435
738279.53525842714589089155,12.3583686839401,-9.92116051718701,337.922605059969
738279.53525851748418062925,12.3460595517848,-9.93346964934233,337.922605059969
738279.53525860793888568878,12.3460595517848,-9.92116051718701,337.910295927814
738279.53525869839359074831,12.3460595517848,-9.94577878149764,337.922605059969
738279.53525878884829580784,12.3460595517848,-9.94577878149764,337.824132002726
738279.53525887930300086737,12.3583686839401,-9.93346964934233,337.959532456435
738279.53525896964129060507,12.3460595517848,-9.94577878149764,337.947223324279
738279.53525906009599566460,12.3583686839401,-9.93346964934233,337.996459852901
738279.53525915055070072412,12.3583686839401,-9.93346964934233,337.910295927814
738279.53525924100540578365,12.3583686839401,-9.95808791365296,337.947223324279
738279.53525933146011084318,12.3829869482508,-9.88423312072105,337.996459852901
738279.53525942179840058088,12.4445326090274,-9.61343221330404,337.984150720745
738279.53525951225310564041,12.6414787235125,-9.18261258786788,337.947223324279
738279.53525960270781069994,12.7030243842891,-8.64101077303384,338.082623777988
738279.53525969316251575947,12.6660969878231,-8.51791945148066,338.082623777988
738279.53525978361722081900,12.4199143447167,-9.1333760592466,337.996459852901
738279.53525987395551055670,12.2229682302316,-9.84730572425509,338.070314645833
738279.53525996441021561623,12.235277362387,-10.0196335744296,338.094932910143
738279.53526005486492067575,12.3583686839401,-9.85961485641041,337.996459852901
738279.53526014531962573528,12.3829869482508,-9.83499659209978,338.021078117211
738279.53526023577433079481,12.3952960804061,-9.87192398856573,337.996459852901
738279.53526032611262053251,12.3952960804061,-9.87192398856573,337.873368531348
738279.53526041656732559204,12.3952960804061,-9.88423312072105,337.947223324279
738279.53526050702203065157,12.4076052125614,-9.84730572425509,337.947223324279
738279.53526059747673571110,12.3952960804061,-9.87192398856573,337.861059399192
738279.53526068793144077063,12.4076052125614,-9.85961485641041,337.922605059969
738279.53526077826973050833,12.4076052125614,-9.85961485641041,337.947223324279
738279.53526086872443556786,12.4322234768721,-9.82268745994446,337.897986795658
738279.53526095917914062738,12.4322234768721,-9.83499659209978,337.934914192124
738279.53526104963384568691,12.4199143447167,-9.82268745994446,337.959532456435
738279.53526114008855074644,12.4199143447167,-9.82268745994446,337.922605059969
738279.53526123042684048414,12.4322234768721,-9.82268745994446,337.897986795658
738279.53526132088154554367,12.4445326090274,-9.79806919563382,337.750277209794
738279.53526141133625060320,12.4568417411827,-9.81037832778914,337.848750267037
738279.53526150179095566273,12.4568417411827,-9.76114179916786,337.848750267037
738279.53526159224566072226,12.469150873338,-9.74883266701254,337.897986795658
738279.53526168258395045996,12.4814600054933,-9.72421440270191,337.922605059969
738279.53526177303865551949,12.4937691376487,-9.73652353485722,337.873368531348
738279.53526186349336057901,12.506078269804,-9.68728700623595,337.811822870571
738279.53526195394806563854,12.5183874019593,-9.66266874192531,337.873368531348
738279.53526204440277069807,12.5553147984252,-9.60112308114872,337.861059399192
738279.53526213474106043577,12.5553147984252,-9.62574134545936,337.811822870571
738279.53526222519576549530,12.5799330627359,-9.57650481683808,337.885677663503
738279.53526231565047055483,12.5799330627359,-9.57650481683808,337.836441134882
738279.53526240610517561436,12.5799330627359,-9.56419568468276,337.861059399192
738279.53526249655988067389,12.5922421948912,-9.55188655252744,337.824132002726
738279.53526258689817041159,12.5922421948912,-9.55188655252744,337.873368531348
738279.53526267735287547112,12.5676239305806,-9.57650481683808,337.873368531348
738279.53526276780758053064,12.5676239305806,-9.5888139489934,337.873368531348
738279.53526285826228559017,12.5430056662699,-9.62574134545936,337.861059399192
738279.53526294871699064970,12.5183874019593,-9.67497787408063,337.861059399192
738279.53526303905528038740,12.506078269804,-9.69959613839127,337.897986795658
738279.53526312950998544693,12.469150873338,-9.74883266701254,337.934914192124
738279.53526321996469050646,12.4445326090274,-9.77345093132318,337.947223324279
738279.53526331041939556599,12.4322234768721,-9.82268745994446,337.861059399192
738279.53526340087410062551,12.4322234768721,-9.82268745994446,337.97184158859
738279.53526349121239036322,12.4322234768721,-9.82268745994446,337.947223324279
738279.53526358166709542274,12.4199143447167,-9.83499659209978,337.959532456435
738279.53526367212180048227,12.4199143447167,-9.85961485641041,337.910295927814
738279.53526376257650554180,12.4199143447167,-9.84730572425509,337.934914192124
738279.53526385303121060133,12.4076052125614,-9.83499659209978,337.996459852901
738279.53526394336950033903,12.4076052125614,-9.85961485641041,337.947223324279
738279.53526403382420539856,12.4076052125614,-9.84730572425509,337.996459852901
738279.53526412427891045809,12.4076052125614,-9.84730572425509,337.996459852901
738279.53526421473361551762,12.4076052125614,-9.84730572425509,338.008768985056
738279.53526430518832057714,12.4199143447167,-9.84730572425509,337.861059399192
738279.53526439552661031485,12.4322234768721,-9.83499659209978,337.996459852901
738279.53526448598131537437,12.4199143447167,-9.82268745994446,337.984150720745
738279.53526457643602043390,12.4199143447167,-9.84730572425509,337.996459852901
738279.53526466689072549343,12.4199143447167,-9.84730572425509,337.934914192124
738279.53526475734543055296,12.4199143447167,-9.85961485641041,337.996459852901
738279.53526484768372029066,12.4199143447167,-9.84730572425509,337.824132002726
738279.53526493813842535019,12.4322234768721,-9.83499659209978,337.78720460626
738279.53526502859313040972,12.4199143447167,-9.83499659209978,337.97184158859
738279.53526511904783546925,12.4322234768721,-9.84730572425509,337.947223324279
738279.53526520950254052877,12.4322234768721,-9.84730572425509,337.897986795658
738279.53526529984083026648,12.4445326090274,-9.84730572425509,337.947223324279
738279.53526539029553532600,12.4322234768721,-9.83499659209978,337.959532456435
738279.53526548075024038553,12.4322234768721,-9.84730572425509,337.97184158859
738279.53526557120494544506,12.4322234768721,-9.83499659209978,337.885677663503
738279.53526566165965050459,12.4322234768721,-9.85961485641041,337.959532456435
738279.53526575199794024229,12.4199143447167,-9.87192398856573,337.959532456435
738279.53526584245264530182,12.4199143447167,-9.88423312072105,337.910295927814
738279.53526593290735036135,12.4199143447167,-9.84730572425509,337.922605059969
738279.53526602336205542088,12.4199143447167,-9.85961485641041,337.861059399192
738279.53526611381676048040,12.4199143447167,-9.85961485641041,337.922605059969
738279.53526620415505021811,12.4199143447167,-9.87192398856573,337.897986795658
738279.53526629460975527763,12.4199143447167,-9.85961485641041,337.836441134882
738279.53526638506446033716,12.4199143447167,-9.87192398856573,337.848750267037
738279.53526647551916539669,12.4199143447167,-9.83499659209978,337.861059399192
738279.53526656597387045622,12.4322234768721,-9.84730572425509,337.885677663503
738279.53526665631216019392,12.4199143447167,-9.89654225287637,337.811822870571
738279.53526674676686525345,12.4199143447167,-9.85961485641041,337.848750267037
738279.53526683722157031298,12.4199143447167,-9.85961485641041,337.885677663503
738279.53526692767627537251,12.4199143447167,-9.85961485641041,337.947223324279
738279.53526701813098043203,12.4322234768721,-9.85961485641041,337.947223324279
738279.53526710846927016973,12.4322234768721,-9.87192398856573,337.959532456435
738279.53526719892397522926,12.4322234768721,-9.85961485641041,338.008768985056
738279.53526728937868028879,12.4199143447167,-9.85961485641041,337.984150720745
738279.53526737983338534832,12.4322234768721,-9.85961485641041,337.97184158859
738279.53526747028809040785,12.4445326090274,-9.84730572425509,337.996459852901
738279.53526756062638014555,12.4322234768721,-9.84730572425509,338.021078117211
738279.53526765108108520508,12.4322234768721,-9.85961485641041,337.947223324279
738279.53526774153579026461,12.4322234768721,-9.85961485641041,337.947223324279
738279.53526783199049532413,12.4445326090274,-9.84730572425509,337.984150720745
738279.53526792244520038366,12.4445326090274,-9.85961485641041,338.021078117211
738279.53526801278349012136,12.4445326090274,-9.84730572425509,337.934914192124
738279.53526810323819518089,12.4445326090274,-9.84730572425509,337.97184158859
738279.53526819369290024042,12.4445326090274,-9.84730572425509,338.033387249367
738279.53526828414760529995,12.4445326090274,-9.83499659209978,337.885677663503
738279.53526837460231035948,12.4322234768721,-9.83499659209978,337.811822870571
738279.53526846494060009718,12.4445326090274,-9.87192398856573,337.861059399192
738279.53526855539530515671,12.4445326090274,-9.83499659209978,337.97184158859
738279.53526864585001021624,12.4445326090274,-9.83499659209978,337.848750267037
738279.53526873630471527576,12.4568417411827,-9.84730572425509,337.934914192124
738279.53526882675942033529,12.4568417411827,-9.83499659209978,337.97184158859
738279.53526891709771007299,12.4568417411827,-9.83499659209978,337.934914192124
738279.53526900755241513252,12.4568417411827,-9.85961485641041,337.897986795658
738279.53526909800712019205,12.4568417411827,-9.83499659209978,337.959532456435
738279.53526918846182525158,12.4568417411827,-9.83499659209978,337.959532456435
738279.53526927891653031111,12.4568417411827,-9.83499659209978,337.97184158859
738279.53526936925482004881,12.4568417411827,-9.83499659209978,337.947223324279
738279.53526945970952510834,12.4568417411827,-9.83499659209978,337.934914192124
738279.53526955016423016787,12.469150873338,-9.84730572425509,337.947223324279
738279.53526964061893522739,12.469150873338,-9.79806919563382,337.897986795658
738279.53526973107364028692,12.4814600054933,-9.7857600634785,337.984150720745
738279.53526982141193002462,12.4814600054933,-9.79806919563382,337.934914192124
738279.53526991186663508415,12.4937691376487,-9.7857600634785,337.885677663503
738279.53527000232134014368,12.5183874019593,-9.76114179916786,337.861059399192
738279.53527009277604520321,12.5183874019593,-9.76114179916786,337.959532456435
738279.53527018323075026274,12.4937691376487,-9.7857600634785,337.984150720745
738279.53527027356904000044,12.4814600054933,-9.7857600634785,337.922605059969
738279.53527036402374505997,12.506078269804,-9.74883266701254,337.97184158859
738279.53527045447845011950,12.4937691376487,-9.76114179916786,337.959532456435
738279.53527054493315517902,12.469150873338,-9.81037832778914,337.947223324279
738279.53527063538786023855,12.4445326090274,-9.83499659209978,337.836441134882
738279.53527072572614997625,12.4445326090274,-9.84730572425509,337.934914192124
738279.53527081618085503578,12.4568417411827,-9.84730572425509,337.934914192124
738279.53527090663556009531,12.4445326090274,-9.84730572425509,337.922605059969
738279.53527099709026515484,12.4445326090274,-9.84730572425509,337.922605059969
738279.53527108742855489254,12.4445326090274,-9.84730572425509,337.934914192124
738279.53527117788325995207,12.4445326090274,-9.84730572425509,337.947223324279
738279.53527126833796501160,12.469150873338,-9.84730572425509,337.922605059969
738279.53527135879267007113,12.469150873338,-9.84730572425509,337.934914192124
738279.53527144924737513065,12.469150873338,-9.83499659209978,337.922605059969
738279.53527153958566486835,12.469150873338,-9.84730572425509,337.897986795658
738279.53527163004036992788,12.469150873338,-9.85961485641041,337.922605059969
738279.53527172049507498741,12.5183874019593,-9.72421440270191,337.947223324279
738279.53527181094978004694,12.6168604592018,-9.36724957019766,337.984150720745
738279.53527190140448510647,12.8138065736869,-8.82564775536363,337.78720460626
738279.53527199174277484417,12.8138065736869,-8.37020986561683,337.885677663503
738279.53527208219747990370,12.5553147984252,-8.92412081260618,337.861059399192
738279.53527217265218496323,12.3583686839401,-9.66266874192531,337.861059399192
738279.53527226310689002275,12.3460595517848,-9.93346964934233,338.008768985056
738279.53527235356159508228,12.469150873338,-9.77345093132318,338.008768985056
738279.53527244389988481998,12.4814600054933,-9.72421440270191,337.97184158859
738279.53527253435458987951,12.4814600054933,-9.77345093132318,337.934914192124
738279.53527262480929493904,12.506078269804,-9.77345093132318,337.934914192124
738279.53527271526399999857,12.5183874019593,-9.77345093132318,337.922605059969
738279.53527280571870505810,12.506078269804,-9.76114179916786,337.861059399192
738279.53527289605699479580,12.506078269804,-9.7857600634785,337.922605059969
738279.53527298651169985533,12.5183874019593,-9.7857600634785,337.934914192124
738279.53527307696640491486,12.5183874019593,-9.77345093132318,337.922605059969
738279.53527316742110997438,12.5183874019593,-9.74883266701254,337.811822870571
738279.53527325787581503391,12.5183874019593,-9.74883266701254,337.934914192124
738279.53527334821410477161,12.5183874019593,-9.76114179916786,337.910295927814
738279.53527343866880983114,12.5306965341146,-9.72421440270191,337.836441134882
738279.53527352912351489067,12.5430056662699,-9.72421440270191,337.897986795658
738279.53527361957821995020,12.5430056662699,-9.72421440270191,337.934914192124
738279.53527371003292500973,12.5430056662699,-9.71190527054659,337.897986795658
738279.53527380037121474743,12.5799330627359,-9.67497787408063,337.910295927814
738279.53527389082591980696,12.5799330627359,-9.66266874192531,337.934914192124
738279.53527398128062486649,12.5922421948912,-9.65035960976999,337.922605059969
738279.53527407173532992601,12.6045513270465,-9.62574134545936,337.861059399192
738279.53527416219003498554,12.6168604592018,-9.5888139489934,337.922605059969
738279.53527425252832472324,12.6414787235125,-9.56419568468276,337.910295927814
738279.53527434298302978277,12.6537878556678,-9.53957742037212,337.897986795658
738279.53527443343773484230,12.6660969878231,-9.51495915606148,337.885677663503
738279.53527452389243990183,12.6784061199784,-9.47803175959553,337.934914192124
738279.53527461434714496136,12.6907152521338,-9.45341349528489,337.910295927814
738279.53527470468543469906,12.6907152521338,-9.45341349528489,337.922605059969
738279.53527479514013975859,12.7030243842891,-9.45341349528489,337.885677663503
738279.53527488559484481812,12.6784061199784,-9.46572262744021,337.885677663503
738279.53527497604954987764,12.6784061199784,-9.45341349528489,337.910295927814
738279.53527506650425493717,12.6537878556678,-9.49034089175085,337.885677663503
738279.53527515684254467487,12.6660969878231,-9.50265002390617,337.824132002726
738279.53527524729724973440,12.6537878556678,-9.53957742037212,337.885677663503
738279.53527533775195479393,12.6291695913572,-9.5888139489934,337.910295927814
738279.53527542820665985346,12.5553147984252,-9.66266874192531,337.824132002726
738279.53527551866136491299,12.5676239305806,-9.67497787408063,337.78720460626
738279.53527560899965465069,12.5430056662699,-9.73652353485722,337.922605059969
738279.53527569945435971022,12.5430056662699,-9.72421440270191,337.922605059969
738279.53527578990906476974,12.5430056662699,-9.72421440270191,337.799513738416
738279.53527588036376982927,12.5183874019593,-9.74883266701254,337.934914192124
738279.53527597081847488880,12.506078269804,-9.77345093132318,337.947223324279
738279.53527606115676462650,12.4937691376487,-9.79806919563382,337.934914192124
738279.53527615161146968603,12.506078269804,-9.7857600634785,337.934914192124
738279.53527624206617474556,12.506078269804,-9.77345093132318,337.934914192124
738279.53527633252087980509,12.506078269804,-9.76114179916786,337.947223324279
738279.53527642297558486462,12.506078269804,-9.76114179916786,337.873368531348
738279.53527651331387460232,12.5306965341146,-9.76114179916786,337.922605059969
738279.53527660376857966185,12.5306965341146,-9.76114179916786,337.934914192124
738279.53527669422328472137,12.5430056662699,-9.74883266701254,337.922605059969
738279.53527678467798978090,12.5183874019593,-9.76114179916786,337.947223324279
738279.53527687513269484043,12.5430056662699,-9.74883266701254,337.959532456435
738279.53527696547098457813,12.5430056662699,-9.73652353485722,337.947223324279
738279.53527705592568963766,12.5430056662699,-9.73652353485722,337.934914192124
738279.53527714638039469719,12.5306965341146,-9.77345093132318,337.934914192124
738279.53527723683509975672,12.5430056662699,-9.74883266701254,337.922605059969
738279.53527732728980481625,12.5430056662699,-9.73652353485722,337.836441134882
738279.53527741762809455395,12.5306965341146,-9.73652353485722,337.848750267037
738279.53527750808279961348,12.5430056662699,-9.74883266701254,337.885677663503
738279.53527759853750467300,12.5430056662699,-9.73652353485722,337.861059399192
738279.53527768899220973253,12.5430056662699,-9.77345093132318,337.885677663503
738279.53527777944691479206,12.5430056662699,-9.74883266701254,337.947223324279
738279.53527786978520452976,12.5430056662699,-9.74883266701254,337.873368531348
738279.53527796023990958929,12.5306965341146,-9.76114179916786,337.934914192124
738279.53527805069461464882,12.5306965341146,-9.74883266701254,337.947223324279
738279.53527814114931970835,12.5183874019593,-9.77345093132318,337.897986795658
738279.53527823160402476788,12.5306965341146,-9.77345093132318,337.910295927814
738279.53527832194231450558,12.5430056662699,-9.76114179916786,337.897986795658
738279.53527841239701956511,12.5306965341146,-9.76114179916786,337.910295927814
738279.53527850285172462463,12.506078269804,-9.79806919563382,337.873368531348
738279.53527859330642968416,12.5183874019593,-9.77345093132318,337.897986795658
738279.53527868376113474369,12.5183874019593,-9.7857600634785,337.897986795658
738279.53527877409942448139,12.5306965341146,-9.77345093132318,337.897986795658
738279.53527886455412954092,12.5183874019593,-9.7857600634785,337.922605059969
738279.53527895500883460045,12.506078269804,-9.7857600634785,337.873368531348
738279.53527904546353965998,12.5183874019593,-9.77345093132318,337.76258634195
738279.53527913591824471951,12.506078269804,-9.7857600634785,337.934914192124
738279.53527922625653445721,12.5183874019593,-9.7857600634785,337.947223324279
738279.53527931671123951674,12.5183874019593,-9.81037832778914,337.947223324279
738279.53527940716594457626,12.5183874019593,-9.7857600634785,337.922605059969
738279.53527949762064963579,12.5183874019593,-9.77345093132318,337.947223324279
738279.53527958807535469532,12.506078269804,-9.79806919563382,337.885677663503
738279.53527967841364443302,12.506078269804,-9.79806919563382,337.947223324279
738279.53527976886834949255,12.4937691376487,-9.81037832778914,337.885677663503
738279.53527985932305455208,12.506078269804,-9.81037832778914,337.848750267037
738279.53527994977775961161,12.5183874019593,-9.76114179916786,337.934914192124
738279.53528004023246467113,12.5183874019593,-9.7857600634785,337.922605059969
738279.53528013057075440884,12.506078269804,-9.7857600634785,337.959532456435
738279.53528022102545946836,12.5306965341146,-9.77345093132318,337.910295927814
738279.53528031148016452789,12.506078269804,-9.79806919563382,337.97184158859
738279.53528040193486958742,12.506078269804,-9.81037832778914,337.996459852901
738279.53528049238957464695,12.506078269804,-9.79806919563382,337.885677663503
738279.53528058272786438465,12.4937691376487,-9.79806919563382,337.922605059969
738279.53528067318256944418,12.4937691376487,-9.79806919563382,337.97184158859
738279.53528076363727450371,12.506078269804,-9.81037832778914,338.008768985056
738279.53528085409197956324,12.506078269804,-9.77345093132318,337.922605059969
738279.53528094454668462276,12.5183874019593,-9.7857600634785,337.984150720745
738279.53528103488497436047,12.506078269804,-9.77345093132318,338.033387249367
738279.53528112533967941999,12.5183874019593,-9.76114179916786,337.922605059969
738279.53528121579438447952,12.5430056662699,-9.74883266701254,337.947223324279
738279.53528130624908953905,12.5306965341146,-9.73652353485722,337.947223324279
738279.53528139670379459858,12.5676239305806,-9.71190527054659,338.008768985056
738279.53528148704208433628,12.5553147984252,-9.73652353485722,337.934914192124
738279.53528157749678939581,12.5306965341146,-9.74883266701254,337.922605059969
738279.53528166795149445534,12.5306965341146,-9.74883266701254,337.922605059969
738279.53528175840619951487,12.5183874019593,-9.74883266701254,337.947223324279
738279.53528184886090457439,12.5183874019593,-9.74883266701254,337.947223324279
738279.53528193919919431210,12.506078269804,-9.77345093132318,337.959532456435
738279.53528202965389937162,12.4937691376487,-9.81037832778914,337.873368531348
738279.53528212010860443115,12.469150873338,-9.83499659209978,337.934914192124
738279.53528221056330949068,12.4814600054933,-9.81037832778914,337.947223324279
738279.53528230101801455021,12.4814600054933,-9.82268745994446,337.897986795658
738279.53528239135630428791,12.469150873338,-9.83499659209978,337.959532456435
738279.53528248181100934744,12.4814600054933,-9.83499659209978,337.934914192124
738279.53528257226571440697,12.4814600054933,-9.83499659209978,337.774895474105
738279.53528266272041946650,12.4814600054933,-9.82268745994446,337.873368531348
738279.53528275317512452602,12.4937691376487,-9.81037832778914,337.934914192124
738279.53528284351341426373,12.4937691376487,-9.82268745994446,337.873368531348
738279.53528293396811932325,12.4937691376487,-9.82268745994446,337.848750267037
738279.53528302442282438278,12.506078269804,-9.83499659209978,337.861059399192
738279.53528311487752944231,12.5306965341146,-9.67497787408063,337.922605059969
738279.53528320533223450184,12.6414787235125,-9.37955870235298,337.922605059969
738279.53528329567052423954,12.8507339701529,-8.81333862320831,337.97184158859
738279.53528338612522929907,12.8261157058423,-8.38251899777215,338.045696381522
738279.53528347657993435860,12.5799330627359,-8.9364299447615,337.861059399192
738279.53528356703463941813,12.3583686839401,-9.67497787408063,337.947223324279
738279.53528365748934447765,12.3460595517848,-9.94577878149764,338.008768985056
738279.53528374782763421535,12.4814600054933,-9.72421440270191,337.996459852901
738279.53528383828233927488,12.506078269804,-9.72421440270191,337.897986795658
738279.53528392873704433441,12.506078269804,-9.76114179916786,337.959532456435
738279.53528401919174939394,12.5183874019593,-9.74883266701254,337.934914192124
738279.53528410964645445347,12.506078269804,-9.7857600634785,337.910295927814
738279.53528419998474419117,12.5306965341146,-9.77345093132318,337.873368531348
738279.53528429043944925070,12.5183874019593,-9.76114179916786,337.885677663503
738279.53528438089415431023,12.5306965341146,-9.74883266701254,337.910295927814
738279.53528447134885936975,12.5183874019593,-9.76114179916786,337.897986795658
738279.53528456180356442928,12.5306965341146,-9.74883266701254,337.910295927814
738279.53528465214185416698,12.5306965341146,-9.74883266701254,337.922605059969
738279.53528474259655922651,12.5430056662699,-9.73652353485722,337.947223324279
738279.53528483305126428604,12.5553147984252,-9.71190527054659,337.897986795658
738279.53528492350596934557,12.5430056662699,-9.71190527054659,337.910295927814
738279.53528501396067440510,12.5553147984252,-9.71190527054659,337.885677663503
738279.53528510429896414280,12.5676239305806,-9.67497787408063,337.836441134882
738279.53528519475366920233,12.5799330627359,-9.66266874192531,337.861059399192
738279.53528528520837426186,12.5922421948912,-9.67497787408063,337.996459852901
738279.53528537566307932138,12.6045513270465,-9.62574134545936,337.996459852901
738279.53528546611778438091,12.6168604592018,-9.60112308114872,337.934914192124
738279.53528555645607411861,12.6291695913572,-9.5888139489934,337.934914192124
738279.53528564691077917814,12.6291695913572,-9.57650481683808,337.97184158859
738279.53528573736548423767,12.6537878556678,-9.5272682882168,337.996459852901
738279.53528582782018929720,12.6660969878231,-9.51495915606148,337.873368531348
738279.53528591827489435673,12.6907152521338,-9.46572262744021,337.885677663503
738279.53528600861318409443,12.6907152521338,-9.44110436312957,337.676422416862
738279.53528609906788915396,12.7030243842891,-9.44110436312957,337.713349813328
738279.53528618952259421349,12.7030243842891,-9.44110436312957,337.836441134882
738279.53528627997729927301,12.7030243842891,-9.44110436312957,337.848750267037
738279.53528637043200433254,12.6907152521338,-9.44110436312957,337.873368531348
738279.53528646077029407024,12.6784061199784,-9.47803175959553,337.861059399192
738279.53528655122499912977,12.6537878556678,-9.50265002390617,337.984150720745
738279.53528664167970418930,12.6291695913572,-9.55188655252744,337.97184158859
738279.53528673213440924883,12.6045513270465,-9.57650481683808,337.848750267037
738279.53528682258911430836,12.5799330627359,-9.66266874192531,337.934914192124
738279.53528691292740404606,12.5676239305806,-9.69959613839127,337.996459852901
738279.53528700338210910559,12.5183874019593,-9.72421440270191,337.897986795658
738279.53528709383681416512,12.5183874019593,-9.73652353485722,337.922605059969
738279.53528718429151922464,12.4937691376487,-9.77345093132318,337.959532456435
738279.53528727474622428417,12.4814600054933,-9.79806919563382,337.934914192124
738279.53528736508451402187,12.4814600054933,-9.7857600634785,337.922605059969
738279.53528745553921908140,12.4937691376487,-9.7857600634785,337.848750267037
738279.53528754599392414093,12.4937691376487,-9.7857600634785,337.947223324279
738279.53528763644862920046,12.4937691376487,-9.7857600634785,337.873368531348
738279.53528772690333425999,12.4814600054933,-9.7857600634785,337.873368531348
738279.53528781724162399769,12.4937691376487,-9.7857600634785,337.934914192124
738279.53528790769632905722,12.4937691376487,-9.7857600634785,337.873368531348
738279.53528799815103411674,12.4937691376487,-9.7857600634785,337.897986795658
738279.53528808860573917627,12.469150873338,-9.81037832778914,337.910295927814
738279.53528817906044423580,12.4814600054933,-9.81037832778914,337.910295927814
738279.53528826939873397350,12.4937691376487,-9.79806919563382,337.910295927814
738279.53528835985343903303,12.4937691376487,-9.7857600634785,337.873368531348
738279.53528845030814409256,12.506078269804,-9.7857600634785,337.910295927814
738279.53528854076284915209,12.506078269804,-9.7857600634785,337.97184158859
738279.53528863121755421162,12.506078269804,-9.7857600634785,337.996459852901
738279.53528872155584394932,12.4937691376487,-9.7857600634785,338.008768985056
738279.53528881201054900885,12.4937691376487,-9.7857600634785,338.008768985056
738279.53528890246525406837,12.4937691376487,-9.7857600634785,337.885677663503
738279.53528899291995912790,12.4937691376487,-9.81037832778914,337.885677663503
738279.53528908337466418743,12.4937691376487,-9.7857600634785,337.897986795658
738279.53528917371295392513,12.506078269804,-9.79806919563382,337.897986795658
738279.53528926416765898466,12.4937691376487,-9.7857600634785,338.008768985056
738279.53528935462236404419,12.4937691376487,-9.81037832778914,338.008768985056
738279.53528944507706910372,12.4937691376487,-9.7857600634785,338.008768985056
738279.53528953553177416325,12.4814600054933,-9.79806919563382,337.824132002726
738279.53528962587006390095,12.4937691376487,-9.83499659209978,337.873368531348
738279.53528971632476896048,12.4814600054933,-9.82268745994446,338.008768985056
738279.53528980677947402000,12.4814600054933,-9.81037832778914,338.008768985056
738279.53528989723417907953,12.4814600054933,-9.81037832778914,337.97184158859
738279.53528998768888413906,12.469150873338,-9.83499659209978,337.959532456435
738279.53529007802717387676,12.4814600054933,-9.82268745994446,337.97184158859
738279.53529016848187893629,12.4814600054933,-9.82268745994446,337.959532456435
738279.53529025893658399582,12.4814600054933,-9.82268745994446,337.910295927814
738279.53529034939128905535,12.469150873338,-9.83499659209978,337.910295927814
738279.53529043984599411488,12.4814600054933,-9.83499659209978,337.934914192124
738279.53529053018428385258,12.4814600054933,-9.82268745994446,337.934914192124
738279.53529062063898891211,12.4814600054933,-9.82268745994446,337.947223324279
738279.53529071109369397163,12.469150873338,-9.83499659209978,337.922605059969
738279.53529080154839903116,12.469150873338,-9.83499659209978,337.861059399192
738279.53529089200310409069,12.469150873338,-9.83499659209978,337.885677663503
738279.53529098234139382839,12.469150873338,-9.82268745994446,337.922605059969
738279.53529107279609888792,12.4814600054933,-9.83499659209978,337.897986795658
738279.53529116325080394745,12.4814600054933,-9.82268745994446,337.897986795658
738279.53529125370550900698,12.469150873338,-9.83499659209978,337.922605059969
738279.53529134416021406651,12.469150873338,-9.82268745994446,337.934914192124
738279.53529143449850380421,12.469150873338,-9.84730572425509,337.885677663503
738279.53529152495320886374,12.4568417411827,-9.84730572425509,337.848750267037
738279.53529161540791392326,12.4568417411827,-9.82268745994446,337.910295927814
738279.53529170586261898279,12.469150873338,-9.82268745994446,337.934914192124
738279.53529179631732404232,12.469150873338,-9.83499659209978,337.922605059969
738279.53529188665561378002,12.469150873338,-9.82268745994446,337.885677663503
738279.53529197711031883955,12.4814600054933,-9.82268745994446,337.984150720745
738279.53529206756502389908,12.469150873338,-9.84730572425509,337.984150720745
738279.53529215801972895861,12.469150873338,-9.84730572425509,337.897986795658
738279.53529224847443401814,12.4814600054933,-9.82268745994446,337.861059399192
738279.53529233881272375584,12.469150873338,-9.84730572425509,337.959532456435
738279.53529242926742881536,12.469150873338,-9.84730572425509,337.97184158859
738279.53529251972213387489,12.4568417411827,-9.84730572425509,337.922605059969
738279.53529261017683893442,12.469150873338,-9.83499659209978,337.97184158859
738279.53529270051512867212,12.469150873338,-9.83499659209978,337.996459852901
738279.53529279096983373165,12.469150873338,-9.83499659209978,337.97184158859
738279.53529288142453879118,12.4814600054933,-9.82268745994446,337.811822870571
738279.53529297187924385071,12.469150873338,-9.82268745994446,337.959532456435
738279.53529306233394891024,12.4814600054933,-9.81037832778914,337.97184158859
738279.53529315267223864794,12.469150873338,-9.83499659209978,337.984150720745
738279.53529324312694370747,12.4937691376487,-9.79806919563382,337.959532456435
738279.53529333358164876699,12.506078269804,-9.7857600634785,337.97184158859
738279.53529342403635382652,12.5183874019593,-9.76114179916786,337.934914192124
738279.53529351449105888605,12.5430056662699,-9.73652353485722,337.910295927814
738279.53529360482934862375,12.5183874019593,-9.74883266701254,337.897986795658
738279.53529369528405368328,12.4937691376487,-9.79806919563382,338.008768985056
738279.53529378573875874281,12.4937691376487,-9.7857600634785,338.021078117211
738279.53529387619346380234,12.4937691376487,-9.76114179916786,337.922605059969
738279.53529396664816886187,12.4937691376487,-9.77345093132318,337.947223324279
738279.53529405698645859957,12.4814600054933,-9.7857600634785,337.996459852901
738279.53529414744116365910,12.4568417411827,-9.83499659209978,338.008768985056
738279.53529423789586871862,12.4568417411827,-9.85961485641041,337.984150720745
738279.53529432835057377815,12.4445326090274,-9.85961485641041,337.97184158859
738279.53529441880527883768,12.4568417411827,-9.84730572425509,338.008768985056
738279.53529450914356857538,12.4445326090274,-9.85961485641041,337.996459852901
738279.53529459959827363491,12.4445326090274,-9.84730572425509,337.984150720745
738279.53529469005297869444,12.4445326090274,-9.85961485641041,337.922605059969
738279.53529478050768375397,12.4568417411827,-9.84730572425509,337.934914192124
738279.53529487096238881350,12.4445326090274,-9.84730572425509,337.947223324279
738279.53529496130067855120,12.4568417411827,-9.83499659209978,337.922605059969
738279.53529505175538361073,12.4568417411827,-9.87192398856573,337.947223324279
738279.53529514221008867025,12.469150873338,-9.87192398856573,337.947223324279
738279.53529523266479372978,12.5183874019593,-9.68728700623595,338.008768985056
738279.53529532311949878931,12.6537878556678,-9.30570390942106,337.97184158859
738279.53529541345778852701,12.8261157058423,-8.72717469812108,337.996459852901
738279.53529550391249358654,12.7522609129103,-8.45637379070406,338.021078117211
738279.53529559436719864607,12.4937691376487,-9.14568519140192,337.885677663503
738279.53529568482190370560,12.2968230231635,-9.83499659209978,337.897986795658
738279.53529577527660876513,12.3460595517848,-9.89654225287637,337.959532456435
738279.53529586561489850283,12.4322234768721,-9.79806919563382,338.008768985056
738279.53529595606960356236,12.469150873338,-9.76114179916786,337.922605059969
738279.53529604652430862188,12.4937691376487,-9.77345093132318,337.910295927814
738279.53529613697901368141,12.4937691376487,-9.7857600634785,337.836441134882
738279.53529622743371874094,12.4937691376487,-9.7857600634785,337.799513738416
738279.53529631777200847864,12.4937691376487,-9.82268745994446,337.848750267037
738279.53529640822671353817,12.4937691376487,-9.7857600634785,337.861059399192
738279.53529649868141859770,12.4937691376487,-9.7857600634785,337.861059399192
738279.53529658913612365723,12.506078269804,-9.7857600634785,337.737968077639
738279.53529667959082871675,12.5183874019593,-9.76114179916786,337.78720460626
738279.53529676992911845446,12.5183874019593,-9.7857600634785,337.934914192124
738279.53529686038382351398,12.5183874019593,-9.77345093132318,337.897986795658
738279.53529695083852857351,12.5183874019593,-9.74883266701254,337.885677663503
738279.53529704129323363304,12.5306965341146,-9.72421440270191,337.934914192124
738279.53529713174793869257,12.5306965341146,-9.74883266701254,337.861059399192
738279.53529722208622843027,12.5306965341146,-9.72421440270191,337.897986795658
738279.53529731254093348980,12.5553147984252,-9.69959613839127,337.824132002726
738279.53529740299563854933,12.5430056662699,-9.68728700623595,337.848750267037
738279.53529749345034360886,12.5676239305806,-9.66266874192531,337.910295927814
738279.53529758390504866838,12.5799330627359,-9.65035960976999,337.885677663503
738279.53529767424333840609,12.6045513270465,-9.61343221330404,337.910295927814
738279.53529776469804346561,12.6045513270465,-9.60112308114872,337.848750267037
738279.53529785515274852514,12.6168604592018,-9.5888139489934,337.910295927814
738279.53529794560745358467,12.6291695913572,-9.56419568468276,337.922605059969
738279.53529803606215864420,12.6414787235125,-9.51495915606148,337.934914192124
738279.53529812640044838190,12.6537878556678,-9.50265002390617,337.922605059969
738279.53529821685515344143,12.6537878556678,-9.51495915606148,337.922605059969
