time_dn,ecg_projection_ll_ra_mV,ecg_projection_la_ra_mV,ecg_projection_vx_rl_mV
738279.56452188047114759684,10.2658162175359,-8.66562903734448,336.888637958922
738279.56452197092585265636,10.3027436140019,-8.62870164087853,336.81478316599
738279.56452206126414239407,10.2781253496913,-8.64101077303384,336.864019694611
738279.56452215171884745359,10.2535070853806,-8.72717469812108,336.876328826767
738279.56452224217355251312,10.2411979532253,-8.6779381694998,336.81478316599
738279.56452233262825757265,10.22888882107,-8.70255643381044,336.839401430301
738279.56452242308296263218,10.2042705567593,-8.75179296243171,336.876328826767
738279.56452251353766769171,10.1796522924487,-8.81333862320831,336.876328826767
738279.56452260399237275124,10.1181066316721,-8.8748842839849,336.777855769524
738279.56452269444707781076,10.1550340281381,-8.86257515182958,336.888637958922
738279.56452278490178287029,10.1304157638274,-8.8748842839849,336.900947091077
738279.56452287524007260799,10.1181066316721,-8.91181168045086,336.802474033835
738279.56452296569477766752,10.1057974995168,-8.92412081260618,336.876328826767
738279.56452305614948272705,10.1057974995168,-8.96104820907214,336.851710562456
738279.56452314660418778658,10.1057974995168,-8.96104820907214,336.728619240903
738279.56452323705889284611,10.0934883673615,-8.92412081260618,336.81478316599
738279.56452332751359790564,10.0811792352062,-8.9364299447615,336.937874487543
738279.56452341796830296516,10.1057974995168,-8.92412081260618,336.913256223233
738279.56452350842300802469,10.1304157638274,-8.89950254829554,336.802474033835
738279.56452359887771308422,10.1057974995168,-8.97335734122746,336.864019694611
738279.56452368921600282192,10.1181066316721,-8.92412081260618,336.925565355388
738279.56452377967070788145,10.1057974995168,-8.92412081260618,336.81478316599
738279.56452387012541294098,10.1057974995168,-8.91181168045086,336.765546637369
738279.56452396058011800051,10.1057974995168,-8.91181168045086,336.765546637369
738279.56452405103482306004,10.0811792352062,-8.9364299447615,336.753237505214
738279.56452414148952811956,10.0934883673615,-8.9364299447615,336.765546637369
738279.56452423194423317909,10.1057974995168,-8.9364299447615,336.777855769524
738279.56452432239893823862,10.0688701030508,-8.9364299447615,336.81478316599
738279.56452441273722797632,10.0442518387402,-8.97335734122746,336.716310108748
738279.56452450319193303585,10.0934883673615,-8.9364299447615,336.728619240903
738279.56452459364663809538,10.0811792352062,-8.96104820907214,336.753237505214
738279.56452468410134315491,10.0811792352062,-8.96104820907214,336.740928373058
738279.56452477455604821444,10.0811792352062,-8.97335734122746,336.740928373058
738279.56452486501075327396,10.0934883673615,-8.97335734122746,336.728619240903
738279.56452495546545833349,10.1057974995168,-8.98566647338277,336.753237505214
738279.56452504592016339302,10.0934883673615,-8.97335734122746,336.704000976592
738279.56452513637486845255,10.0811792352062,-8.97335734122746,336.79016490168
738279.56452522671315819025,10.0934883673615,-8.96104820907214,336.802474033835
738279.56452531716786324978,10.0811792352062,-8.98566647338277,336.851710562456
738279.56452540762256830931,10.0688701030508,-8.99797560553809,336.802474033835
738279.56452549807727336884,10.1181066316721,-9.01028473769341,336.81478316599
738279.56452558853197842836,10.1057974995168,-9.01028473769341,336.777855769524
738279.56452567898668348789,10.1181066316721,-8.99797560553809,336.827092298145
738279.56452576944138854742,10.0934883673615,-9.02259386984873,336.851710562456
738279.56452585989609360695,10.0811792352062,-9.02259386984873,336.888637958922
738279.56452595035079866648,10.1181066316721,-9.02259386984873,336.765546637369
738279.56452604068908840418,10.0934883673615,-9.04721213415937,336.864019694611
738279.56452613114379346371,10.1304157638274,-8.99797560553809,336.864019694611
738279.56452622159849852324,10.1427248959827,-8.98566647338277,336.888637958922
738279.56452631205320358276,10.0934883673615,-9.03490300200405,336.777855769524
738279.56452640250790864229,10.1304157638274,-9.02259386984873,336.876328826767
738279.56452649296261370182,10.1057974995168,-9.01028473769341,336.864019694611
738279.56452658341731876135,10.1057974995168,-9.02259386984873,336.568600522884
738279.56452667387202382088,10.1057974995168,-9.01028473769341,336.667073580126
738279.56452676421031355858,10.1304157638274,-8.99797560553809,336.839401430301
738279.56452685466501861811,10.1427248959827,-8.98566647338277,336.888637958922
738279.56452694511972367764,10.1427248959827,-8.98566647338277,336.777855769524
738279.56452703557442873716,10.1304157638274,-8.99797560553809,336.851710562456
738279.56452712602913379669,10.1550340281381,-8.97335734122746,336.864019694611
738279.56452721648383885622,10.191961424604,-8.9364299447615,336.802474033835
738279.56452730693854391575,10.1427248959827,-8.96104820907214,336.839401430301
738279.56452739739324897528,10.1673431602934,-8.9364299447615,336.777855769524
738279.56452748784795403481,10.1550340281381,-8.94873907691682,336.728619240903
738279.56452757818624377251,10.1057974995168,-8.96104820907214,336.777855769524
738279.56452766864094883204,10.0934883673615,-9.01028473769341,336.777855769524
738279.56452775909565389156,10.1057974995168,-9.03490300200405,336.777855769524
738279.56452784955035895109,10.0565609708955,-9.05952126631469,336.79016490168
738279.56452794000506401062,10.0934883673615,-9.01028473769341,336.851710562456
738279.56452803045976907015,10.0811792352062,-9.04721213415937,336.851710562456
738279.56452812091447412968,10.0934883673615,-9.03490300200405,336.864019694611
738279.56452821136917918921,10.0688701030508,-9.03490300200405,336.765546637369
738279.56452830182388424873,10.0811792352062,-9.03490300200405,336.765546637369
738279.56452839216217398643,10.0811792352062,-9.02259386984873,336.79016490168
738279.56452848261687904596,10.0934883673615,-9.02259386984873,336.79016490168
738279.56452857307158410549,10.0934883673615,-9.03490300200405,336.802474033835
738279.56452866352628916502,10.0934883673615,-9.04721213415937,336.802474033835
738279.56452875398099422455,10.1057974995168,-9.05952126631469,336.839401430301
738279.56452884443569928408,10.1181066316721,-9.01028473769341,336.851710562456
738279.56452893489040434361,10.1427248959827,-8.82564775536363,336.925565355388
738279.56452902534510940313,10.3273618783125,-8.40713726208279,336.913256223233
738279.56452911568339914083,10.462762332021,-7.81629891862748,336.937874487543
738279.56452920613810420036,10.3519801426232,-7.8286080507828,336.802474033835
738279.56452929659280925989,10.0565609708955,-8.61639250872321,336.765546637369
738279.56452938704751431942,9.89654225287637,-9.17030345571256,336.876328826767
738279.56452947750221937895,10.0073244422742,-9.03490300200405,336.950183619699
738279.56452956795692443848,10.1057974995168,-8.9364299447615,336.913256223233
738279.56452965841162949800,10.1181066316721,-8.96104820907214,336.864019694611
738279.56452974886633455753,10.1427248959827,-8.96104820907214,336.777855769524
738279.56452983932103961706,10.1427248959827,-8.96104820907214,336.827092298145
738279.56452992965932935476,10.1057974995168,-9.01028473769341,336.851710562456
738279.56453002011403441429,10.1673431602934,-8.94873907691682,336.876328826767
738279.56453011056873947382,10.1427248959827,-8.96104820907214,336.679382712282
738279.56453020102344453335,10.1550340281381,-8.96104820907214,336.728619240903
738279.56453029147814959288,10.1427248959827,-8.96104820907214,336.851710562456
738279.56453038193285465240,10.1550340281381,-8.96104820907214,336.900947091077
738279.56453047238755971193,10.1673431602934,-8.94873907691682,336.839401430301
738279.56453056284226477146,10.1673431602934,-8.94873907691682,336.839401430301
738279.56453065329696983099,10.1673431602934,-8.94873907691682,336.864019694611
738279.56453074363525956869,10.1550340281381,-8.94873907691682,336.864019694611
738279.56453083408996462822,10.1796522924487,-8.92412081260618,336.827092298145
738279.56453092454466968775,10.2165796889147,-8.88719341614022,336.876328826767
738279.56453101499937474728,10.1796522924487,-8.89950254829554,336.864019694611
738279.56453110545407980680,10.191961424604,-8.89950254829554,336.802474033835
738279.56453119590878486633,10.2165796889147,-8.86257515182958,336.864019694611
738279.56453128636348992586,10.2165796889147,-8.82564775536363,336.851710562456
738279.56453137681819498539,10.2535070853806,-8.80102949105299,336.802474033835
738279.56453146715648472309,10.2781253496913,-8.77641122674235,336.827092298145
738279.56453155761118978262,10.2904344818466,-8.75179296243171,336.851710562456
738279.56453164806589484215,10.2904344818466,-8.75179296243171,336.864019694611
738279.56453173852059990168,10.2904344818466,-8.7394838302764,336.716310108748
738279.56453182897530496120,10.3150527461572,-8.69024730165512,336.716310108748
738279.56453191943001002073,10.3027436140019,-8.70255643381044,336.728619240903
738279.56453200988471508026,10.3027436140019,-8.70255643381044,336.728619240903
738279.56453210033942013979,10.3027436140019,-8.72717469812108,336.704000976592
738279.56453219079412519932,10.3027436140019,-8.72717469812108,336.777855769524
738279.56453228113241493702,10.2904344818466,-8.7394838302764,336.753237505214
738279.56453237158711999655,10.2658162175359,-8.78872035889767,336.802474033835
738279.56453246204182505608,10.2535070853806,-8.81333862320831,336.765546637369
738279.56453255249653011560,10.22888882107,-8.85026601967427,336.79016490168
738279.56453264295123517513,10.191961424604,-8.91181168045086,336.79016490168
738279.56453273340594023466,10.1796522924487,-8.9364299447615,336.827092298145
738279.56453282386064529419,10.1427248959827,-8.97335734122746,336.79016490168
738279.56453291431535035372,10.1550340281381,-8.97335734122746,336.839401430301
738279.56453300477005541325,10.1427248959827,-8.99797560553809,336.839401430301
738279.56453309510834515095,10.1550340281381,-8.98566647338277,336.765546637369
738279.56453318556305021048,10.1427248959827,-9.01028473769341,336.802474033835
738279.56453327601775527000,10.1427248959827,-8.99797560553809,336.802474033835
738279.56453336647246032953,10.1427248959827,-8.99797560553809,336.81478316599
738279.56453345692716538906,10.1550340281381,-8.99797560553809,336.81478316599
738279.56453354738187044859,10.1304157638274,-8.99797560553809,336.876328826767
738279.56453363783657550812,10.1427248959827,-8.97335734122746,336.679382712282
738279.56453372829128056765,10.1427248959827,-8.98566647338277,336.716310108748
738279.56453381862957030535,10.1427248959827,-8.98566647338277,336.827092298145
738279.56453390908427536488,10.1550340281381,-8.98566647338277,336.839401430301
738279.56453399953898042440,10.1673431602934,-8.96104820907214,336.839401430301
738279.56453408999368548393,10.1673431602934,-8.97335734122746,336.802474033835
738279.56453418044839054346,10.1673431602934,-8.96104820907214,336.839401430301
738279.56453427090309560299,10.1550340281381,-8.98566647338277,336.864019694611
738279.56453436135780066252,10.1673431602934,-8.97335734122746,336.851710562456
738279.56453445181250572205,10.1673431602934,-8.98566647338277,336.79016490168
738279.56453454226721078157,10.1550340281381,-8.98566647338277,336.851710562456
738279.56453463260550051928,10.1550340281381,-8.97335734122746,336.876328826767
738279.56453472306020557880,10.1550340281381,-8.98566647338277,336.765546637369
738279.56453481351491063833,10.1550340281381,-8.98566647338277,336.839401430301
738279.56453490396961569786,10.1427248959827,-8.99797560553809,336.876328826767
738279.56453499442432075739,10.1427248959827,-9.01028473769341,336.802474033835
738279.56453508487902581692,10.1550340281381,-9.01028473769341,336.81478316599
738279.56453517533373087645,10.1304157638274,-9.01028473769341,336.851710562456
738279.56453526578843593597,10.1427248959827,-9.01028473769341,336.81478316599
738279.56453535624314099550,10.1427248959827,-9.01028473769341,336.728619240903
738279.56453544658143073320,10.1304157638274,-9.02259386984873,336.839401430301
738279.56453553703613579273,10.1304157638274,-9.03490300200405,336.888637958922
738279.56453562749084085226,10.1304157638274,-9.03490300200405,336.740928373058
738279.56453571794554591179,10.1304157638274,-9.02259386984873,336.827092298145
738279.56453580840025097132,10.1304157638274,-9.01028473769341,336.827092298145
738279.56453589885495603085,10.1304157638274,-9.01028473769341,336.827092298145
738279.56453598930966109037,10.1304157638274,-9.02259386984873,336.728619240903
738279.56453607976436614990,10.1181066316721,-9.03490300200405,336.728619240903
738279.56453617010265588760,10.1181066316721,-9.04721213415937,336.864019694611
738279.56453626055736094713,10.1304157638274,-9.02259386984873,336.851710562456
738279.56453635101206600666,10.1304157638274,-9.01028473769341,336.802474033835
738279.56453644146677106619,10.1181066316721,-9.03490300200405,336.827092298145
738279.56453653192147612572,10.1181066316721,-9.03490300200405,336.864019694611
738279.56453662237618118525,10.1057974995168,-9.05952126631469,336.888637958922
738279.56453671283088624477,10.1304157638274,-9.02259386984873,336.704000976592
738279.56453680328559130430,10.1181066316721,-9.02259386984873,336.839401430301
738279.56453689374029636383,10.1181066316721,-9.02259386984873,336.851710562456
738279.56453698407858610153,10.1181066316721,-9.02259386984873,336.81478316599
738279.56453707453329116106,10.1181066316721,-9.03490300200405,336.827092298145
738279.56453716498799622059,10.1057974995168,-9.03490300200405,336.593218787194
738279.56453725544270128012,10.1427248959827,-9.01028473769341,336.642455315816
738279.56453734589740633965,10.1181066316721,-9.03490300200405,336.802474033835
738279.56453743635211139917,10.1304157638274,-9.02259386984873,336.765546637369
738279.56453752680681645870,10.1427248959827,-9.02259386984873,336.716310108748
738279.56453761726152151823,10.1673431602934,-8.97335734122746,336.704000976592
738279.56453770771622657776,10.1427248959827,-9.02259386984873,336.716310108748
738279.56453779805451631546,10.1550340281381,-8.99797560553809,336.691691844437
738279.56453788850922137499,10.1796522924487,-8.97335734122746,336.753237505214
738279.56453797896392643452,10.2042705567593,-8.9364299447615,336.777855769524
738279.56453806941863149405,10.1673431602934,-8.98566647338277,336.740928373058
738279.56453815987333655357,10.1796522924487,-8.96104820907214,336.777855769524
738279.56453825032804161310,10.1673431602934,-8.96104820907214,336.81478316599
738279.56453834078274667263,10.1673431602934,-8.96104820907214,336.81478316599
738279.56453843123745173216,10.1304157638274,-9.01028473769341,336.827092298145
738279.56453852157574146986,10.1181066316721,-9.03490300200405,336.839401430301
738279.56453861203044652939,10.1181066316721,-9.04721213415937,336.839401430301
738279.56453870248515158892,10.1057974995168,-9.04721213415937,336.827092298145
738279.56453879293985664845,10.0688701030508,-9.08413953062532,336.888637958922
738279.56453888339456170797,10.1181066316721,-9.05952126631469,336.839401430301
738279.56453897384926676750,10.1181066316721,-9.04721213415937,336.827092298145
738279.56453906430397182703,10.0934883673615,-9.05952126631469,336.888637958922
738279.56453915475867688656,10.0934883673615,-9.07183039847001,336.851710562456
738279.56453924521338194609,10.1057974995168,-9.03490300200405,336.81478316599
738279.56453933555167168379,10.1057974995168,-9.04721213415937,336.827092298145
738279.56453942600637674332,10.1057974995168,-9.05952126631469,336.839401430301
738279.56453951646108180285,10.1057974995168,-9.09644866278064,336.851710562456
738279.56453960691578686237,10.1304157638274,-9.05952126631469,336.753237505214
738279.56453969737049192190,10.1550340281381,-8.97335734122746,336.913256223233
738279.56453978782519698143,10.2411979532253,-8.6779381694998,336.974801884009
738279.56453987827990204096,10.462762332021,-8.13633635466577,336.925565355388
738279.56453996873460710049,10.4504531998657,-7.70551672922961,336.987111016165
738279.56454005918931216002,10.2165796889147,-8.18557288328705,336.802474033835
738279.56454014952760189772,9.9827061779636,-8.92412081260618,336.81478316599
738279.56454023998230695724,9.93346964934233,-9.21953998433383,336.900947091077
738279.56454033043701201677,10.0934883673615,-8.98566647338277,336.876328826767
738279.56454042089171707630,10.1304157638274,-8.97335734122746,336.827092298145
738279.56454051134642213583,10.1427248959827,-8.98566647338277,336.851710562456
738279.56454060180112719536,10.1550340281381,-8.98566647338277,336.777855769524
738279.56454069225583225489,10.1673431602934,-8.97335734122746,336.654764447971
738279.56454078271053731441,10.1673431602934,-8.98566647338277,336.679382712282
738279.56454087304882705212,10.1796522924487,-8.97335734122746,336.802474033835
738279.56454096350353211164,10.1796522924487,-8.98566647338277,336.777855769524
738279.56454105395823717117,10.1550340281381,-8.99797560553809,336.802474033835
738279.56454114441294223070,10.2042705567593,-8.9364299447615,336.81478316599
738279.56454123486764729023,10.1796522924487,-8.94873907691682,336.79016490168
738279.56454132532235234976,10.191961424604,-8.94873907691682,336.802474033835
738279.56454141577705740929,10.191961424604,-8.9364299447615,336.876328826767
738279.56454150623176246881,10.1796522924487,-8.9364299447615,336.851710562456
738279.56454159668646752834,10.191961424604,-8.9364299447615,336.864019694611
738279.56454168702475726604,10.22888882107,-8.88719341614022,336.79016490168
738279.56454177747946232557,10.2042705567593,-8.89950254829554,336.851710562456
738279.56454186793416738510,10.2411979532253,-8.88719341614022,336.864019694611
738279.56454195838887244463,10.2535070853806,-8.85026601967427,336.876328826767
738279.56454204884357750416,10.2658162175359,-8.81333862320831,336.839401430301
738279.56454213929828256369,10.2658162175359,-8.81333862320831,336.864019694611
738279.56454222975298762321,10.2904344818466,-8.80102949105299,336.79016490168
738279.56454232020769268274,10.3150527461572,-8.76410209458703,336.839401430301
738279.56454241066239774227,10.3150527461572,-8.76410209458703,336.851710562456
738279.56454250100068747997,10.3273618783125,-8.72717469812108,336.802474033835
738279.56454259145539253950,10.3396710104678,-8.70255643381044,336.753237505214
738279.56454268191009759903,10.3396710104678,-8.71486556596576,336.839401430301
738279.56454277236480265856,10.3519801426232,-8.70255643381044,336.876328826767
738279.56454286281950771809,10.3519801426232,-8.71486556596576,336.81478316599
738279.56454295327421277761,10.3519801426232,-8.72717469812108,336.827092298145
738279.56454304372891783714,10.3273618783125,-8.72717469812108,336.81478316599
738279.56454313418362289667,10.3150527461572,-8.76410209458703,336.740928373058
738279.56454322452191263437,10.3027436140019,-8.78872035889767,336.728619240903
738279.56454331497661769390,10.2781253496913,-8.83795688751895,336.740928373058
738279.56454340543132275343,10.2658162175359,-8.85026601967427,336.753237505214
738279.56454349588602781296,10.2411979532253,-8.88719341614022,336.740928373058
738279.56454358634073287249,10.22888882107,-8.92412081260618,336.81478316599
738279.56454367679543793201,10.191961424604,-8.9364299447615,336.851710562456
738279.56454376725014299154,10.191961424604,-8.9364299447615,336.888637958922
738279.56454385770484805107,10.191961424604,-8.96104820907214,336.827092298145
738279.56454394815955311060,10.1796522924487,-8.97335734122746,336.851710562456
738279.56454403849784284830,10.1796522924487,-8.98566647338277,336.888637958922
738279.56454412895254790783,10.1673431602934,-8.99797560553809,336.827092298145
738279.56454421940725296736,10.1673431602934,-8.98566647338277,336.704000976592
738279.56454430986195802689,10.1796522924487,-8.97335734122746,336.753237505214
738279.56454440031666308641,10.1796522924487,-8.98566647338277,336.864019694611
738279.56454449077136814594,10.191961424604,-8.97335734122746,336.81478316599
738279.56454458122607320547,10.1796522924487,-8.98566647338277,336.79016490168
738279.56454467168077826500,10.191961424604,-8.97335734122746,336.716310108748
738279.56454476213548332453,10.1796522924487,-8.98566647338277,336.79016490168
738279.56454485247377306223,10.191961424604,-8.96104820907214,336.728619240903
738279.56454494292847812176,10.191961424604,-8.96104820907214,336.740928373058
738279.56454503338318318129,10.2042705567593,-8.94873907691682,336.81478316599
738279.56454512383788824081,10.191961424604,-8.96104820907214,336.827092298145
738279.56454521429259330034,10.191961424604,-8.96104820907214,336.827092298145
738279.56454530474729835987,10.2042705567593,-8.96104820907214,336.839401430301
738279.56454539520200341940,10.191961424604,-8.96104820907214,336.679382712282
738279.56454548565670847893,10.2042705567593,-8.96104820907214,336.81478316599
738279.56454557599499821663,10.1796522924487,-8.97335734122746,336.777855769524
738279.56454566644970327616,10.191961424604,-8.98566647338277,336.765546637369
738279.56454575690440833569,10.191961424604,-8.97335734122746,336.81478316599
738279.56454584735911339521,10.191961424604,-8.97335734122746,336.876328826767
738279.56454593781381845474,10.1796522924487,-8.98566647338277,336.827092298145
738279.56454602826852351427,10.191961424604,-8.99797560553809,336.765546637369
738279.56454611872322857380,10.1796522924487,-8.99797560553809,336.79016490168
738279.56454620917793363333,10.1796522924487,-8.98566647338277,336.827092298145
738279.56454629963263869286,10.1673431602934,-8.98566647338277,336.802474033835
738279.56454638997092843056,10.1796522924487,-9.01028473769341,336.81478316599
738279.56454648042563349009,10.1673431602934,-9.01028473769341,336.802474033835
738279.56454657088033854961,10.191961424604,-8.99797560553809,336.802474033835
738279.56454666133504360914,10.1796522924487,-9.02259386984873,336.839401430301
738279.56454675178974866867,10.1796522924487,-8.99797560553809,336.851710562456
738279.56454684224445372820,10.1796522924487,-8.99797560553809,336.851710562456
738279.56454693269915878773,10.191961424604,-8.98566647338277,336.79016490168
738279.56454702315386384726,10.1796522924487,-8.99797560553809,336.839401430301
738279.56454711360856890678,10.1673431602934,-8.99797560553809,336.876328826767
738279.56454720394685864449,10.1796522924487,-9.01028473769341,336.839401430301
738279.56454729440156370401,10.1796522924487,-9.02259386984873,336.827092298145
738279.56454738485626876354,10.1796522924487,-9.01028473769341,336.888637958922
738279.56454747531097382307,10.1796522924487,-8.98566647338277,336.888637958922
738279.56454756576567888260,10.1796522924487,-9.02259386984873,336.802474033835
738279.56454765622038394213,10.1796522924487,-8.99797560553809,336.864019694611
738279.56454774667508900166,10.1796522924487,-8.99797560553809,336.79016490168
738279.56454783712979406118,10.1796522924487,-8.99797560553809,336.679382712282
738279.56454792746808379889,10.1673431602934,-9.02259386984873,336.839401430301
738279.56454801792278885841,10.1796522924487,-9.01028473769341,336.839401430301
738279.56454810837749391794,10.1796522924487,-8.99797560553809,336.839401430301
738279.56454819883219897747,10.1673431602934,-9.01028473769341,336.753237505214
738279.56454828928690403700,10.1673431602934,-9.01028473769341,336.753237505214
738279.56454837974160909653,10.1796522924487,-9.01028473769341,336.753237505214
738279.56454847019631415606,10.1796522924487,-9.01028473769341,336.716310108748
738279.56454856065101921558,10.1796522924487,-9.01028473769341,336.765546637369
738279.56454865110572427511,10.1796522924487,-8.99797560553809,336.839401430301
738279.56454874144401401281,10.1673431602934,-9.01028473769341,336.827092298145
738279.56454883189871907234,10.1673431602934,-9.01028473769341,336.691691844437
738279.56454892235342413187,10.1796522924487,-9.01028473769341,336.765546637369
738279.56454901280812919140,10.1673431602934,-9.01028473769341,336.79016490168
738279.56454910326283425093,10.1796522924487,-9.01028473769341,336.839401430301
738279.56454919371753931046,10.1796522924487,-8.99797560553809,336.851710562456
738279.56454928417224436998,10.1796522924487,-8.99797560553809,336.888637958922
738279.56454937462694942951,10.1673431602934,-8.99797560553809,336.864019694611
738279.56454946508165448904,10.1796522924487,-8.99797560553809,336.851710562456
738279.56454955541994422674,10.1673431602934,-9.02259386984873,336.925565355388
738279.56454964587464928627,10.1550340281381,-9.02259386984873,336.802474033835
738279.56454973632935434580,10.1550340281381,-8.99797560553809,336.827092298145
738279.56454982678405940533,10.1796522924487,-8.99797560553809,336.888637958922
738279.56454991723876446486,10.1796522924487,-8.99797560553809,336.851710562456
738279.56455000769346952438,10.2042705567593,-8.97335734122746,336.79016490168
738279.56455009814817458391,10.2042705567593,-8.97335734122746,336.765546637369
738279.56455018860287964344,10.191961424604,-8.98566647338277,336.765546637369
738279.56455027905758470297,10.2165796889147,-8.94873907691682,336.777855769524
738279.56455036939587444067,10.2411979532253,-8.92412081260618,336.753237505214
738279.56455045985057950020,10.2165796889147,-8.94873907691682,336.765546637369
738279.56455055030528455973,10.2165796889147,-8.94873907691682,336.777855769524
738279.56455064075998961926,10.2042705567593,-8.96104820907214,336.79016490168
738279.56455073121469467878,10.191961424604,-8.9364299447615,336.81478316599
738279.56455082166939973831,10.191961424604,-8.9364299447615,336.802474033835
738279.56455091212410479784,10.191961424604,-8.97335734122746,336.81478316599
738279.56455100257880985737,10.1796522924487,-8.99797560553809,336.802474033835
738279.56455109291709959507,10.1550340281381,-9.01028473769341,336.888637958922
738279.56455118337180465460,10.1550340281381,-9.03490300200405,336.876328826767
738279.56455127382650971413,10.1673431602934,-9.01028473769341,336.691691844437
738279.56455136428121477365,10.1673431602934,-8.99797560553809,336.679382712282
738279.56455145473591983318,10.1673431602934,-9.02259386984873,336.765546637369
738279.56455154519062489271,10.1673431602934,-9.01028473769341,336.740928373058
738279.56455163564532995224,10.1673431602934,-8.99797560553809,336.777855769524
738279.56455172610003501177,10.1673431602934,-9.01028473769341,336.79016490168
738279.56455181655474007130,10.1673431602934,-9.03490300200405,336.802474033835
738279.56455190689302980900,10.1673431602934,-9.01028473769341,336.827092298145
738279.56455199734773486853,10.1796522924487,-9.02259386984873,336.888637958922
738279.56455208780243992805,10.2042705567593,-8.89950254829554,336.925565355388
738279.56455217825714498758,10.3273618783125,-8.59177424441257,336.864019694611
738279.56455226871185004711,10.5243079927976,-8.0255541652679,336.913256223233
738279.56455235916655510664,10.5612353892636,-7.58242540767642,336.962492751854
738279.56455244962126016617,10.2781253496913,-8.17326375113173,336.864019694611
738279.56455254007596522570,10.0688701030508,-8.83795688751895,336.876328826767
738279.56455263053067028522,10.0196335744296,-9.08413953062532,336.900947091077
738279.56455272086896002293,10.1057974995168,-8.97335734122746,336.962492751854
738279.56455281132366508245,10.1796522924487,-8.89950254829554,336.839401430301
738279.56455290177837014198,10.191961424604,-8.91181168045086,336.937874487543
738279.56455299223307520151,10.2165796889147,-8.92412081260618,336.827092298145
738279.56455308268778026104,10.2165796889147,-8.91181168045086,336.777855769524
738279.56455317314248532057,10.2165796889147,-8.92412081260618,336.802474033835
738279.56455326359719038010,10.2165796889147,-8.91181168045086,336.827092298145
738279.56455335405189543962,10.22888882107,-8.91181168045086,336.864019694611
738279.56455344439018517733,10.22888882107,-8.92412081260618,336.876328826767
738279.56455353484489023685,10.22888882107,-8.89950254829554,336.79016490168
738279.56455362529959529638,10.22888882107,-8.89950254829554,336.839401430301
738279.56455371575430035591,10.22888882107,-8.88719341614022,336.888637958922
738279.56455380620900541544,10.2411979532253,-8.88719341614022,336.777855769524
738279.56455389666371047497,10.2411979532253,-8.8748842839849,336.839401430301
738279.56455398711841553450,10.2658162175359,-8.83795688751895,336.864019694611
738279.56455407757312059402,10.2658162175359,-8.83795688751895,336.839401430301
738279.56455416802782565355,10.2658162175359,-8.81333862320831,336.851710562456
738279.56455425836611539125,10.2658162175359,-8.78872035889767,336.81478316599
738279.56455434882082045078,10.2781253496913,-8.80102949105299,336.827092298145
738279.56455443927552551031,10.3027436140019,-8.77641122674235,336.777855769524
738279.56455452973023056984,10.3027436140019,-8.75179296243171,336.802474033835
738279.56455462018493562937,10.3150527461572,-8.72717469812108,336.740928373058
738279.56455471063964068890,10.3273618783125,-8.70255643381044,336.753237505214
738279.56455480109434574842,10.3396710104678,-8.66562903734448,336.716310108748
738279.56455489154905080795,10.3519801426232,-8.65331990518916,336.60552791935
738279.56455498200375586748,10.3642892747785,-8.62870164087853,336.79016490168
738279.56455507234204560518,10.3889075390891,-8.61639250872321,336.79016490168
738279.56455516279675066471,10.3889075390891,-8.61639250872321,336.81478316599
738279.56455525325145572424,10.3889075390891,-8.60408337656789,336.802474033835
738279.56455534370616078377,10.3889075390891,-8.60408337656789,336.740928373058
738279.56455543416086584330,10.3765984069338,-8.62870164087853,336.839401430301
738279.56455552461557090282,10.3642892747785,-8.64101077303384,336.864019694611
738279.56455561507027596235,10.3519801426232,-8.6779381694998,336.876328826767
738279.56455570552498102188,10.3396710104678,-8.71486556596576,336.765546637369
738279.56455579586327075958,10.3150527461572,-8.75179296243171,336.864019694611
738279.56455588631797581911,10.2904344818466,-8.78872035889767,336.876328826767
738279.56455597677268087864,10.2658162175359,-8.82564775536363,336.777855769524
738279.56455606722738593817,10.2535070853806,-8.85026601967427,336.851710562456
738279.56455615768209099770,10.2411979532253,-8.86257515182958,336.900947091077
738279.56455624813679605722,10.2411979532253,-8.88719341614022,336.851710562456
738279.56455633859150111675,10.2411979532253,-8.89950254829554,336.81478316599
738279.56455642904620617628,10.2411979532253,-8.88719341614022,336.876328826767
738279.56455651950091123581,10.2411979532253,-8.88719341614022,336.876328826767
738279.56455660983920097351,10.22888882107,-8.8748842839849,336.876328826767
738279.56455670029390603304,10.22888882107,-8.89950254829554,336.851710562456
738279.56455679074861109257,10.2165796889147,-8.88719341614022,336.888637958922
738279.56455688120331615210,10.22888882107,-8.88719341614022,336.888637958922
738279.56455697165802121162,10.22888882107,-8.88719341614022,336.802474033835
738279.56455706211272627115,10.22888882107,-8.88719341614022,336.864019694611
738279.56455715256743133068,10.22888882107,-8.8748842839849,336.864019694611
738279.56455724302213639021,10.2411979532253,-8.8748842839849,336.802474033835
738279.56455733347684144974,10.2411979532253,-8.8748842839849,336.888637958922
738279.56455742381513118744,10.2535070853806,-8.88719341614022,336.913256223233
738279.56455751426983624697,10.2411979532253,-8.8748842839849,336.81478316599
738279.56455760472454130650,10.2411979532253,-8.88719341614022,336.79016490168
738279.56455769517924636602,10.22888882107,-8.88719341614022,336.79016490168
738279.56455778563395142555,10.22888882107,-8.88719341614022,336.802474033835
738279.56455787608865648508,10.22888882107,-8.88719341614022,336.777855769524
738279.56455796654336154461,10.22888882107,-8.88719341614022,336.864019694611
738279.56455805699806660414,10.2165796889147,-8.89950254829554,336.876328826767
738279.56455814733635634184,10.22888882107,-8.89950254829554,336.839401430301
738279.56455823779106140137,10.22888882107,-8.91181168045086,336.777855769524
738279.56455832824576646090,10.22888882107,-8.91181168045086,336.753237505214
738279.56455841870047152042,10.22888882107,-8.91181168045086,336.691691844437
738279.56455850915517657995,10.2165796889147,-8.91181168045086,336.81478316599
738279.56455859960988163948,10.22888882107,-8.91181168045086,336.777855769524
738279.56455869006458669901,10.2165796889147,-8.91181168045086,336.79016490168
738279.56455878051929175854,10.22888882107,-8.91181168045086,336.839401430301
738279.56455887097399681807,10.2042705567593,-8.91181168045086,336.839401430301
738279.56455896131228655577,10.191961424604,-8.91181168045086,336.851710562456
738279.56455905176699161530,10.191961424604,-8.92412081260618,336.876328826767
738279.56455914222169667482,10.2165796889147,-8.9364299447615,336.900947091077
738279.56455923267640173435,10.191961424604,-8.9364299447615,336.876328826767
738279.56455932313110679388,10.2042705567593,-8.92412081260618,336.888637958922
738279.56455941358581185341,10.191961424604,-8.9364299447615,336.864019694611
738279.56455950404051691294,10.2165796889147,-8.91181168045086,336.876328826767
738279.56455959449522197247,10.2165796889147,-8.91181168045086,336.876328826767
738279.56455968494992703199,10.2042705567593,-8.94873907691682,336.913256223233
738279.56455977528821676970,10.191961424604,-8.94873907691682,336.900947091077
738279.56455986574292182922,10.2165796889147,-8.92412081260618,336.900947091077
738279.56455995619762688875,10.2165796889147,-8.94873907691682,336.900947091077
738279.56456004665233194828,10.2165796889147,-8.9364299447615,336.876328826767
738279.56456013710703700781,10.2165796889147,-8.92412081260618,336.925565355388
738279.56456022756174206734,10.2042705567593,-8.9364299447615,336.925565355388
738279.56456031801644712687,10.2042705567593,-8.92412081260618,336.864019694611
738279.56456040847115218639,10.2042705567593,-8.9364299447615,336.925565355388
738279.56456049880944192410,10.2165796889147,-8.9364299447615,336.950183619699
738279.56456058926414698362,10.2042705567593,-8.92412081260618,336.937874487543
738279.56456067971885204315,10.2165796889147,-8.9364299447615,336.913256223233
738279.56456077017355710268,10.2165796889147,-8.9364299447615,336.937874487543
738279.56456086062826216221,10.22888882107,-8.92412081260618,336.962492751854
738279.56456095108296722174,10.22888882107,-8.9364299447615,336.900947091077
738279.56456104153767228127,10.2535070853806,-8.88719341614022,336.962492751854
738279.56456113199237734079,10.22888882107,-8.91181168045086,336.925565355388
738279.56456122244708240032,10.2411979532253,-8.8748842839849,336.864019694611
738279.56456131278537213802,10.2658162175359,-8.85026601967427,336.864019694611
738279.56456140324007719755,10.2781253496913,-8.83795688751895,336.864019694611
738279.56456149369478225708,10.2411979532253,-8.8748842839849,336.851710562456
738279.56456158414948731661,10.22888882107,-8.88719341614022,336.864019694611
738279.56456167460419237614,10.2411979532253,-8.8748842839849,336.900947091077
738279.56456176505889743567,10.2165796889147,-8.86257515182958,336.876328826767
738279.56456185551360249519,10.2165796889147,-8.8748842839849,336.900947091077
738279.56456194596830755472,10.2042705567593,-8.91181168045086,336.691691844437
738279.56456203642301261425,10.191961424604,-8.92412081260618,336.876328826767
738279.56456212676130235195,10.191961424604,-8.92412081260618,336.900947091077
738279.56456221721600741148,10.191961424604,-8.92412081260618,336.925565355388
738279.56456230767071247101,10.1796522924487,-8.9364299447615,336.950183619699
738279.56456239812541753054,10.1796522924487,-8.92412081260618,336.876328826767
738279.56456248858012259007,10.2042705567593,-8.92412081260618,336.900947091077
738279.56456257903482764959,10.191961424604,-8.9364299447615,336.937874487543
738279.56456266948953270912,10.1796522924487,-8.94873907691682,336.974801884009
738279.56456275994423776865,10.191961424604,-8.9364299447615,336.876328826767
738279.56456285028252750635,10.2042705567593,-8.92412081260618,336.900947091077
738279.56456294073723256588,10.2042705567593,-8.96104820907214,336.888637958922
738279.56456303119193762541,10.2411979532253,-8.91181168045086,336.937874487543
738279.56456312164664268494,10.2904344818466,-8.70255643381044,336.99942014832
738279.56456321210134774446,10.5119988606423,-8.23480941190832,336.974801884009
738279.56456330255605280399,10.6350901821955,-7.69320759707429,336.900947091077
738279.56456339301075786352,10.4873805963317,-7.74244412569557,336.827092298145
738279.56456348346546292305,10.191961424604,-8.46868292285938,336.839401430301
738279.56456357392016798258,10.0319427065849,-9.04721213415937,336.876328826767
738279.56456366425845772028,10.1304157638274,-8.92412081260618,336.937874487543
738279.56456375471316277981,10.191961424604,-8.85026601967427,336.937874487543
738279.56456384516786783934,10.22888882107,-8.83795688751895,337.011729280475
738279.56456393562257289886,10.2411979532253,-8.83795688751895,336.937874487543
738279.56456402607727795839,10.2535070853806,-8.83795688751895,336.962492751854
738279.56456411653198301792,10.2411979532253,-8.86257515182958,336.900947091077
738279.56456420698668807745,10.2535070853806,-8.85026601967427,336.913256223233
738279.56456429744139313698,10.2535070853806,-8.82564775536363,336.950183619699
738279.56456438789609819651,10.2781253496913,-8.83795688751895,336.900947091077
738279.56456447823438793421,10.2658162175359,-8.82564775536363,336.839401430301
738279.56456456868909299374,10.2781253496913,-8.81333862320831,336.925565355388
738279.56456465914379805326,10.2781253496913,-8.82564775536363,336.913256223233
738279.56456474959850311279,10.2904344818466,-8.78872035889767,336.937874487543
738279.56456484005320817232,10.2904344818466,-8.80102949105299,336.913256223233
738279.56456493050791323185,10.3027436140019,-8.76410209458703,336.913256223233
738279.56456502096261829138,10.3150527461572,-8.75179296243171,336.913256223233
738279.56456511141732335091,10.3273618783125,-8.75179296243171,336.913256223233
738279.56456520175561308861,10.3273618783125,-8.72717469812108,336.937874487543
738279.56456529221031814814,10.3396710104678,-8.71486556596576,336.974801884009
738279.56456538266502320766,10.3519801426232,-8.71486556596576,336.716310108748
738279.56456547311972826719,10.3765984069338,-8.66562903734448,336.81478316599
738279.56456556357443332672,10.3765984069338,-8.65331990518916,336.913256223233
738279.56456565402913838625,10.3889075390891,-8.62870164087853,336.864019694611
738279.56456574448384344578,10.4135258033998,-8.60408337656789,336.802474033835
738279.56456583493854850531,10.4258349355551,-8.57946511225725,336.839401430301
738279.56456592539325356483,10.4504531998657,-8.56715598010193,336.839401430301
738279.56456601573154330254,10.462762332021,-8.55484684794661,336.81478316599
738279.56456610618624836206,10.4504531998657,-8.54253771579129,336.802474033835
738279.56456619664095342159,10.462762332021,-8.54253771579129,336.851710562456
738279.56456628709565848112,10.4750714641764,-8.53022858363597,336.851710562456
738279.56456637755036354065,10.4381440677104,-8.56715598010193,336.839401430301
738279.56456646800506860018,10.462762332021,-8.59177424441257,336.839401430301
738279.56456655845977365971,10.4012166712444,-8.61639250872321,336.839401430301
738279.56456664891447871923,10.3889075390891,-8.64101077303384,336.851710562456
738279.56456673936918377876,10.3396710104678,-8.70255643381044,336.888637958922
738279.56456682970747351646,10.3642892747785,-8.76410209458703,336.851710562456
738279.56456692016217857599,10.2904344818466,-8.78872035889767,336.876328826767
738279.56456701061688363552,10.2535070853806,-8.80102949105299,336.913256223233
738279.56456710107158869505,10.2165796889147,-8.82564775536363,336.900947091077
738279.56456719152629375458,10.2781253496913,-8.81333862320831,336.900947091077
738279.56456728198099881411,10.2535070853806,-8.86257515182958,336.900947091077
738279.56456737243570387363,10.2411979532253,-8.86257515182958,336.913256223233
738279.56456746289040893316,10.2781253496913,-8.83795688751895,336.839401430301
738279.56456755322869867086,10.2165796889147,-8.83795688751895,336.876328826767
738279.56456764368340373039,10.2165796889147,-8.8748842839849,336.802474033835
738279.56456773413810878992,10.22888882107,-8.86257515182958,336.802474033835
738279.56456782459281384945,10.22888882107,-8.82564775536363,336.851710562456
738279.56456791504751890898,10.2781253496913,-8.83795688751895,336.802474033835
738279.56456800550222396851,10.2658162175359,-8.85026601967427,336.777855769524
738279.56456809595692902803,10.191961424604,-8.82564775536363,336.81478316599
738279.56456818641163408756,10.2411979532253,-8.89950254829554,336.839401430301
738279.56456827686633914709,10.191961424604,-8.86257515182958,336.777855769524
738279.56456836720462888479,10.2535070853806,-8.88719341614022,336.753237505214
738279.56456845765933394432,10.22888882107,-8.86257515182958,336.802474033835
738279.56456854811403900385,10.2411979532253,-8.92412081260618,336.79016490168
738279.56456863856874406338,10.2165796889147,-8.94873907691682,336.642455315816
738279.56456872902344912291,10.2165796889147,-8.9364299447615,336.667073580126
738279.56456881947815418243,10.2165796889147,-8.9364299447615,336.667073580126
738279.56456890993285924196,10.1427248959827,-8.91181168045086,336.543982258573
738279.56456900038756430149,10.2042705567593,-8.91181168045086,336.63014618366
738279.56456909084226936102,10.22888882107,-8.89950254829554,336.765546637369
738279.56456918118055909872,10.2042705567593,-8.92412081260618,336.802474033835
738279.56456927163526415825,10.2165796889147,-8.9364299447615,336.851710562456
738279.56456936208996921778,10.22888882107,-8.92412081260618,336.79016490168
738279.56456945254467427731,10.191961424604,-8.92412081260618,336.851710562456
738279.56456954299937933683,10.1796522924487,-8.94873907691682,336.925565355388
738279.56456963345408439636,10.2042705567593,-8.9364299447615,336.900947091077
738279.56456972390878945589,10.1673431602934,-8.96104820907214,336.876328826767
738279.56456981436349451542,10.191961424604,-8.94873907691682,336.913256223233
738279.56456990470178425312,10.2165796889147,-8.96104820907214,336.851710562456
738279.56456999515648931265,10.1796522924487,-8.97335734122746,336.79016490168
738279.56457008561119437218,10.1673431602934,-8.9364299447615,336.802474033835
738279.56457017606589943171,10.1550340281381,-8.9364299447615,336.81478316599
738279.56457026652060449123,10.1304157638274,-8.9364299447615,336.802474033835
738279.56457035697530955076,10.1673431602934,-8.97335734122746,336.79016490168
738279.56457044743001461029,10.191961424604,-8.94873907691682,336.802474033835
738279.56457053788471966982,10.191961424604,-8.94873907691682,336.79016490168
738279.56457062833942472935,10.1550340281381,-8.9364299447615,336.79016490168
738279.56457071867771446705,10.1673431602934,-8.96104820907214,336.777855769524
738279.56457080913241952658,10.1673431602934,-8.97335734122746,336.81478316599
738279.56457089958712458611,10.2165796889147,-8.9364299447615,336.777855769524
738279.56457099004182964563,10.1550340281381,-8.94873907691682,336.765546637369
738279.56457108049653470516,10.1427248959827,-8.94873907691682,336.827092298145
738279.56457117095123976469,10.1550340281381,-8.96104820907214,336.851710562456
738279.56457126140594482422,10.1427248959827,-8.98566647338277,336.876328826767
738279.56457135186064988375,10.191961424604,-8.96104820907214,336.913256223233
738279.56457144231535494328,10.1796522924487,-8.92412081260618,336.839401430301
738279.56457153265364468098,10.1550340281381,-8.96104820907214,336.913256223233
738279.56457162310834974051,10.191961424604,-8.98566647338277,336.925565355388
738279.56457171356305480003,10.1550340281381,-8.96104820907214,336.839401430301
738279.56457180401775985956,10.1796522924487,-8.94873907691682,336.913256223233
738279.56457189447246491909,10.2165796889147,-8.91181168045086,336.81478316599
738279.56457198492716997862,10.1550340281381,-8.97335734122746,336.888637958922
738279.56457207538187503815,10.191961424604,-8.98566647338277,336.827092298145
738279.56457216583658009768,10.1550340281381,-8.97335734122746,336.851710562456
738279.56457225617486983538,10.1673431602934,-8.94873907691682,336.827092298145
738279.56457234662957489491,10.191961424604,-8.96104820907214,336.79016490168
738279.56457243708427995443,10.22888882107,-8.94873907691682,336.667073580126
738279.56457252753898501396,10.1796522924487,-8.9364299447615,336.753237505214
738279.56457261799369007349,10.191961424604,-8.96104820907214,336.79016490168
738279.56457270844839513302,10.191961424604,-8.9364299447615,336.900947091077
738279.56457279890310019255,10.191961424604,-8.92412081260618,336.900947091077
738279.56457288935780525208,10.2165796889147,-8.92412081260618,336.913256223233
738279.56457297981251031160,10.2535070853806,-8.89950254829554,336.900947091077
738279.56457307015080004930,10.2658162175359,-8.85026601967427,336.888637958922
738279.56457316060550510883,10.2411979532253,-8.91181168045086,336.950183619699
738279.56457325106021016836,10.22888882107,-8.91181168045086,336.839401430301
738279.56457334151491522789,10.1550340281381,-8.91181168045086,336.913256223233
738279.56457343196962028742,10.1796522924487,-8.92412081260618,336.962492751854
738279.56457352242432534695,10.2165796889147,-8.91181168045086,336.974801884009
738279.56457361287903040648,10.1550340281381,-8.98566647338277,336.876328826767
738279.56457370333373546600,10.1673431602934,-8.97335734122746,336.900947091077
738279.56457379378844052553,10.1550340281381,-8.98566647338277,336.950183619699
738279.56457388412673026323,10.1550340281381,-8.97335734122746,336.900947091077
738279.56457397458143532276,10.1304157638274,-9.01028473769341,336.962492751854
738279.56457406503614038229,10.1673431602934,-8.97335734122746,336.950183619699
738279.56457415549084544182,10.1796522924487,-8.99797560553809,336.888637958922
738279.56457424594555050135,10.1550340281381,-8.99797560553809,336.925565355388
738279.56457433640025556087,10.1673431602934,-8.98566647338277,336.962492751854
738279.56457442685496062040,10.1304157638274,-8.97335734122746,336.81478316599
738279.56457451730966567993,10.1550340281381,-9.01028473769341,336.827092298145
738279.56457460764795541763,10.1673431602934,-8.99797560553809,336.839401430301
738279.56457469810266047716,10.191961424604,-8.9364299447615,336.888637958922
738279.56457478855736553669,10.2042705567593,-8.83795688751895,336.925565355388
738279.56457487901207059622,10.3642892747785,-8.45637379070406,336.913256223233
738279.56457496946677565575,10.5119988606423,-7.93939024018067,336.925565355388
738279.56457505992148071527,10.4873805963317,-7.64397106845302,336.913256223233
738279.56457515037618577480,10.22888882107,-8.25942767621896,336.81478316599
738279.56457524083089083433,10.0319427065849,-8.96104820907214,336.888637958922
738279.56457533128559589386,10.0319427065849,-9.08413953062532,336.962492751854
738279.56457542162388563156,10.1550340281381,-8.91181168045086,336.937874487543
738279.56457551207859069109,10.191961424604,-8.91181168045086,336.937874487543
738279.56457560253329575062,10.1673431602934,-8.92412081260618,336.925565355388
738279.56457569298800081015,10.191961424604,-8.89950254829554,336.888637958922
738279.56457578344270586967,10.191961424604,-8.92412081260618,336.864019694611
738279.56457587389741092920,10.191961424604,-8.9364299447615,336.900947091077
738279.56457596435211598873,10.22888882107,-8.89950254829554,336.691691844437
738279.56457605480682104826,10.191961424604,-8.89950254829554,336.753237505214
738279.56457614526152610779,10.2042705567593,-8.88719341614022,336.888637958922
738279.56457623559981584549,10.22888882107,-8.91181168045086,336.888637958922
738279.56457632605452090502,10.2165796889147,-8.91181168045086,336.913256223233
738279.56457641650922596455,10.2165796889147,-8.88719341614022,336.765546637369
738279.56457650696393102407,10.2165796889147,-8.8748842839849,336.851710562456
738279.56457659741863608360,10.22888882107,-8.8748842839849,336.851710562456
738279.56457668787334114313,10.2535070853806,-8.83795688751895,336.900947091077
738279.56457677832804620266,10.2658162175359,-8.83795688751895,336.913256223233
738279.56457686878275126219,10.2411979532253,-8.85026601967427,336.864019694611
738279.56457695912104099989,10.22888882107,-8.82564775536363,336.851710562456
738279.56457704957574605942,10.2658162175359,-8.78872035889767,336.827092298145
738279.56457714003045111895,10.2904344818466,-8.71486556596576,336.827092298145
738279.56457723048515617847,10.2781253496913,-8.71486556596576,336.839401430301
738279.56457732093986123800,10.3027436140019,-8.72717469812108,336.900947091077
738279.56457741139456629753,10.2904344818466,-8.66562903734448,336.925565355388
738279.56457750184927135706,10.3396710104678,-8.62870164087853,336.937874487543
738279.56457759230397641659,10.3519801426232,-8.59177424441257,336.937874487543
738279.56457768275868147612,10.3519801426232,-8.61639250872321,336.987111016165
738279.56457777309697121382,10.3642892747785,-8.60408337656789,336.962492751854
738279.56457786355167627335,10.3642892747785,-8.59177424441257,336.913256223233
738279.56457795400638133287,10.3519801426232,-8.60408337656789,336.950183619699
738279.56457804446108639240,10.3396710104678,-8.64101077303384,336.99942014832
738279.56457813491579145193,10.3150527461572,-8.65331990518916,336.851710562456
738279.56457822537049651146,10.3519801426232,-8.65331990518916,336.950183619699
738279.56457831582520157099,10.3273618783125,-8.69024730165512,336.950183619699
738279.56457840627990663052,10.2904344818466,-8.7394838302764,336.864019694611
738279.56457849673461169004,10.2658162175359,-8.77641122674235,336.864019694611
738279.56457858707290142775,10.2411979532253,-8.81333862320831,336.851710562456
738279.56457867752760648727,10.2411979532253,-8.83795688751895,336.962492751854
738279.56457876798231154680,10.2165796889147,-8.86257515182958,336.987111016165
738279.56457885843701660633,10.2042705567593,-8.8748842839849,336.925565355388
738279.56457894889172166586,10.191961424604,-8.8748842839849,336.937874487543
738279.56457903934642672539,10.2042705567593,-8.8748842839849,336.839401430301
738279.56457912980113178492,10.1796522924487,-8.88719341614022,336.864019694611
738279.56457922025583684444,10.1673431602934,-8.91181168045086,336.888637958922
738279.56457931059412658215,10.191961424604,-8.89950254829554,336.876328826767
738279.56457940104883164167,10.2042705567593,-8.89950254829554,336.876328826767
738279.56457949150353670120,10.2165796889147,-8.88719341614022,336.740928373058
738279.56457958195824176073,10.2165796889147,-8.88719341614022,336.777855769524
738279.56457967241294682026,10.2042705567593,-8.89950254829554,336.888637958922
738279.56457976286765187979,10.22888882107,-8.86257515182958,336.913256223233
738279.56457985332235693932,10.2165796889147,-8.88719341614022,336.913256223233
738279.56457994377706199884,10.22888882107,-8.86257515182958,336.876328826767
738279.56458003423176705837,10.22888882107,-8.85026601967427,336.900947091077
738279.56458012457005679607,10.191961424604,-8.88719341614022,336.888637958922
738279.56458021502476185560,10.2165796889147,-8.8748842839849,336.876328826767
738279.56458030547946691513,10.2411979532253,-8.86257515182958,336.851710562456
738279.56458039593417197466,10.2411979532253,-8.85026601967427,336.925565355388
738279.56458048638887703419,10.2165796889147,-8.8748842839849,336.851710562456
738279.56458057684358209372,10.2165796889147,-8.8748842839849,336.851710562456
738279.56458066729828715324,10.2165796889147,-8.85026601967427,336.864019694611
738279.56458075775299221277,10.191961424604,-8.91181168045086,336.827092298145
738279.56458084820769727230,10.2042705567593,-8.88719341614022,336.864019694611
738279.56458093854598701000,10.2042705567593,-8.8748842839849,336.876328826767
738279.56458102900069206953,10.191961424604,-8.9364299447615,336.888637958922
738279.56458111945539712906,10.2042705567593,-8.89950254829554,336.827092298145
738279.56458120991010218859,10.1673431602934,-8.91181168045086,336.925565355388
738279.56458130036480724812,10.1796522924487,-8.92412081260618,336.913256223233
738279.56458139081951230764,10.191961424604,-8.9364299447615,336.851710562456
738279.56458148127421736717,10.191961424604,-8.89950254829554,336.802474033835
738279.56458157172892242670,10.1673431602934,-8.92412081260618,336.777855769524
738279.56458166206721216440,10.2042705567593,-8.88719341614022,336.777855769524
738279.56458175252191722393,10.2042705567593,-8.89950254829554,336.765546637369
738279.56458184297662228346,10.2042705567593,-8.91181168045086,336.777855769524
738279.56458193343132734299,10.191961424604,-8.91181168045086,336.864019694611
738279.56458202388603240252,10.1796522924487,-8.92412081260618,336.802474033835
738279.56458211434073746204,10.191961424604,-8.91181168045086,336.864019694611
738279.56458220479544252157,10.1796522924487,-8.91181168045086,336.876328826767
738279.56458229525014758110,10.2042705567593,-8.88719341614022,336.913256223233
738279.56458238570485264063,10.2165796889147,-8.8748842839849,336.839401430301
738279.56458247604314237833,10.191961424604,-8.88719341614022,336.937874487543
738279.56458256649784743786,10.1673431602934,-8.9364299447615,336.913256223233
738279.56458265695255249739,10.2165796889147,-8.8748842839849,336.827092298145
738279.56458274740725755692,10.2165796889147,-8.8748842839849,336.888637958922
738279.56458283786196261644,10.191961424604,-8.92412081260618,336.876328826767
738279.56458292831666767597,10.191961424604,-8.91181168045086,336.827092298145
738279.56458301877137273550,10.191961424604,-8.88719341614022,336.753237505214
738279.56458310922607779503,10.1796522924487,-8.91181168045086,336.753237505214
738279.56458319968078285456,10.2042705567593,-8.88719341614022,336.851710562456
738279.56458329001907259226,10.2165796889147,-8.88719341614022,336.851710562456
738279.56458338047377765179,10.2042705567593,-8.92412081260618,336.851710562456
738279.56458347092848271132,10.2042705567593,-8.92412081260618,336.888637958922
738279.56458356138318777084,10.2042705567593,-8.91181168045086,336.753237505214
738279.56458365183789283037,10.2042705567593,-8.89950254829554,336.839401430301
738279.56458374229259788990,10.1796522924487,-8.91181168045086,336.851710562456
738279.56458383274730294943,10.1796522924487,-8.91181168045086,336.79016490168
738279.56458392320200800896,10.1673431602934,-8.9364299447615,336.827092298145
738279.56458401354029774666,10.1796522924487,-8.91181168045086,336.839401430301
738279.56458410399500280619,10.2165796889147,-8.88719341614022,336.79016490168
738279.56458419444970786572,10.191961424604,-8.91181168045086,336.827092298145
738279.56458428490441292524,10.1796522924487,-8.91181168045086,336.81478316599
738279.56458437535911798477,10.1673431602934,-8.92412081260618,336.79016490168
738279.56458446581382304430,10.1796522924487,-8.91181168045086,336.753237505214
738279.56458455626852810383,10.2042705567593,-8.92412081260618,336.777855769524
738279.56458464672323316336,10.191961424604,-8.91181168045086,336.765546637369
738279.56458473717793822289,10.191961424604,-8.89950254829554,336.765546637369
738279.56458482751622796059,10.2411979532253,-8.8748842839849,336.81478316599
738279.56458491797093302011,10.2042705567593,-8.89950254829554,336.839401430301
738279.56458500842563807964,10.2165796889147,-8.89950254829554,336.839401430301
738279.56458509888034313917,10.2658162175359,-8.82564775536363,336.888637958922
738279.56458518933504819870,10.2535070853806,-8.82564775536363,336.864019694611
738279.56458527978975325823,10.22888882107,-8.86257515182958,336.79016490168
738279.56458537024445831776,10.22888882107,-8.8748842839849,336.913256223233
738279.56458546069916337729,10.2165796889147,-8.85026601967427,336.900947091077
738279.56458555115386843681,10.2535070853806,-8.86257515182958,336.937874487543
738279.56458564149215817451,10.2165796889147,-8.91181168045086,336.802474033835
738279.56458573194686323404,10.1796522924487,-8.88719341614022,336.876328826767
738279.56458582240156829357,10.2042705567593,-8.92412081260618,336.900947091077
738279.56458591285627335310,10.2042705567593,-8.9364299447615,336.888637958922
738279.56458600331097841263,10.2042705567593,-8.92412081260618,336.864019694611
738279.56458609376568347216,10.191961424604,-8.9364299447615,336.888637958922
738279.56458618422038853168,10.191961424604,-8.92412081260618,336.925565355388
738279.56458627467509359121,10.1673431602934,-8.9364299447615,336.925565355388
738279.56458636501338332891,10.1673431602934,-8.9364299447615,336.888637958922
738279.56458645546808838844,10.2042705567593,-8.92412081260618,336.864019694611
738279.56458654592279344797,10.2535070853806,-8.89950254829554,336.839401430301
738279.56458663637749850750,10.2042705567593,-8.92412081260618,336.802474033835
738279.56458672683220356703,10.2165796889147,-8.97335734122746,336.827092298145
738279.56458681728690862656,10.2658162175359,-8.82564775536363,336.974801884009
738279.56458690774161368608,10.3519801426232,-8.54253771579129,337.036347544786
738279.56458699819631874561,10.5858536535742,-8.00093590095726,336.913256223233
738279.56458708865102380514,10.6350901821955,-7.53318887905515,336.99942014832
738279.56458717898931354284,10.3765984069338,-7.97631763664663,336.728619240903
738279.56458726944401860237,10.1427248959827,-8.6779381694998,336.753237505214
738279.56458735989872366190,10.0811792352062,-9.01028473769341,336.79016490168
738279.56458745035342872143,10.2042705567593,-8.82564775536363,336.81478316599
738279.56458754080813378096,10.2535070853806,-8.80102949105299,336.802474033835
738279.56458763126283884048,10.2165796889147,-8.85026601967427,336.802474033835
738279.56458772171754390001,10.2411979532253,-8.83795688751895,336.765546637369
738279.56458781217224895954,10.2781253496913,-8.82564775536363,336.753237505214
738279.56458790262695401907,10.2781253496913,-8.81333862320831,336.827092298145
738279.56458799296524375677,10.2904344818466,-8.78872035889767,336.827092298145
738279.56458808341994881630,10.3027436140019,-8.80102949105299,336.81478316599
738279.56458817387465387583,10.2904344818466,-8.82564775536363,336.851710562456
738279.56458826432935893536,10.3027436140019,-8.81333862320831,336.839401430301
738279.56458835478406399488,10.2658162175359,-8.83795688751895,336.851710562456
738279.56458844523876905441,10.2904344818466,-8.78872035889767,336.900947091077
738279.56458853569347411394,10.3027436140019,-8.78872035889767,336.900947091077
738279.56458862614817917347,10.3027436140019,-8.76410209458703,336.851710562456
738279.56458871648646891117,10.3027436140019,-8.76410209458703,336.827092298145
738279.56458880694117397070,10.3150527461572,-8.77641122674235,336.839401430301
738279.56458889739587903023,10.3150527461572,-8.75179296243171,336.876328826767
738279.56458898785058408976,10.3273618783125,-8.71486556596576,336.864019694611
738279.56458907830528914928,10.3150527461572,-8.7394838302764,336.876328826767
738279.56458916875999420881,10.3519801426232,-8.6779381694998,336.802474033835
738279.56458925921469926834,10.4012166712444,-8.64101077303384,336.876328826767
738279.56458934966940432787,10.3765984069338,-8.65331990518916,336.777855769524
738279.56458944012410938740,10.4012166712444,-8.61639250872321,336.839401430301
738279.56458953046239912510,10.3889075390891,-8.60408337656789,336.864019694611
738279.56458962091710418463,10.4381440677104,-8.56715598010193,336.876328826767
738279.56458971137180924416,10.4381440677104,-8.55484684794661,336.864019694611
738279.56458980182651430368,10.4135258033998,-8.56715598010193,336.864019694611
738279.56458989228121936321,10.4504531998657,-8.54253771579129,336.913256223233
738279.56458998273592442274,10.4258349355551,-8.54253771579129,336.876328826767
738279.56459007319062948227,10.4135258033998,-8.54253771579129,336.740928373058
738279.56459016364533454180,10.4504531998657,-8.53022858363597,336.716310108748
738279.56459025410003960133,10.4135258033998,-8.56715598010193,336.864019694611
738279.56459034443832933903,10.4258349355551,-8.61639250872321,336.876328826767
738279.56459043489303439856,10.4012166712444,-8.65331990518916,336.827092298145
738279.56459052534773945808,10.3642892747785,-8.69024730165512,336.913256223233
738279.56459061580244451761,10.3396710104678,-8.71486556596576,336.876328826767
738279.56459070625714957714,10.3150527461572,-8.77641122674235,336.777855769524
738279.56459079671185463667,10.3027436140019,-8.80102949105299,336.876328826767
738279.56459088716655969620,10.2781253496913,-8.82564775536363,336.937874487543
738279.56459097762126475573,10.2781253496913,-8.82564775536363,336.900947091077
738279.56459106795955449343,10.2658162175359,-8.83795688751895,336.802474033835
738279.56459115841425955296,10.2658162175359,-8.85026601967427,336.888637958922
738279.56459124886896461248,10.2411979532253,-8.86257515182958,336.888637958922
738279.56459133932366967201,10.2781253496913,-8.83795688751895,336.81478316599
738279.56459142977837473154,10.2535070853806,-8.86257515182958,336.851710562456
738279.56459152023307979107,10.2411979532253,-8.8748842839849,336.913256223233
738279.56459161068778485060,10.22888882107,-8.8748842839849,336.851710562456
738279.56459170114248991013,10.2411979532253,-8.86257515182958,336.765546637369
738279.56459179159719496965,10.2904344818466,-8.81333862320831,336.79016490168
738279.56459188193548470736,10.2165796889147,-8.88719341614022,336.79016490168
738279.56459197239018976688,10.2658162175359,-8.83795688751895,336.851710562456
738279.56459206284489482641,10.2658162175359,-8.83795688751895,336.876328826767
738279.56459215329959988594,10.2658162175359,-8.85026601967427,336.888637958922
738279.56459224375430494547,10.2535070853806,-8.86257515182958,336.900947091077
738279.56459233420901000500,10.2411979532253,-8.86257515182958,336.81478316599
738279.56459242466371506453,10.2658162175359,-8.83795688751895,336.839401430301
738279.56459251511842012405,10.2535070853806,-8.85026601967427,336.851710562456
738279.56459260557312518358,10.2165796889147,-8.88719341614022,336.876328826767
738279.56459269591141492128,10.2535070853806,-8.85026601967427,336.888637958922
738279.56459278636611998081,10.2535070853806,-8.85026601967427,336.913256223233
738279.56459287682082504034,10.2535070853806,-8.86257515182958,336.81478316599
738279.56459296727553009987,10.2411979532253,-8.8748842839849,336.81478316599
738279.56459305773023515940,10.2411979532253,-8.86257515182958,336.864019694611
738279.56459314818494021893,10.2411979532253,-8.8748842839849,336.864019694611
738279.56459323863964527845,10.2411979532253,-8.88719341614022,336.913256223233
738279.56459332909435033798,10.2411979532253,-8.88719341614022,336.876328826767
738279.56459341943264007568,10.2411979532253,-8.8748842839849,336.81478316599
738279.56459350988734513521,10.2411979532253,-8.88719341614022,336.888637958922
738279.56459360034205019474,10.22888882107,-8.86257515182958,336.851710562456
738279.56459369079675525427,10.22888882107,-8.89950254829554,336.691691844437
738279.56459378125146031380,10.2165796889147,-8.88719341614022,336.888637958922
738279.56459387170616537333,10.2165796889147,-8.88719341614022,336.913256223233
738279.56459396216087043285,10.22888882107,-8.8748842839849,336.900947091077
738279.56459405261557549238,10.22888882107,-8.8748842839849,336.888637958922
738279.56459414307028055191,10.22888882107,-8.8748842839849,336.925565355388
738279.56459423340857028961,10.22888882107,-8.88719341614022,336.925565355388
738279.56459432386327534914,10.2165796889147,-8.89950254829554,336.876328826767
738279.56459441431798040867,10.22888882107,-8.88719341614022,336.913256223233
738279.56459450477268546820,10.22888882107,-8.88719341614022,336.913256223233
738279.56459459522739052773,10.22888882107,-8.88719341614022,336.876328826767
738279.56459468568209558725,10.22888882107,-8.8748842839849,336.937874487543
738279.56459477613680064678,10.2411979532253,-8.8748842839849,336.913256223233
738279.56459486659150570631,10.2411979532253,-8.8748842839849,336.839401430301
738279.56459495704621076584,10.2165796889147,-8.88719341614022,336.900947091077
738279.56459504738450050354,10.2165796889147,-8.88719341614022,336.925565355388
738279.56459513783920556307,10.2165796889147,-8.88719341614022,336.913256223233
738279.56459522829391062260,10.2411979532253,-8.8748842839849,336.876328826767
738279.56459531874861568213,10.22888882107,-8.88719341614022,336.937874487543
738279.56459540920332074165,10.22888882107,-8.89950254829554,336.925565355388
738279.56459549965802580118,10.22888882107,-8.88719341614022,336.802474033835
738279.56459559011273086071,10.22888882107,-8.89950254829554,336.900947091077
738279.56459568056743592024,10.2042705567593,-8.89950254829554,336.937874487543
738279.56459577102214097977,10.2535070853806,-8.8748842839849,336.925565355388
738279.56459586136043071747,10.22888882107,-8.8748842839849,336.839401430301
738279.56459595181513577700,10.2658162175359,-8.86257515182958,336.81478316599
738279.56459604226984083652,10.2658162175359,-8.83795688751895,336.777855769524
738279.56459613272454589605,10.2535070853806,-8.85026601967427,336.79016490168
738279.56459622317925095558,10.2411979532253,-8.86257515182958,336.765546637369
738279.56459631363395601511,10.2781253496913,-8.82564775536363,336.81478316599
738279.56459640408866107464,10.3027436140019,-8.80102949105299,336.777855769524
738279.56459649454336613417,10.2535070853806,-8.86257515182958,336.876328826767
738279.56459658488165587187,10.2658162175359,-8.83795688751895,336.900947091077
738279.56459667533636093140,10.2535070853806,-8.83795688751895,336.888637958922
738279.56459676579106599092,10.2658162175359,-8.83795688751895,336.81478316599
738279.56459685624577105045,10.22888882107,-8.8748842839849,336.900947091077
738279.56459694670047610998,10.2042705567593,-8.88719341614022,336.900947091077
738279.56459703715518116951,10.2042705567593,-8.91181168045086,336.913256223233
738279.56459712760988622904,10.2042705567593,-8.91181168045086,336.81478316599
738279.56459721806459128857,10.191961424604,-8.91181168045086,336.740928373058
738279.56459730851929634809,10.2165796889147,-8.89950254829554,336.925565355388
738279.56459739885758608580,10.1796522924487,-8.89950254829554,336.974801884009
738279.56459748931229114532,10.1673431602934,-8.91181168045086,336.864019694611
738279.56459757976699620485,10.2042705567593,-8.89950254829554,336.888637958922
738279.56459767022170126438,10.191961424604,-8.91181168045086,336.888637958922
738279.56459776067640632391,10.2042705567593,-8.89950254829554,336.950183619699
738279.56459785113111138344,10.2042705567593,-8.89950254829554,336.900947091077
738279.56459794158581644297,10.2165796889147,-8.94873907691682,336.925565355388
738279.56459803204052150249,10.22888882107,-8.88719341614022,336.937874487543
738279.56459812249522656202,10.2904344818466,-8.66562903734448,337.048656676941
738279.56459821283351629972,10.5243079927976,-8.17326375113173,336.888637958922
738279.56459830328822135925,10.6720175786615,-7.60704367198706,337.036347544786
738279.56459839374292641878,10.4873805963317,-7.74244412569557,336.876328826767
738279.56459848419763147831,10.22888882107,-8.46868292285938,336.839401430301
738279.56459857465233653784,10.0196335744296,-9.03490300200405,336.962492751854
738279.56459866510704159737,10.1673431602934,-8.91181168045086,336.987111016165
738279.56459875556174665689,10.22888882107,-8.83795688751895,336.99942014832
738279.56459884601645171642,10.2535070853806,-8.82564775536363,336.99942014832
738279.56459893635474145412,10.2658162175359,-8.83795688751895,336.913256223233
738279.56459902680944651365,10.2658162175359,-8.85026601967427,336.925565355388
738279.56459911726415157318,10.2904344818466,-8.82564775536363,336.950183619699
738279.56459920771885663271,10.2781253496913,-8.83795688751895,336.900947091077
738279.56459929817356169224,10.2904344818466,-8.82564775536363,336.925565355388
738279.56459938862826675177,10.2781253496913,-8.81333862320831,336.900947091077
738279.56459947908297181129,10.2904344818466,-8.81333862320831,336.740928373058
738279.56459956953767687082,10.2781253496913,-8.81333862320831,336.839401430301
738279.56459965999238193035,10.3027436140019,-8.78872035889767,336.888637958922
738279.56459975033067166805,10.3027436140019,-8.78872035889767,336.827092298145
738279.56459984078537672758,10.3027436140019,-8.77641122674235,336.827092298145
738279.56459993124008178711,10.3150527461572,-8.75179296243171,336.876328826767
738279.56460002169478684664,10.3150527461572,-8.72717469812108,336.851710562456
738279.56460011214949190617,10.3150527461572,-8.7394838302764,336.864019694611
738279.56460020260419696569,10.3273618783125,-8.71486556596576,336.81478316599
738279.56460029305890202522,10.3273618783125,-8.71486556596576,336.81478316599
738279.56460038351360708475,10.3396710104678,-8.6779381694998,336.81478316599
738279.56460047396831214428,10.3519801426232,-8.65331990518916,336.802474033835
738279.56460056430660188198,10.3642892747785,-8.65331990518916,336.864019694611
738279.56460065476130694151,10.4012166712444,-8.59177424441257,336.556291390728
738279.56460074521601200104,10.4135258033998,-8.56715598010193,336.740928373058
738279.56460083567071706057,10.4258349355551,-8.54253771579129,336.876328826767
738279.56460092612542212009,10.4381440677104,-8.55484684794661,336.900947091077
738279.56460101658012717962,10.4504531998657,-8.51791945148066,336.925565355388
738279.56460110703483223915,10.462762332021,-8.51791945148066,336.962492751854
738279.56460119748953729868,10.4381440677104,-8.53022858363597,336.950183619699
738279.56460128782782703638,10.4504531998657,-8.51791945148066,336.81478316599
738279.56460137828253209591,10.4258349355551,-8.54253771579129,336.900947091077
738279.56460146873723715544,10.4135258033998,-8.59177424441257,336.851710562456
738279.56460155919194221497,10.3765984069338,-8.64101077303384,336.802474033835
738279.56460164964664727449,10.3642892747785,-8.6779381694998,336.802474033835
738279.56460174010135233402,10.3519801426232,-8.71486556596576,336.802474033835
738279.56460183055605739355,10.3150527461572,-8.75179296243171,336.864019694611
738279.56460192101076245308,10.3027436140019,-8.77641122674235,336.851710562456
738279.56460201146546751261,10.2904344818466,-8.80102949105299,336.839401430301
738279.56460210180375725031,10.2781253496913,-8.81333862320831,336.937874487543
738279.56460219225846230984,10.2658162175359,-8.82564775536363,336.900947091077
738279.56460228271316736937,10.2658162175359,-8.83795688751895,336.900947091077
738279.56460237316787242889,10.2535070853806,-8.86257515182958,336.888637958922
738279.56460246362257748842,10.2535070853806,-8.85026601967427,336.888637958922
738279.56460255407728254795,10.2658162175359,-8.82564775536363,336.913256223233
738279.56460264453198760748,10.2658162175359,-8.82564775536363,336.937874487543
738279.56460273498669266701,10.2658162175359,-8.85026601967427,336.925565355388
738279.56460282544139772654,10.2658162175359,-8.83795688751895,336.888637958922
738279.56460291577968746424,10.2658162175359,-8.83795688751895,336.925565355388
738279.56460300623439252377,10.2535070853806,-8.82564775536363,336.913256223233
738279.56460309668909758329,10.2535070853806,-8.83795688751895,336.81478316599
738279.56460318714380264282,10.2658162175359,-8.83795688751895,336.81478316599
738279.56460327759850770235,10.2658162175359,-8.83795688751895,336.802474033835
738279.56460336805321276188,10.2781253496913,-8.82564775536363,336.876328826767
738279.56460345850791782141,10.2658162175359,-8.82564775536363,336.79016490168
738279.56460354896262288094,10.2658162175359,-8.85026601967427,336.753237505214
738279.56460363930091261864,10.2658162175359,-8.83795688751895,336.851710562456
738279.56460372975561767817,10.2535070853806,-8.83795688751895,336.888637958922
738279.56460382021032273769,10.2658162175359,-8.83795688751895,336.827092298145
738279.56460391066502779722,10.2535070853806,-8.85026601967427,336.851710562456
738279.56460400111973285675,10.2535070853806,-8.83795688751895,336.851710562456
738279.56460409157443791628,10.2535070853806,-8.85026601967427,336.864019694611
738279.56460418202914297581,10.2411979532253,-8.86257515182958,336.642455315816
738279.56460427248384803534,10.2411979532253,-8.86257515182958,336.704000976592
738279.56460436293855309486,10.2658162175359,-8.85026601967427,336.925565355388
738279.56460445327684283257,10.2535070853806,-8.86257515182958,336.913256223233
738279.56460454373154789209,10.2411979532253,-8.8748842839849,336.839401430301
738279.56460463418625295162,10.2411979532253,-8.86257515182958,336.888637958922
738279.56460472464095801115,10.2411979532253,-8.86257515182958,336.851710562456
738279.56460481509566307068,10.2411979532253,-8.86257515182958,336.900947091077
738279.56460490555036813021,10.2411979532253,-8.86257515182958,336.839401430301
738279.56460499600507318974,10.2535070853806,-8.8748842839849,336.827092298145
738279.56460508645977824926,10.2411979532253,-8.8748842839849,336.876328826767
738279.56460517691448330879,10.2411979532253,-8.8748842839849,336.81478316599
738279.56460526725277304649,10.2411979532253,-8.86257515182958,336.827092298145
738279.56460535770747810602,10.2411979532253,-8.86257515182958,336.81478316599
738279.56460544816218316555,10.2411979532253,-8.8748842839849,336.802474033835
738279.56460553861688822508,10.2411979532253,-8.86257515182958,336.827092298145
738279.56460562907159328461,10.2411979532253,-8.85026601967427,336.851710562456
738279.56460571952629834414,10.2411979532253,-8.86257515182958,336.802474033835
738279.56460580998100340366,10.2411979532253,-8.86257515182958,336.864019694611
738279.56460590043570846319,10.2411979532253,-8.86257515182958,336.851710562456
738279.56460599077399820089,10.22888882107,-8.8748842839849,336.81478316599
738279.56460608122870326042,10.2535070853806,-8.86257515182958,336.81478316599
738279.56460617168340831995,10.2411979532253,-8.86257515182958,336.876328826767
738279.56460626213811337948,10.2411979532253,-8.86257515182958,336.888637958922
738279.56460635259281843901,10.2411979532253,-8.86257515182958,336.888637958922
738279.56460644304752349854,10.2411979532253,-8.86257515182958,336.913256223233
738279.56460653350222855806,10.2411979532253,-8.86257515182958,336.913256223233
738279.56460662395693361759,10.2411979532253,-8.8748842839849,336.925565355388
738279.56460671441163867712,10.2411979532253,-8.8748842839849,336.876328826767
738279.56460680474992841482,10.2411979532253,-8.86257515182958,336.913256223233
738279.56460689520463347435,10.2411979532253,-8.8748842839849,336.937874487543
738279.56460698565933853388,10.2411979532253,-8.86257515182958,336.864019694611
738279.56460707611404359341,10.2535070853806,-8.85026601967427,336.913256223233
738279.56460716656874865294,10.2658162175359,-8.83795688751895,336.925565355388
738279.56460725702345371246,10.2535070853806,-8.83795688751895,336.839401430301
738279.56460734747815877199,10.2781253496913,-8.82564775536363,336.913256223233
738279.56460743793286383152,10.3027436140019,-8.80102949105299,336.950183619699
738279.56460752838756889105,10.3150527461572,-8.77641122674235,336.913256223233
738279.56460761872585862875,10.2781253496913,-8.82564775536363,336.876328826767
738279.56460770918056368828,10.2658162175359,-8.82564775536363,336.716310108748
738279.56460779963526874781,10.2658162175359,-8.81333862320831,336.839401430301
738279.56460789008997380733,10.2535070853806,-8.82564775536363,336.913256223233
738279.56460798054467886686,10.2535070853806,-8.82564775536363,336.900947091077
738279.56460807099938392639,10.2411979532253,-8.85026601967427,336.937874487543
738279.56460816145408898592,10.22888882107,-8.8748842839849,336.962492751854
738279.56460825190879404545,10.2165796889147,-8.88719341614022,336.876328826767
738279.56460834224708378315,10.2042705567593,-8.89950254829554,336.950183619699
738279.56460843270178884268,10.2165796889147,-8.89950254829554,336.937874487543
738279.56460852315649390221,10.2042705567593,-8.91181168045086,336.913256223233
738279.56460861361119896173,10.2165796889147,-8.89950254829554,336.876328826767
738279.56460870406590402126,10.2165796889147,-8.88719341614022,336.962492751854
738279.56460879452060908079,10.2165796889147,-8.89950254829554,336.937874487543
738279.56460888497531414032,10.22888882107,-8.89950254829554,336.864019694611
738279.56460897543001919985,10.2165796889147,-8.89950254829554,336.925565355388
738279.56460906588472425938,10.22888882107,-8.92412081260618,336.876328826767
738279.56460915622301399708,10.2411979532253,-8.91181168045086,336.827092298145
738279.56460924667771905661,10.2904344818466,-8.71486556596576,336.913256223233
738279.56460933713242411613,10.462762332021,-8.35790073346151,336.864019694611
738279.56460942758712917566,10.6473993143508,-7.80398978647216,336.913256223233
738279.56460951804183423519,10.5858536535742,-7.58242540767642,336.864019694611
738279.56460960849653929472,10.2781253496913,-8.25942767621896,336.728619240903
738279.56460969895124435425,10.0442518387402,-8.92412081260618,336.839401430301
738279.56460978940594941378,10.0196335744296,-9.07183039847001,336.864019694611
738279.56460987986065447330,10.1796522924487,-8.8748842839849,336.864019694611
738279.56460997019894421101,10.2535070853806,-8.81333862320831,336.864019694611
738279.56461006065364927053,10.2535070853806,-8.83795688751895,336.827092298145
738279.56461015110835433006,10.2658162175359,-8.85026601967427,336.79016490168
738279.56461024156305938959,10.2658162175359,-8.85026601967427,336.839401430301
738279.56461033201776444912,10.2658162175359,-8.83795688751895,336.839401430301
738279.56461042247246950865,10.2781253496913,-8.83795688751895,336.81478316599
738279.56461051292717456818,10.2781253496913,-8.83795688751895,336.851710562456
738279.56461060338187962770,10.2781253496913,-8.82564775536363,336.876328826767
738279.56461069372016936541,10.2904344818466,-8.81333862320831,336.900947091077
738279.56461078417487442493,10.2904344818466,-8.82564775536363,336.900947091077
738279.56461087462957948446,10.2904344818466,-8.80102949105299,336.802474033835
738279.56461096508428454399,10.3027436140019,-8.80102949105299,336.888637958922
738279.56461105553898960352,10.3027436140019,-8.78872035889767,336.913256223233
738279.56461114599369466305,10.3150527461572,-8.76410209458703,336.864019694611
738279.56461123644839972258,10.3150527461572,-8.76410209458703,336.704000976592
738279.56461132690310478210,10.3273618783125,-8.7394838302764,336.777855769524
738279.56461141735780984163,10.3396710104678,-8.72717469812108,336.876328826767
738279.56461150769609957933,10.3519801426232,-8.70255643381044,336.79016490168
738279.56461159815080463886,10.3642892747785,-8.69024730165512,336.851710562456
738279.56461168860550969839,10.3642892747785,-8.6779381694998,336.888637958922
738279.56461177906021475792,10.3889075390891,-8.64101077303384,336.888637958922
738279.56461186951491981745,10.4012166712444,-8.61639250872321,336.827092298145
738279.56461195996962487698,10.4135258033998,-8.59177424441257,336.876328826767
738279.56461205042432993650,10.4258349355551,-8.57946511225725,336.888637958922
738279.56461214087903499603,10.4381440677104,-8.55484684794661,336.839401430301
738279.56461223133374005556,10.4258349355551,-8.56715598010193,336.913256223233
738279.56461232167202979326,10.4504531998657,-8.54253771579129,336.900947091077
738279.56461241212673485279,10.4381440677104,-8.55484684794661,336.888637958922
738279.56461250258143991232,10.4381440677104,-8.54253771579129,336.851710562456
738279.56461259303614497185,10.4258349355551,-8.56715598010193,336.888637958922
738279.56461268349085003138,10.4135258033998,-8.59177424441257,336.827092298145
738279.56461277394555509090,10.4012166712444,-8.62870164087853,336.802474033835
738279.56461286440026015043,10.3765984069338,-8.6779381694998,336.827092298145
738279.56461295485496520996,10.3396710104678,-8.71486556596576,336.81478316599
738279.56461304519325494766,10.3150527461572,-8.76410209458703,336.81478316599
738279.56461313564796000719,10.3027436140019,-8.77641122674235,336.876328826767
738279.56461322610266506672,10.2904344818466,-8.80102949105299,336.925565355388
738279.56461331655737012625,10.2411979532253,-8.83795688751895,336.802474033835
738279.56461340701207518578,10.2658162175359,-8.83795688751895,336.81478316599
738279.56461349746678024530,10.2658162175359,-8.83795688751895,336.827092298145
738279.56461358792148530483,10.22888882107,-8.8748842839849,336.864019694611
738279.56461367837619036436,10.2411979532253,-8.85026601967427,336.913256223233
738279.56461376883089542389,10.2535070853806,-8.85026601967427,336.876328826767
738279.56461385916918516159,10.2411979532253,-8.85026601967427,336.937874487543
738279.56461394962389022112,10.2411979532253,-8.85026601967427,336.950183619699
738279.56461404007859528065,10.2535070853806,-8.85026601967427,336.913256223233
738279.56461413053330034018,10.2535070853806,-8.83795688751895,336.900947091077
738279.56461422098800539970,10.22888882107,-8.85026601967427,336.876328826767
738279.56461431144271045923,10.22888882107,-8.85026601967427,336.79016490168
738279.56461440189741551876,10.2658162175359,-8.83795688751895,336.777855769524
738279.56461449235212057829,10.2658162175359,-8.85026601967427,336.839401430301
738279.56461458280682563782,10.2165796889147,-8.85026601967427,336.864019694611
738279.56461467314511537552,10.22888882107,-8.83795688751895,336.827092298145
738279.56461476359982043505,10.2658162175359,-8.85026601967427,336.654764447971
738279.56461485405452549458,10.2904344818466,-8.82564775536363,336.728619240903
738279.56461494450923055410,10.2535070853806,-8.85026601967427,336.888637958922
738279.56461503496393561363,10.2658162175359,-8.86257515182958,336.913256223233
738279.56461512541864067316,10.2535070853806,-8.83795688751895,336.925565355388
738279.56461521587334573269,10.2658162175359,-8.85026601967427,336.864019694611
738279.56461530632805079222,10.2904344818466,-8.85026601967427,336.937874487543
738279.56461539666634052992,10.2781253496913,-8.85026601967427,336.913256223233
738279.56461548712104558945,10.2535070853806,-8.86257515182958,336.937874487543
738279.56461557757575064898,10.2535070853806,-8.86257515182958,336.864019694611
738279.56461566803045570850,10.2411979532253,-8.8748842839849,336.900947091077
738279.56461575848516076803,10.2658162175359,-8.86257515182958,336.913256223233
738279.56461584893986582756,10.2535070853806,-8.85026601967427,336.864019694611
738279.56461593939457088709,10.2535070853806,-8.8748842839849,336.937874487543
738279.56461602984927594662,10.2411979532253,-8.8748842839849,336.925565355388
738279.56461612030398100615,10.2781253496913,-8.86257515182958,336.950183619699
738279.56461621064227074385,10.2658162175359,-8.8748842839849,336.864019694611
738279.56461630109697580338,10.2781253496913,-8.8748842839849,336.900947091077
738279.56461639155168086290,10.2535070853806,-8.8748842839849,336.913256223233
738279.56461648200638592243,10.2411979532253,-8.88719341614022,336.81478316599
738279.56461657246109098196,10.2411979532253,-8.8748842839849,336.925565355388
738279.56461666291579604149,10.2411979532253,-8.8748842839849,336.913256223233
738279.56461675337050110102,10.2411979532253,-8.88719341614022,336.839401430301
738279.56461684382520616055,10.2658162175359,-8.8748842839849,336.888637958922
738279.56461693427991122007,10.2535070853806,-8.88719341614022,336.937874487543
738279.56461702461820095778,10.2781253496913,-8.86257515182958,336.937874487543
738279.56461711507290601730,10.2411979532253,-8.8748842839849,336.851710562456
738279.56461720552761107683,10.2781253496913,-8.8748842839849,336.925565355388
738279.56461729598231613636,10.2904344818466,-8.86257515182958,336.950183619699
738279.56461738643702119589,10.2658162175359,-8.8748842839849,336.950183619699
738279.56461747689172625542,10.2535070853806,-8.8748842839849,336.839401430301
738279.56461756734643131495,10.2411979532253,-8.8748842839849,336.802474033835
738279.56461765780113637447,10.2535070853806,-8.8748842839849,336.900947091077
738279.56461774813942611217,10.2781253496913,-8.8748842839849,336.950183619699
738279.56461783859413117170,10.2658162175359,-8.88719341614022,336.925565355388
738279.56461792904883623123,10.2781253496913,-8.86257515182958,336.851710562456
738279.56461801950354129076,10.22888882107,-8.88719341614022,336.950183619699
738279.56461810995824635029,10.2658162175359,-8.88719341614022,336.925565355388
738279.56461820041295140982,10.2658162175359,-8.8748842839849,336.876328826767
738279.56461829086765646935,10.2165796889147,-8.88719341614022,336.728619240903
738279.56461838132236152887,10.2658162175359,-8.88719341614022,336.765546637369
738279.56461847177706658840,10.3027436140019,-8.86257515182958,336.81478316599
738279.56461856211535632610,10.2658162175359,-8.8748842839849,336.79016490168
738279.56461865257006138563,10.2658162175359,-8.88719341614022,336.839401430301
738279.56461874302476644516,10.2411979532253,-8.8748842839849,336.81478316599
738279.56461883347947150469,10.2658162175359,-8.8748842839849,336.777855769524
738279.56461892393417656422,10.2411979532253,-8.8748842839849,336.839401430301
738279.56461901438888162374,10.2411979532253,-8.8748842839849,336.81478316599
738279.56461910484358668327,10.2535070853806,-8.86257515182958,336.839401430301
738279.56461919529829174280,10.2535070853806,-8.89950254829554,336.888637958922
738279.56461928575299680233,10.2535070853806,-8.8748842839849,336.962492751854
738279.56461937609128654003,10.2781253496913,-8.8748842839849,336.827092298145
738279.56461946654599159956,10.2658162175359,-8.88719341614022,336.900947091077
738279.56461955700069665909,10.2411979532253,-8.8748842839849,336.950183619699
738279.56461964745540171862,10.2781253496913,-8.8748842839849,336.876328826767
738279.56461973791010677814,10.2781253496913,-8.88719341614022,336.937874487543
738279.56461982836481183767,10.2904344818466,-8.86257515182958,336.962492751854
738279.56461991881951689720,10.3027436140019,-8.85026601967427,336.900947091077
738279.56462000927422195673,10.2658162175359,-8.86257515182958,336.839401430301
738279.56462009961251169443,10.3027436140019,-8.85026601967427,336.888637958922
738279.56462019006721675396,10.2781253496913,-8.83795688751895,336.888637958922
738279.56462028052192181349,10.3273618783125,-8.78872035889767,336.888637958922
738279.56462037097662687302,10.3273618783125,-8.81333862320831,336.839401430301
738279.56462046143133193254,10.2781253496913,-8.82564775536363,336.876328826767
738279.56462055188603699207,10.3150527461572,-8.82564775536363,336.900947091077
738279.56462064234074205160,10.2781253496913,-8.85026601967427,336.839401430301
738279.56462073279544711113,10.2904344818466,-8.83795688751895,336.900947091077
738279.56462082325015217066,10.2658162175359,-8.8748842839849,336.900947091077
738279.56462091358844190836,10.2535070853806,-8.8748842839849,336.900947091077
738279.56462100404314696789,10.2658162175359,-8.89950254829554,336.81478316599
738279.56462109449785202742,10.22888882107,-8.91181168045086,336.925565355388
738279.56462118495255708694,10.22888882107,-8.89950254829554,336.827092298145
738279.56462127540726214647,10.2535070853806,-8.89950254829554,336.851710562456
738279.56462136586196720600,10.2411979532253,-8.91181168045086,336.876328826767
738279.56462145631667226553,10.2042705567593,-8.92412081260618,336.876328826767
738279.56462154677137732506,10.2411979532253,-8.89950254829554,336.876328826767
738279.56462163722608238459,10.2658162175359,-8.89950254829554,336.851710562456
738279.56462172756437212229,10.22888882107,-8.91181168045086,336.864019694611
738279.56462181801907718182,10.2535070853806,-8.91181168045086,336.765546637369
738279.56462190847378224134,10.2658162175359,-8.92412081260618,336.765546637369
738279.56462199892848730087,10.3027436140019,-8.82564775536363,336.888637958922
738279.56462208938319236040,10.4012166712444,-8.54253771579129,337.011729280475
738279.56462217983789741993,10.6227810500402,-8.03786329742322,336.888637958922
738279.56462227029260247946,10.6597084465061,-7.58242540767642,336.99942014832
738279.56462236074730753899,10.4258349355551,-7.90246284371471,336.802474033835
738279.56462245108559727669,10.1796522924487,-8.62870164087853,336.937874487543
738279.56462254154030233622,10.0565609708955,-9.05952126631469,336.925565355388
738279.56462263199500739574,10.2165796889147,-8.8748842839849,336.888637958922
738279.56462272244971245527,10.2658162175359,-8.83795688751895,336.913256223233
738279.56462281290441751480,10.2904344818466,-8.82564775536363,336.950183619699
738279.56462290335912257433,10.2904344818466,-8.83795688751895,336.839401430301
738279.56462299381382763386,10.2904344818466,-8.85026601967427,336.876328826767
738279.56462308426853269339,10.2781253496913,-8.85026601967427,336.925565355388
738279.56462317472323775291,10.2904344818466,-8.83795688751895,336.925565355388
738279.56462326506152749062,10.3027436140019,-8.83795688751895,336.827092298145
738279.56462335551623255014,10.2904344818466,-8.83795688751895,336.913256223233
738279.56462344597093760967,10.3027436140019,-8.82564775536363,336.937874487543
738279.56462353642564266920,10.3150527461572,-8.82564775536363,336.876328826767
738279.56462362688034772873,10.3150527461572,-8.81333862320831,336.925565355388
738279.56462371733505278826,10.3150527461572,-8.81333862320831,336.925565355388
738279.56462380778975784779,10.3150527461572,-8.81333862320831,336.888637958922
738279.56462389824446290731,10.3273618783125,-8.78872035889767,336.876328826767
738279.56462398869916796684,10.3150527461572,-8.77641122674235,336.950183619699
738279.56462407903745770454,10.3273618783125,-8.76410209458703,336.925565355388
738279.56462416949216276407,10.3273618783125,-8.75179296243171,336.839401430301
738279.56462425994686782360,10.3519801426232,-8.72717469812108,336.913256223233
738279.56462435040157288313,10.3765984069338,-8.70255643381044,336.937874487543
738279.56462444085627794266,10.3889075390891,-8.69024730165512,336.913256223233
738279.56462453131098300219,10.4012166712444,-8.66562903734448,336.864019694611
738279.56462462176568806171,10.4012166712444,-8.65331990518916,336.913256223233
738279.56462471222039312124,10.4258349355551,-8.62870164087853,336.913256223233
738279.56462480255868285894,10.4258349355551,-8.60408337656789,336.888637958922
738279.56462489301338791847,10.4381440677104,-8.59177424441257,336.913256223233
738279.56462498346809297800,10.4381440677104,-8.57946511225725,336.937874487543
738279.56462507392279803753,10.4381440677104,-8.57946511225725,336.925565355388
738279.56462516437750309706,10.4504531998657,-8.57946511225725,336.81478316599
738279.56462525483220815659,10.4504531998657,-8.57946511225725,336.913256223233
738279.56462534528691321611,10.4381440677104,-8.59177424441257,336.79016490168
738279.56462543574161827564,10.4258349355551,-8.60408337656789,336.704000976592
738279.56462552619632333517,10.4012166712444,-8.64101077303384,336.802474033835
738279.56462561653461307287,10.3889075390891,-8.66562903734448,336.79016490168
738279.56462570698931813240,10.3519801426232,-8.71486556596576,336.81478316599
738279.56462579744402319193,10.3396710104678,-8.7394838302764,336.802474033835
738279.56462588789872825146,10.3027436140019,-8.77641122674235,336.864019694611
738279.56462597835343331099,10.3150527461572,-8.80102949105299,336.900947091077
738279.56462606880813837051,10.2904344818466,-8.82564775536363,336.913256223233
738279.56462615926284343004,10.2781253496913,-8.83795688751895,336.851710562456
738279.56462624971754848957,10.2658162175359,-8.85026601967427,336.888637958922
738279.56462634017225354910,10.2535070853806,-8.86257515182958,336.864019694611
738279.56462643051054328680,10.2535070853806,-8.86257515182958,336.913256223233
738279.56462652096524834633,10.2411979532253,-8.86257515182958,336.888637958922
738279.56462661141995340586,10.2535070853806,-8.85026601967427,336.851710562456
738279.56462670187465846539,10.2658162175359,-8.85026601967427,336.900947091077
738279.56462679232936352491,10.2535070853806,-8.86257515182958,336.851710562456
738279.56462688278406858444,10.2535070853806,-8.85026601967427,336.913256223233
738279.56462697323877364397,10.2658162175359,-8.85026601967427,336.913256223233
738279.56462706369347870350,10.2535070853806,-8.85026601967427,336.913256223233
738279.56462715403176844120,10.2658162175359,-8.86257515182958,336.925565355388
738279.56462724448647350073,10.2535070853806,-8.85026601967427,336.827092298145
738279.56462733494117856026,10.2781253496913,-8.83795688751895,336.876328826767
738279.56462742539588361979,10.2658162175359,-8.83795688751895,336.827092298145
738279.56462751585058867931,10.2658162175359,-8.83795688751895,336.864019694611
738279.56462760630529373884,10.2658162175359,-8.85026601967427,336.851710562456
738279.56462769675999879837,10.2658162175359,-8.85026601967427,336.839401430301
738279.56462778721470385790,10.2658162175359,-8.86257515182958,336.839401430301
738279.56462787766940891743,10.2658162175359,-8.83795688751895,336.900947091077
738279.56462796800769865513,10.2658162175359,-8.86257515182958,336.888637958922
738279.56462805846240371466,10.2658162175359,-8.85026601967427,336.913256223233
738279.56462814891710877419,10.2535070853806,-8.86257515182958,336.950183619699
738279.56462823937181383371,10.2658162175359,-8.86257515182958,336.937874487543
738279.56462832982651889324,10.2535070853806,-8.86257515182958,336.864019694611
738279.56462842028122395277,10.2535070853806,-8.8748842839849,336.925565355388
738279.56462851073592901230,10.2535070853806,-8.88719341614022,336.937874487543
738279.56462860119063407183,10.2535070853806,-8.8748842839849,336.913256223233
738279.56462869164533913136,10.2535070853806,-8.8748842839849,336.900947091077
738279.56462878198362886906,10.2535070853806,-8.88719341614022,336.962492751854
738279.56462887243833392859,10.2535070853806,-8.88719341614022,336.888637958922
738279.56462896289303898811,10.2535070853806,-8.8748842839849,336.654764447971
738279.56462905334774404764,10.2535070853806,-8.8748842839849,336.864019694611
738279.56462914380244910717,10.2535070853806,-8.8748842839849,336.950183619699
738279.56462923425715416670,10.2411979532253,-8.88719341614022,336.864019694611
738279.56462932471185922623,10.22888882107,-8.89950254829554,336.913256223233
738279.56462941516656428576,10.2535070853806,-8.8748842839849,336.839401430301
738279.56462950550485402346,10.2411979532253,-8.88719341614022,336.81478316599
738279.56462959595955908298,10.2411979532253,-8.89950254829554,336.851710562456
738279.56462968641426414251,10.2411979532253,-8.89950254829554,336.900947091077
738279.56462977686896920204,10.2411979532253,-8.89950254829554,336.925565355388
738279.56462986732367426157,10.2411979532253,-8.89950254829554,336.876328826767
738279.56462995777837932110,10.2535070853806,-8.88719341614022,336.839401430301
738279.56463004823308438063,10.2411979532253,-8.89950254829554,336.888637958922
738279.56463013868778944016,10.2535070853806,-8.89950254829554,336.900947091077
738279.56463022914249449968,10.2535070853806,-8.88719341614022,336.888637958922
738279.56463031948078423738,10.2411979532253,-8.89950254829554,336.900947091077
738279.56463040993548929691,10.2535070853806,-8.89950254829554,336.974801884009
738279.56463050039019435644,10.2535070853806,-8.88719341614022,336.937874487543
738279.56463059084489941597,10.2535070853806,-8.88719341614022,336.937874487543
738279.56463068129960447550,10.2535070853806,-8.88719341614022,336.937874487543
738279.56463077175430953503,10.2535070853806,-8.88719341614022,336.900947091077
738279.56463086220901459455,10.2411979532253,-8.89950254829554,336.876328826767
738279.56463095266371965408,10.2411979532253,-8.88719341614022,336.851710562456
738279.56463104311842471361,10.2535070853806,-8.89950254829554,336.913256223233
738279.56463113345671445131,10.2535070853806,-8.88719341614022,336.900947091077
738279.56463122391141951084,10.2535070853806,-8.89950254829554,336.888637958922
738279.56463131436612457037,10.2535070853806,-8.89950254829554,336.950183619699
738279.56463140482082962990,10.2535070853806,-8.89950254829554,336.925565355388
738279.56463149527553468943,10.2535070853806,-8.89950254829554,336.913256223233
738279.56463158573023974895,10.2535070853806,-8.89950254829554,336.864019694611
738279.56463167618494480848,10.2535070853806,-8.89950254829554,336.950183619699
738279.56463176663964986801,10.2535070853806,-8.88719341614022,336.900947091077
738279.56463185697793960571,10.2535070853806,-8.89950254829554,336.900947091077
738279.56463194743264466524,10.2658162175359,-8.88719341614022,336.851710562456
738279.56463203788734972477,10.2535070853806,-8.88719341614022,336.937874487543
738279.56463212834205478430,10.2658162175359,-8.88719341614022,336.851710562456
738279.56463221879675984383,10.2535070853806,-8.88719341614022,336.81478316599
738279.56463230925146490335,10.2658162175359,-8.89950254829554,336.827092298145
738279.56463239970616996288,10.2535070853806,-8.89950254829554,336.765546637369
738279.56463249016087502241,10.2658162175359,-8.88719341614022,336.704000976592
738279.56463258061558008194,10.2658162175359,-8.88719341614022,336.864019694611
738279.56463267095386981964,10.2781253496913,-8.86257515182958,336.950183619699
738279.56463276140857487917,10.2904344818466,-8.85026601967427,336.925565355388
738279.56463285186327993870,10.2904344818466,-8.8748842839849,336.913256223233
738279.56463294231798499823,10.3027436140019,-8.83795688751895,336.900947091077
738279.56463303277269005775,10.3273618783125,-8.80102949105299,336.937874487543
738279.56463312322739511728,10.3027436140019,-8.83795688751895,336.937874487543
738279.56463321368210017681,10.2904344818466,-8.85026601967427,336.888637958922
738279.56463330413680523634,10.2904344818466,-8.85026601967427,336.962492751854
738279.56463339459151029587,10.2781253496913,-8.85026601967427,336.962492751854
738279.56463348492980003357,10.2658162175359,-8.86257515182958,336.888637958922
738279.56463357538450509310,10.2535070853806,-8.88719341614022,336.962492751854
738279.56463366583921015263,10.2535070853806,-8.92412081260618,336.925565355388
738279.56463375629391521215,10.2411979532253,-8.91181168045086,336.937874487543
738279.56463384674862027168,10.2411979532253,-8.91181168045086,336.851710562456
738279.56463393720332533121,10.2411979532253,-8.92412081260618,336.937874487543
738279.56463402765803039074,10.2411979532253,-8.91181168045086,336.900947091077
738279.56463411811273545027,10.2411979532253,-8.91181168045086,336.925565355388
738279.56463420845102518797,10.2411979532253,-8.91181168045086,336.827092298145
738279.56463429890573024750,10.2411979532253,-8.92412081260618,336.827092298145
738279.56463438936043530703,10.2411979532253,-8.9364299447615,336.876328826767
738279.56463447981514036655,10.2535070853806,-8.89950254829554,336.851710562456
738279.56463457026984542608,10.2535070853806,-8.92412081260618,336.851710562456
738279.56463466072455048561,10.2658162175359,-8.9364299447615,336.913256223233
738279.56463475117925554514,10.3150527461572,-8.77641122674235,336.876328826767
738279.56463484163396060467,10.462762332021,-8.44406465854874,336.950183619699
738279.56463493208866566420,10.6597084465061,-7.89015371155939,336.925565355388
738279.56463502242695540190,10.6350901821955,-7.60704367198706,337.024038412631
738279.56463511288166046143,10.3273618783125,-8.222500279753,336.851710562456
738279.56463520333636552095,10.1181066316721,-8.8748842839849,336.937874487543
738279.56463529379107058048,10.1304157638274,-9.01028473769341,336.950183619699
738279.56463538424577564001,10.2781253496913,-8.85026601967427,336.876328826767
738279.56463547470048069954,10.3027436140019,-8.85026601967427,336.864019694611
738279.56463556515518575907,10.3027436140019,-8.86257515182958,336.876328826767
738279.56463565560989081860,10.3150527461572,-8.86257515182958,336.876328826767
738279.56463574606459587812,10.3150527461572,-8.86257515182958,336.851710562456
738279.56463583640288561583,10.3273618783125,-8.86257515182958,336.925565355388
738279.56463592685759067535,10.3150527461572,-8.86257515182958,336.827092298145
738279.56463601731229573488,10.3273618783125,-8.85026601967427,336.691691844437
738279.56463610776700079441,10.3273618783125,-8.85026601967427,336.802474033835
738279.56463619822170585394,10.3273618783125,-8.83795688751895,336.81478316599
738279.56463628867641091347,10.3273618783125,-8.83795688751895,336.79016490168
738279.56463637913111597300,10.3519801426232,-8.81333862320831,336.827092298145
738279.56463646958582103252,10.3396710104678,-8.81333862320831,336.827092298145
738279.56463655992411077023,10.3519801426232,-8.81333862320831,336.851710562456
738279.56463665037881582975,10.3642892747785,-8.80102949105299,336.913256223233
738279.56463674083352088928,10.3765984069338,-8.77641122674235,336.913256223233
738279.56463683128822594881,10.3889075390891,-8.76410209458703,336.900947091077
738279.56463692174293100834,10.4012166712444,-8.75179296243171,336.839401430301
738279.56463701219763606787,10.4012166712444,-8.71486556596576,336.900947091077
738279.56463710265234112740,10.4135258033998,-8.70255643381044,336.900947091077
738279.56463719310704618692,10.4258349355551,-8.6779381694998,336.81478316599
738279.56463728356175124645,10.4504531998657,-8.65331990518916,336.913256223233
738279.56463737390004098415,10.4750714641764,-8.62870164087853,336.888637958922
738279.56463746435474604368,10.4750714641764,-8.61639250872321,336.925565355388
738279.56463755480945110321,10.4873805963317,-8.60408337656789,336.839401430301
738279.56463764526415616274,10.499689728487,-8.57946511225725,336.925565355388
738279.56463773571886122227,10.5119988606423,-8.56715598010193,336.851710562456
738279.56463782617356628180,10.499689728487,-8.55484684794661,336.81478316599
738279.56463791662827134132,10.5119988606423,-8.55484684794661,336.913256223233
738279.56463800708297640085,10.5119988606423,-8.56715598010193,336.876328826767
738279.56463809753768146038,10.499689728487,-8.57946511225725,336.864019694611
738279.56463818787597119808,10.4873805963317,-8.59177424441257,336.888637958922
738279.56463827833067625761,10.4750714641764,-8.61639250872321,336.925565355388
738279.56463836878538131714,10.4381440677104,-8.65331990518916,336.900947091077
738279.56463845924008637667,10.4258349355551,-8.69024730165512,336.937874487543
738279.56463854969479143620,10.4012166712444,-8.7394838302764,336.851710562456
738279.56463864014949649572,10.3765984069338,-8.78872035889767,336.864019694611
738279.56463873060420155525,10.3642892747785,-8.80102949105299,336.827092298145
738279.56463882105890661478,10.3642892747785,-8.80102949105299,336.79016490168
738279.56463891151361167431,10.3396710104678,-8.83795688751895,336.777855769524
738279.56463900185190141201,10.3396710104678,-8.85026601967427,336.827092298145
738279.56463909230660647154,10.3150527461572,-8.85026601967427,336.81478316599
738279.56463918276131153107,10.3150527461572,-8.85026601967427,336.827092298145
738279.56463927321601659060,10.3273618783125,-8.85026601967427,336.851710562456
738279.56463936367072165012,10.3273618783125,-8.86257515182958,336.876328826767
738279.56463945412542670965,10.3273618783125,-8.85026601967427,336.876328826767
738279.56463954458013176918,10.3273618783125,-8.85026601967427,336.740928373058
738279.56463963503483682871,10.3273618783125,-8.85026601967427,336.851710562456
738279.56463972537312656641,10.3273618783125,-8.85026601967427,336.79016490168
738279.56463981582783162594,10.3150527461572,-8.86257515182958,336.851710562456
738279.56463990628253668547,10.3273618783125,-8.83795688751895,336.827092298145
738279.56463999673724174500,10.3273618783125,-8.83795688751895,336.802474033835
738279.56464008719194680452,10.3273618783125,-8.85026601967427,336.765546637369
738279.56464017764665186405,10.3150527461572,-8.83795688751895,336.839401430301
738279.56464026810135692358,10.3396710104678,-8.82564775536363,336.802474033835
738279.56464035855606198311,10.3150527461572,-8.85026601967427,336.79016490168
738279.56464044901076704264,10.3273618783125,-8.85026601967427,336.827092298145
738279.56464053934905678034,10.3273618783125,-8.85026601967427,336.913256223233
738279.56464062980376183987,10.3273618783125,-8.85026601967427,336.802474033835
738279.56464072025846689939,10.3273618783125,-8.86257515182958,336.888637958922
738279.56464081071317195892,10.3273618783125,-8.86257515182958,336.900947091077
738279.56464090116787701845,10.3273618783125,-8.85026601967427,336.864019694611
738279.56464099162258207798,10.3273618783125,-8.85026601967427,336.888637958922
738279.56464108207728713751,10.3273618783125,-8.86257515182958,336.888637958922
738279.56464117253199219704,10.3273618783125,-8.86257515182958,336.937874487543
738279.56464126298669725657,10.3273618783125,-8.85026601967427,336.802474033835
738279.56464135332498699427,10.3027436140019,-8.8748842839849,336.900947091077
738279.56464144377969205379,10.3150527461572,-8.86257515182958,336.900947091077
738279.56464153423439711332,10.3027436140019,-8.8748842839849,336.925565355388
738279.56464162468910217285,10.3150527461572,-8.86257515182958,336.913256223233
738279.56464171514380723238,10.3150527461572,-8.89950254829554,336.950183619699
738279.56464180559851229191,10.3027436140019,-8.8748842839849,336.913256223233
738279.56464189605321735144,10.3027436140019,-8.8748842839849,336.888637958922
738279.56464198650792241096,10.3027436140019,-8.88719341614022,336.962492751854
738279.56464207684621214867,10.2904344818466,-8.8748842839849,336.925565355388
738279.56464216730091720819,10.3027436140019,-8.88719341614022,336.851710562456
738279.56464225775562226772,10.3027436140019,-8.88719341614022,336.802474033835
738279.56464234821032732725,10.3027436140019,-8.88719341614022,336.827092298145
738279.56464243866503238678,10.2904344818466,-8.88719341614022,336.876328826767
738279.56464252911973744631,10.2904344818466,-8.89950254829554,336.851710562456
738279.56464261957444250584,10.2904344818466,-8.88719341614022,336.876328826767
738279.56464271002914756536,10.3027436140019,-8.8748842839849,336.876328826767
738279.56464280048385262489,10.2904344818466,-8.89950254829554,336.913256223233
738279.56464289082214236259,10.3027436140019,-8.8748842839849,336.864019694611
738279.56464298127684742212,10.2904344818466,-8.88719341614022,336.716310108748
738279.56464307173155248165,10.3027436140019,-8.88719341614022,336.728619240903
738279.56464316218625754118,10.3027436140019,-8.89950254829554,336.864019694611
738279.56464325264096260071,10.2781253496913,-8.89950254829554,336.888637958922
738279.56464334309566766024,10.3027436140019,-8.88719341614022,336.900947091077
738279.56464343355037271976,10.2904344818466,-8.92412081260618,336.913256223233
738279.56464352400507777929,10.2904344818466,-8.88719341614022,336.913256223233
738279.56464361445978283882,10.2904344818466,-8.88719341614022,336.925565355388
738279.56464370479807257652,10.3027436140019,-8.91181168045086,336.827092298145
738279.56464379525277763605,10.2904344818466,-8.91181168045086,336.888637958922
738279.56464388570748269558,10.2904344818466,-8.88719341614022,336.888637958922
738279.56464397616218775511,10.3027436140019,-8.89950254829554,336.913256223233
738279.56464406661689281464,10.3150527461572,-8.8748842839849,336.925565355388
738279.56464415707159787416,10.3150527461572,-8.86257515182958,336.888637958922
738279.56464424752630293369,10.3150527461572,-8.8748842839849,336.864019694611
738279.56464433798100799322,10.3273618783125,-8.85026601967427,336.900947091077
738279.56464442831929773092,10.3519801426232,-8.81333862320831,336.925565355388
738279.56464451877400279045,10.3396710104678,-8.85026601967427,336.937874487543
738279.56464460922870784998,10.3273618783125,-8.86257515182958,336.950183619699
738279.56464469968341290951,10.3027436140019,-8.86257515182958,336.888637958922
738279.56464479013811796904,10.3027436140019,-8.86257515182958,336.962492751854
738279.56464488059282302856,10.3027436140019,-8.8748842839849,337.011729280475
738279.56464497104752808809,10.2781253496913,-8.88719341614022,336.950183619699
738279.56464506150223314762,10.2535070853806,-8.92412081260618,336.962492751854
738279.56464515195693820715,10.2411979532253,-8.92412081260618,336.962492751854
738279.56464524229522794485,10.2535070853806,-8.9364299447615,336.987111016165
738279.56464533274993300438,10.2535070853806,-8.9364299447615,336.987111016165
738279.56464542320463806391,10.2535070853806,-8.92412081260618,336.913256223233
738279.56464551365934312344,10.2658162175359,-8.9364299447615,336.876328826767
738279.56464560411404818296,10.2535070853806,-8.9364299447615,336.876328826767
738279.56464569456875324249,10.2535070853806,-8.9364299447615,336.839401430301
738279.56464578502345830202,10.2535070853806,-8.92412081260618,336.876328826767
738279.56464587547816336155,10.2535070853806,-8.9364299447615,336.913256223233
738279.56464596593286842108,10.2411979532253,-8.96104820907214,336.913256223233
738279.56464605627115815878,10.2411979532253,-8.96104820907214,336.950183619699
738279.56464614672586321831,10.3273618783125,-8.82564775536363,337.048656676941
738279.56464623718056827784,10.462762332021,-8.4809920550147,337.024038412631
738279.56464632763527333736,10.6843267108168,-7.93939024018067,336.913256223233
738279.56464641808997839689,10.7089449751274,-7.55780714336578,336.987111016165
738279.56464650854468345642,10.3642892747785,-8.19788201544237,336.691691844437
738279.56464659899938851595,10.1181066316721,-8.8748842839849,336.79016490168
738279.56464668945409357548,10.1181066316721,-9.03490300200405,336.99942014832
738279.56464677979238331318,10.2042705567593,-8.92412081260618,337.024038412631
738279.56464687024708837271,10.2535070853806,-8.86257515182958,336.99942014832
738279.56464696070179343224,10.2658162175359,-8.86257515182958,336.888637958922
738279.56464705115649849176,10.3273618783125,-8.86257515182958,336.950183619699
738279.56464714161120355129,10.3027436140019,-8.88719341614022,336.851710562456
738279.56464723206590861082,10.2904344818466,-8.88719341614022,336.851710562456
738279.56464732252061367035,10.2904344818466,-8.8748842839849,336.851710562456
738279.56464741297531872988,10.3150527461572,-8.86257515182958,336.925565355388
738279.56464750343002378941,10.3150527461572,-8.85026601967427,336.864019694611
738279.56464759376831352711,10.3273618783125,-8.85026601967427,336.851710562456
738279.56464768422301858664,10.3396710104678,-8.83795688751895,336.851710562456
738279.56464777467772364616,10.3273618783125,-8.83795688751895,336.888637958922
738279.56464786513242870569,10.3273618783125,-8.83795688751895,336.925565355388
738279.56464795558713376522,10.3273618783125,-8.81333862320831,336.864019694611
738279.56464804604183882475,10.3519801426232,-8.80102949105299,336.851710562456
738279.56464813649654388428,10.3519801426232,-8.80102949105299,336.900947091077
738279.56464822695124894381,10.3642892747785,-8.77641122674235,336.913256223233
738279.56464831740595400333,10.3765984069338,-8.75179296243171,336.864019694611
738279.56464840774424374104,10.4012166712444,-8.7394838302764,336.851710562456
738279.56464849819894880056,10.4012166712444,-8.71486556596576,336.925565355388
738279.56464858865365386009,10.4012166712444,-8.69024730165512,336.937874487543
738279.56464867910835891962,10.4258349355551,-8.69024730165512,336.962492751854
738279.56464876956306397915,10.4258349355551,-8.65331990518916,336.827092298145
738279.56464886001776903868,10.462762332021,-8.62870164087853,336.900947091077
738279.56464895047247409821,10.4873805963317,-8.60408337656789,336.900947091077
738279.56464904092717915773,10.4873805963317,-8.59177424441257,336.974801884009
738279.56464913126546889544,10.499689728487,-8.55484684794661,336.864019694611
738279.56464922172017395496,10.499689728487,-8.56715598010193,336.81478316599
738279.56464931217487901449,10.4873805963317,-8.56715598010193,336.827092298145
738279.56464940262958407402,10.499689728487,-8.56715598010193,336.839401430301
738279.56464949308428913355,10.4873805963317,-8.56715598010193,336.802474033835
738279.56464958353899419308,10.4750714641764,-8.61639250872321,336.864019694611
738279.56464967399369925261,10.4258349355551,-8.65331990518916,336.888637958922
738279.56464976444840431213,10.4135258033998,-8.70255643381044,336.900947091077
738279.56464985490310937166,10.4012166712444,-8.7394838302764,336.913256223233
738279.56464994524139910936,10.4012166712444,-8.76410209458703,336.900947091077
738279.56465003569610416889,10.3519801426232,-8.80102949105299,336.740928373058
738279.56465012615080922842,10.3396710104678,-8.83795688751895,336.765546637369
738279.56465021660551428795,10.3150527461572,-8.86257515182958,336.900947091077
738279.56465030706021934748,10.3273618783125,-8.86257515182958,336.925565355388
738279.56465039751492440701,10.3273618783125,-8.86257515182958,336.900947091077
738279.56465048796962946653,10.3273618783125,-8.86257515182958,336.876328826767
738279.56465057842433452606,10.3027436140019,-8.89950254829554,336.925565355388
738279.56465066887903958559,10.3273618783125,-8.86257515182958,336.950183619699
738279.56465075921732932329,10.3150527461572,-8.86257515182958,336.851710562456
738279.56465084967203438282,10.2904344818466,-8.8748842839849,336.888637958922
738279.56465094012673944235,10.3273618783125,-8.8748842839849,336.937874487543
738279.56465103058144450188,10.3396710104678,-8.85026601967427,336.851710562456
738279.56465112103614956141,10.3027436140019,-8.8748842839849,336.900947091077
738279.56465121149085462093,10.3273618783125,-8.86257515182958,336.913256223233
738279.56465130194555968046,10.3273618783125,-8.86257515182958,336.900947091077
738279.56465139240026473999,10.3273618783125,-8.86257515182958,336.888637958922
738279.56465148273855447769,10.3273618783125,-8.86257515182958,336.802474033835
738279.56465157319325953722,10.3396710104678,-8.83795688751895,336.864019694611
738279.56465166364796459675,10.3273618783125,-8.85026601967427,336.900947091077
738279.56465175410266965628,10.3027436140019,-8.86257515182958,336.913256223233
738279.56465184455737471581,10.3396710104678,-8.86257515182958,336.888637958922
738279.56465193501207977533,10.3150527461572,-8.88719341614022,336.827092298145
738279.56465202546678483486,10.3273618783125,-8.86257515182958,336.888637958922
738279.56465211592148989439,10.3150527461572,-8.86257515182958,336.937874487543
738279.56465220637619495392,10.3273618783125,-8.8748842839849,336.827092298145
738279.56465229671448469162,10.3150527461572,-8.88719341614022,336.864019694611
738279.56465238716918975115,10.3396710104678,-8.85026601967427,336.937874487543
738279.56465247762389481068,10.3150527461572,-8.8748842839849,336.925565355388
738279.56465256807859987020,10.3150527461572,-8.88719341614022,336.827092298145
738279.56465265853330492973,10.3027436140019,-8.91181168045086,336.876328826767
738279.56465274898800998926,10.3150527461572,-8.8748842839849,336.888637958922
738279.56465283944271504879,10.3150527461572,-8.88719341614022,336.950183619699
738279.56465292989742010832,10.3027436140019,-8.88719341614022,336.839401430301
738279.56465302035212516785,10.3273618783125,-8.88719341614022,336.913256223233
738279.56465311069041490555,10.3027436140019,-8.89950254829554,336.937874487543
738279.56465320114511996508,10.2904344818466,-8.89950254829554,336.851710562456
738279.56465329159982502460,10.2904344818466,-8.91181168045086,336.900947091077
738279.56465338205453008413,10.3273618783125,-8.86257515182958,336.950183619699
738279.56465347250923514366,10.3150527461572,-8.88719341614022,336.913256223233
738279.56465356296394020319,10.3273618783125,-8.88719341614022,336.716310108748
738279.56465365341864526272,10.2904344818466,-8.91181168045086,336.81478316599
738279.56465374387335032225,10.3273618783125,-8.88719341614022,336.950183619699
738279.56465383421164005995,10.3150527461572,-8.91181168045086,336.839401430301
738279.56465392466634511948,10.3150527461572,-8.89950254829554,336.950183619699
738279.56465401512105017900,10.3396710104678,-8.8748842839849,336.937874487543
738279.56465410557575523853,10.3273618783125,-8.89950254829554,336.950183619699
738279.56465419603046029806,10.3150527461572,-8.92412081260618,336.888637958922
738279.56465428648516535759,10.3396710104678,-8.89950254829554,336.950183619699
738279.56465437693987041712,10.3273618783125,-8.89950254829554,336.950183619699
738279.56465446739457547665,10.3273618783125,-8.89950254829554,336.827092298145
738279.56465455784928053617,10.3150527461572,-8.91181168045086,336.913256223233
738279.56465464818757027388,10.3273618783125,-8.88719341614022,336.913256223233
738279.56465473864227533340,10.3273618783125,-8.89950254829554,336.851710562456
738279.56465482909698039293,10.3150527461572,-8.89950254829554,336.876328826767
738279.56465491955168545246,10.3396710104678,-8.88719341614022,336.827092298145
738279.56465501000639051199,10.3519801426232,-8.86257515182958,336.876328826767
738279.56465510046109557152,10.3642892747785,-8.86257515182958,336.876328826767
738279.56465519091580063105,10.3396710104678,-8.8748842839849,336.851710562456
738279.56465528137050569057,10.3765984069338,-8.82564775536363,336.827092298145
738279.56465537182521075010,10.3889075390891,-8.82564775536363,336.888637958922
738279.56465546216350048780,10.3519801426232,-8.86257515182958,336.827092298145
738279.56465555261820554733,10.3765984069338,-8.82564775536363,336.851710562456
738279.56465564307291060686,10.3273618783125,-8.8748842839849,336.864019694611
738279.56465573352761566639,10.3642892747785,-8.83795688751895,336.864019694611
738279.56465582398232072592,10.3150527461572,-8.88719341614022,336.839401430301
738279.56465591443702578545,10.3027436140019,-8.92412081260618,336.839401430301
738279.56465600489173084497,10.2904344818466,-8.9364299447615,336.900947091077
738279.56465609534643590450,10.2781253496913,-8.94873907691682,336.900947091077
738279.56465618568472564220,10.2904344818466,-8.91181168045086,336.888637958922
738279.56465627613943070173,10.2904344818466,-8.91181168045086,336.888637958922
738279.56465636659413576126,10.3027436140019,-8.92412081260618,336.81478316599
738279.56465645704884082079,10.2904344818466,-8.91181168045086,336.913256223233
738279.56465654750354588032,10.3027436140019,-8.91181168045086,336.876328826767
738279.56465663795825093985,10.2904344818466,-8.91181168045086,336.888637958922
738279.56465672841295599937,10.2658162175359,-8.92412081260618,336.864019694611
738279.56465681886766105890,10.3027436140019,-8.91181168045086,336.864019694611
738279.56465690932236611843,10.2904344818466,-8.94873907691682,336.900947091077
738279.56465699966065585613,10.3396710104678,-8.88719341614022,336.876328826767
738279.56465709011536091566,10.4012166712444,-8.6779381694998,336.900947091077
738279.56465718057006597519,10.6104719178849,-8.27173680837428,336.839401430301
738279.56465727102477103472,10.7458723715934,-7.73013499354025,336.925565355388
738279.56465736147947609425,10.5981627857295,-7.79168065431684,336.913256223233
738279.56465745193418115377,10.2658162175359,-8.53022858363597,336.900947091077
738279.56465754238888621330,10.1181066316721,-9.08413953062532,336.925565355388
738279.56465763284359127283,10.2411979532253,-8.96104820907214,336.925565355388
738279.56465772329829633236,10.3150527461572,-8.85026601967427,336.876328826767
738279.56465781363658607006,10.3519801426232,-8.85026601967427,336.864019694611
738279.56465790409129112959,10.3396710104678,-8.86257515182958,336.802474033835
738279.56465799454599618912,10.3642892747785,-8.8748842839849,336.802474033835
