time_dn,ecg_projection_ll_ra_mV,ecg_projection_la_ra_mV,ecg_projection_vx_rl_mV
738279.50641695025842636824,13.4415723136082,-12.4076052125614,338.464206874803
738279.50641704059671610594,13.4538814457635,-12.4076052125614,338.390352081871
738279.50641713105142116547,13.4661905779188,-12.4076052125614,338.439588610492
738279.50641722150612622499,13.4415723136082,-12.4322234768721,338.464206874803
738279.50641731196083128452,13.4415723136082,-12.4322234768721,338.476516006958
738279.50641740241553634405,13.4415723136082,-12.4199143447167,338.476516006958
738279.50641749287024140358,13.4538814457635,-12.4199143447167,338.378042949716
738279.50641758332494646311,13.4415723136082,-12.4322234768721,338.464206874803
738279.50641767377965152264,13.4415723136082,-12.4199143447167,338.464206874803
738279.50641776423435658216,13.4415723136082,-12.4322234768721,338.427279478337
738279.50641785468906164169,13.4538814457635,-12.4199143447167,338.414970346182
738279.50641794514376670122,13.4538814457635,-12.4199143447167,338.476516006958
738279.50641803559847176075,13.4415723136082,-12.4814600054933,338.488825139114
738279.50641812605317682028,13.4908088422295,-12.3829869482508,338.402661214026
738279.50641821639146655798,13.5646636351614,-12.1491134372997,338.538061667735
738279.50641830684617161751,13.7985371461124,-11.6813664153976,338.451897742648
738279.50641839730087667704,13.897010203355,-11.1643828648742,338.55037079989
738279.50641848775558173656,13.7369914853359,-11.2874741864274,338.390352081871
738279.50641857821028679609,13.4169540492976,-12.0383312479019,338.464206874803
738279.50641866866499185562,13.2815535955891,-12.5306965341146,338.513443403424
738279.50641875911969691515,13.4046449171422,-12.3829869482508,338.525752535579
738279.50641884957440197468,13.4538814457635,-12.3337504196295,338.525752535579
738279.50641894002910703421,13.4908088422295,-12.3460595517848,338.488825139114
738279.50641903048381209373,13.4538814457635,-12.3706778160955,338.390352081871
738279.50641912093851715326,13.4661905779188,-12.3829869482508,338.353424685405
738279.50641921139322221279,13.4784997100742,-12.3583686839401,338.328806421094
738279.50641930173151195049,13.4908088422295,-12.3583686839401,338.464206874803
738279.50641939218621701002,13.4784997100742,-12.3706778160955,338.439588610492
738279.50641948264092206955,13.5031179743848,-12.3460595517848,338.414970346182
738279.50641957309562712908,13.4784997100742,-12.3706778160955,338.427279478337
738279.50641966355033218861,13.5031179743848,-12.3460595517848,338.439588610492
738279.50641975400503724813,13.5031179743848,-12.3337504196295,338.378042949716
738279.50641984445974230766,13.5031179743848,-12.3337504196295,338.181096835231
738279.50641993491444736719,13.5154271065401,-12.3214412874742,338.414970346182
738279.50642002536915242672,13.5277362386954,-12.3091321553189,338.464206874803
738279.50642011582385748625,13.5277362386954,-12.3091321553189,338.427279478337
738279.50642020627856254578,13.5400453708508,-12.2845138910082,338.36573381756
738279.50642029673326760530,13.5523545030061,-12.2722047588529,338.316497288939
738279.50642038718797266483,13.5523545030061,-12.2598956266976,338.316497288939
738279.50642047752626240253,13.5523545030061,-12.2475864945423,338.390352081871
738279.50642056798096746206,13.589281899472,-12.2229682302316,338.353424685405
738279.50642065843567252159,13.6015910316273,-12.1860408337657,338.378042949716
738279.50642074889037758112,13.6139001637827,-12.1737317016104,338.414970346182
738279.50642083934508264065,13.626209295938,-12.1368043051444,338.390352081871
738279.50642092979978770018,13.6508275602486,-12.1121860408338,338.402661214026
738279.50642102025449275970,13.6631366924039,-12.0875677765231,338.378042949716
738279.50642111070919781923,13.6631366924039,-12.0875677765231,338.402661214026
738279.50642120116390287876,13.6631366924039,-12.0752586443678,338.427279478337
738279.50642129161860793829,13.6754458245593,-12.0383312479019,338.328806421094
738279.50642138207331299782,13.7000640888699,-12.0260221157465,338.378042949716
738279.50642147252801805735,13.6754458245593,-12.0383312479019,338.390352081871
738279.50642156286630779505,13.6508275602486,-12.0875677765231,338.402661214026
738279.50642165332101285458,13.6385184280933,-12.1244951729891,338.451897742648
738279.50642174377571791410,13.6139001637827,-12.161422569455,338.451897742648
738279.50642183423042297363,13.5769727673167,-12.2229682302316,338.451897742648
738279.50642192468512803316,13.5523545030061,-12.2722047588529,338.378042949716
738279.50642201513983309269,13.5277362386954,-12.2968230231635,338.439588610492
738279.50642210559453815222,13.5154271065401,-12.3337504196295,338.464206874803
738279.50642219604924321175,13.4908088422295,-12.3706778160955,338.378042949716
738279.50642228650394827127,13.4908088422295,-12.3583686839401,338.451897742648
738279.50642237695865333080,13.4908088422295,-12.3706778160955,338.451897742648
738279.50642246741335839033,13.4784997100742,-12.3829869482508,338.439588610492
738279.50642255786806344986,13.4538814457635,-12.3952960804061,338.414970346182
738279.50642264832276850939,13.4784997100742,-12.3706778160955,338.451897742648
738279.50642273866105824709,13.4661905779188,-12.3952960804061,338.464206874803
738279.50642282911576330662,13.4538814457635,-12.4076052125614,338.378042949716
738279.50642291957046836615,13.4538814457635,-12.3952960804061,338.451897742648
738279.50642301002517342567,13.4661905779188,-12.3952960804061,338.464206874803
738279.50642310047987848520,13.4661905779188,-12.3829869482508,338.451897742648
738279.50642319093458354473,13.4538814457635,-12.3952960804061,338.427279478337
738279.50642328138928860426,13.4661905779188,-12.3829869482508,338.402661214026
738279.50642337184399366379,13.4538814457635,-12.3952960804061,338.304188156784
738279.50642346229869872332,13.4538814457635,-12.3952960804061,338.513443403424
738279.50642355275340378284,13.4661905779188,-12.3829869482508,338.414970346182
738279.50642364320810884237,13.4538814457635,-12.3952960804061,338.353424685405
738279.50642373366281390190,13.4538814457635,-12.3952960804061,338.34111555325
738279.50642382400110363960,13.4538814457635,-12.4076052125614,338.328806421094
738279.50642391445580869913,13.4661905779188,-12.3829869482508,338.390352081871
738279.50642400491051375866,13.4661905779188,-12.3952960804061,338.36573381756
738279.50642409536521881819,13.4538814457635,-12.3952960804061,338.390352081871
738279.50642418581992387772,13.4661905779188,-12.3829869482508,338.378042949716
738279.50642427627462893724,13.4661905779188,-12.3829869482508,338.328806421094
738279.50642436672933399677,13.4538814457635,-12.4076052125614,338.390352081871
738279.50642445718403905630,13.4538814457635,-12.4199143447167,338.353424685405
738279.50642454763874411583,13.4661905779188,-12.4076052125614,338.390352081871
738279.50642463809344917536,13.4538814457635,-12.4076052125614,338.378042949716
738279.50642472854815423489,13.4538814457635,-12.4199143447167,338.353424685405
738279.50642481900285929441,13.4538814457635,-12.4199143447167,338.353424685405
738279.50642490934114903212,13.4661905779188,-12.4076052125614,338.291879024628
738279.50642499979585409164,13.4538814457635,-12.4076052125614,338.353424685405
738279.50642509025055915117,13.4538814457635,-12.4199143447167,338.36573381756
738279.50642518070526421070,13.4415723136082,-12.4199143447167,338.36573381756
738279.50642527115996927023,13.4415723136082,-12.4199143447167,338.414970346182
738279.50642536161467432976,13.4415723136082,-12.4076052125614,338.501134271269
738279.50642545206937938929,13.4415723136082,-12.4199143447167,338.439588610492
738279.50642554252408444881,13.4415723136082,-12.4076052125614,338.378042949716
738279.50642563297878950834,13.4415723136082,-12.4199143447167,338.439588610492
738279.50642572343349456787,13.4415723136082,-12.4199143447167,338.451897742648
738279.50642581388819962740,13.4292631814529,-12.4322234768721,338.353424685405
738279.50642590434290468693,13.4415723136082,-12.4322234768721,338.451897742648
738279.50642599479760974646,13.4415723136082,-12.4199143447167,338.464206874803
738279.50642608513589948416,13.4415723136082,-12.4199143447167,338.439588610492
738279.50642617559060454369,13.4415723136082,-12.4199143447167,338.390352081871
738279.50642626604530960321,13.4169540492976,-12.4445326090274,338.427279478337
738279.50642635650001466274,13.4415723136082,-12.4076052125614,338.501134271269
738279.50642644695471972227,13.4538814457635,-12.4076052125614,338.378042949716
738279.50642653740942478180,13.4415723136082,-12.4199143447167,338.451897742648
738279.50642662786412984133,13.4415723136082,-12.4199143447167,338.464206874803
738279.50642671831883490086,13.4415723136082,-12.4076052125614,338.439588610492
738279.50642680877353996038,13.4415723136082,-12.4199143447167,338.378042949716
738279.50642689922824501991,13.4538814457635,-12.4199143447167,338.267260760318
738279.50642698968295007944,13.4415723136082,-12.4199143447167,338.451897742648
738279.50642708013765513897,13.4415723136082,-12.4199143447167,338.378042949716
738279.50642717047594487667,13.4415723136082,-12.4199143447167,338.451897742648
738279.50642726093064993620,13.4415723136082,-12.4199143447167,338.402661214026
738279.50642735138535499573,13.4538814457635,-12.4199143447167,338.439588610492
738279.50642744184006005526,13.4292631814529,-12.4322234768721,338.427279478337
738279.50642753229476511478,13.4415723136082,-12.4322234768721,338.34111555325
738279.50642762274947017431,13.4415723136082,-12.4199143447167,338.378042949716
738279.50642771320417523384,13.4292631814529,-12.4199143447167,338.316497288939
738279.50642780365888029337,13.4415723136082,-12.4322234768721,338.304188156784
738279.50642789411358535290,13.4538814457635,-12.4076052125614,338.328806421094
738279.50642798456829041243,13.4415723136082,-12.4076052125614,338.378042949716
738279.50642807502299547195,13.4415723136082,-12.4199143447167,338.402661214026
738279.50642816547770053148,13.4538814457635,-12.4199143447167,338.427279478337
738279.50642825593240559101,13.4415723136082,-12.4076052125614,338.34111555325
738279.50642834627069532871,13.4415723136082,-12.4076052125614,338.328806421094
738279.50642843672540038824,13.4415723136082,-12.4199143447167,338.353424685405
738279.50642852718010544777,13.4292631814529,-12.4322234768721,338.390352081871
738279.50642861763481050730,13.4292631814529,-12.4199143447167,338.414970346182
738279.50642870808951556683,13.4538814457635,-12.4199143447167,338.427279478337
738279.50642879854422062635,13.4538814457635,-12.4199143447167,338.464206874803
738279.50642888899892568588,13.4415723136082,-12.4199143447167,338.353424685405
738279.50642897945363074541,13.4415723136082,-12.4322234768721,338.451897742648
738279.50642906990833580494,13.4292631814529,-12.4322234768721,338.464206874803
738279.50642916036304086447,13.4169540492976,-12.4445326090274,338.464206874803
738279.50642925081774592400,13.4538814457635,-12.4076052125614,338.439588610492
738279.50642934127245098352,13.4538814457635,-12.4076052125614,338.390352081871
738279.50642943161074072123,13.4538814457635,-12.4076052125614,338.427279478337
738279.50642952206544578075,13.4292631814529,-12.4199143447167,338.476516006958
738279.50642961252015084028,13.4415723136082,-12.4076052125614,338.390352081871
738279.50642970297485589981,13.4415723136082,-12.4322234768721,338.451897742648
738279.50642979342956095934,13.4415723136082,-12.4199143447167,338.451897742648
738279.50642988388426601887,13.4415723136082,-12.4199143447167,338.427279478337
738279.50642997433897107840,13.4538814457635,-12.3952960804061,338.402661214026
738279.50643006479367613792,13.4538814457635,-12.3952960804061,338.501134271269
738279.50643015524838119745,13.4538814457635,-12.3829869482508,338.476516006958
738279.50643024570308625698,13.4784997100742,-12.3583686839401,338.427279478337
738279.50643033615779131651,13.5031179743848,-12.3337504196295,338.168787703075
738279.50643042661249637604,13.5031179743848,-12.3460595517848,338.254951628162
738279.50643051706720143557,13.4661905779188,-12.3706778160955,338.353424685405
738279.50643060740549117327,13.4538814457635,-12.3706778160955,338.353424685405
738279.50643069786019623280,13.4538814457635,-12.3706778160955,338.353424685405
738279.50643078831490129232,13.4661905779188,-12.3706778160955,338.427279478337
738279.50643087876960635185,13.4415723136082,-12.3952960804061,338.439588610492
738279.50643096922431141138,13.4292631814529,-12.4322234768721,338.414970346182
738279.50643105967901647091,13.4292631814529,-12.4322234768721,338.451897742648
738279.50643115013372153044,13.4169540492976,-12.4445326090274,338.451897742648
738279.50643124058842658997,13.4046449171422,-12.4568417411827,338.378042949716
738279.50643133104313164949,13.4169540492976,-12.4445326090274,338.439588610492
738279.50643142149783670902,13.4169540492976,-12.4445326090274,338.427279478337
738279.50643151195254176855,13.4169540492976,-12.4445326090274,338.451897742648
738279.50643160240724682808,13.4169540492976,-12.4445326090274,338.378042949716
738279.50643169274553656578,13.4169540492976,-12.4445326090274,338.439588610492
738279.50643178320024162531,13.4292631814529,-12.4445326090274,338.476516006958
738279.50643187365494668484,13.4292631814529,-12.4445326090274,338.353424685405
738279.50643196410965174437,13.4415723136082,-12.4445326090274,338.378042949716
738279.50643205456435680389,13.4292631814529,-12.4814600054933,338.34111555325
738279.50643214501906186342,13.4661905779188,-12.3952960804061,338.451897742648
738279.50643223547376692295,13.5400453708508,-12.161422569455,338.464206874803
738279.50643232592847198248,13.7862280139571,-11.6321298867763,338.402661214026
738279.50643241638317704201,13.860082806889,-11.1397646005636,338.55037079989
738279.50643250683788210154,13.6508275602486,-11.4598020366019,338.488825139114
738279.50643259729258716106,13.4908088422295,-11.8290760012614,338.291879024628
738279.50643268774729222059,13.2815535955891,-12.4568417411827,338.328806421094
738279.50643277820199728012,13.355408388521,-12.4568417411827,338.427279478337
738279.50643286854028701782,13.4292631814529,-12.3583686839401,338.427279478337
738279.50643295899499207735,13.4538814457635,-12.3583686839401,338.439588610492
738279.50643304944969713688,13.4538814457635,-12.3829869482508,338.414970346182
738279.50643313990440219641,13.4661905779188,-12.3829869482508,338.414970346182
738279.50643323035910725594,13.4784997100742,-12.3706778160955,338.390352081871
738279.50643332081381231546,13.4661905779188,-12.3829869482508,338.390352081871
738279.50643341126851737499,13.4661905779188,-12.3829869482508,338.451897742648
738279.50643350172322243452,13.4908088422295,-12.3706778160955,338.414970346182
738279.50643359217792749405,13.4784997100742,-12.3706778160955,338.328806421094
738279.50643368263263255358,13.4908088422295,-12.3460595517848,338.378042949716
738279.50643377308733761311,13.4908088422295,-12.3583686839401,338.439588610492
738279.50643386354204267263,13.4908088422295,-12.3583686839401,338.242642496007
738279.50643395388033241034,13.5031179743848,-12.3337504196295,338.254951628162
738279.50643404433503746986,13.5031179743848,-12.3460595517848,338.402661214026
738279.50643413478974252939,13.5400453708508,-12.2968230231635,338.414970346182
738279.50643422524444758892,13.5277362386954,-12.3091321553189,338.378042949716
738279.50643431569915264845,13.5277362386954,-12.2968230231635,338.451897742648
738279.50643440615385770798,13.5523545030061,-12.2598956266976,338.476516006958
738279.50643449660856276751,13.5646636351614,-12.2475864945423,338.464206874803
738279.50643458706326782703,13.5646636351614,-12.235277362387,338.34111555325
738279.50643467751797288656,13.5769727673167,-12.2229682302316,338.414970346182
738279.50643476797267794609,13.589281899472,-12.198349965921,338.414970346182
738279.50643485842738300562,13.6139001637827,-12.161422569455,338.427279478337
738279.50643494888208806515,13.626209295938,-12.1368043051444,338.402661214026
738279.50643503922037780285,13.6385184280933,-12.1121860408338,338.439588610492
738279.50643512967508286238,13.6631366924039,-12.0875677765231,338.427279478337
738279.50643522012978792191,13.6754458245593,-12.0629495122125,338.353424685405
738279.50643531058449298143,13.6631366924039,-12.0629495122125,338.328806421094
738279.50643540103919804096,13.6754458245593,-12.0629495122125,338.328806421094
738279.50643549149390310049,13.6631366924039,-12.0875677765231,338.291879024628
738279.50643558194860816002,13.6508275602486,-12.0875677765231,338.328806421094
738279.50643567240331321955,13.626209295938,-12.1368043051444,338.390352081871
738279.50643576285801827908,13.6015910316273,-12.1860408337657,338.439588610492
738279.50643585331272333860,13.5646636351614,-12.235277362387,338.36573381756
738279.50643594376742839813,13.5277362386954,-12.2845138910082,338.402661214026
738279.50643603422213345766,13.5277362386954,-12.3091321553189,338.451897742648
738279.50643612467683851719,13.5031179743848,-12.3460595517848,338.402661214026
738279.50643621501512825489,13.4908088422295,-12.3583686839401,338.414970346182
738279.50643630546983331442,13.4661905779188,-12.3829869482508,338.451897742648
738279.50643639592453837395,13.4784997100742,-12.3829869482508,338.451897742648
738279.50643648637924343348,13.4661905779188,-12.3829869482508,338.464206874803
738279.50643657683394849300,13.4538814457635,-12.3952960804061,338.353424685405
738279.50643666728865355253,13.4661905779188,-12.3952960804061,338.427279478337
738279.50643675774335861206,13.4538814457635,-12.3952960804061,338.464206874803
738279.50643684819806367159,13.4538814457635,-12.3952960804061,338.451897742648
738279.50643693865276873112,13.4538814457635,-12.4199143447167,338.402661214026
738279.50643702910747379065,13.4538814457635,-12.4076052125614,338.378042949716
738279.50643711956217885017,13.4538814457635,-12.3952960804061,338.36573381756
738279.50643721001688390970,13.4661905779188,-12.3952960804061,338.34111555325
738279.50643730035517364740,13.4538814457635,-12.4076052125614,338.390352081871
738279.50643739080987870693,13.4661905779188,-12.3952960804061,338.218024231697
738279.50643748126458376646,13.4538814457635,-12.3952960804061,338.230333363852
738279.50643757171928882599,13.4661905779188,-12.4199143447167,338.353424685405
738279.50643766217399388552,13.4661905779188,-12.3952960804061,338.439588610492
738279.50643775262869894505,13.4661905779188,-12.3829869482508,338.390352081871
738279.50643784308340400457,13.4661905779188,-12.3952960804061,338.291879024628
738279.50643793353810906410,13.4784997100742,-12.3829869482508,338.328806421094
738279.50643802399281412363,13.4661905779188,-12.3952960804061,338.427279478337
738279.50643811444751918316,13.4784997100742,-12.4076052125614,338.439588610492
738279.50643820490222424269,13.4538814457635,-12.4199143447167,338.488825139114
738279.50643829535692930222,13.4538814457635,-12.4199143447167,338.353424685405
738279.50643838581163436174,13.4538814457635,-12.4076052125614,338.427279478337
738279.50643847614992409945,13.4538814457635,-12.4199143447167,338.427279478337
738279.50643856660462915897,13.4661905779188,-12.4076052125614,338.267260760318
738279.50643865705933421850,13.4661905779188,-12.4076052125614,338.390352081871
738279.50643874751403927803,13.4661905779188,-12.4199143447167,338.414970346182
738279.50643883796874433756,13.4538814457635,-12.4322234768721,338.439588610492
738279.50643892842344939709,13.4538814457635,-12.4199143447167,338.378042949716
738279.50643901887815445662,13.4538814457635,-12.4322234768721,338.402661214026
738279.50643910933285951614,13.4661905779188,-12.4322234768721,338.451897742648
738279.50643919978756457567,13.4538814457635,-12.4322234768721,338.488825139114
738279.50643929024226963520,13.4661905779188,-12.4199143447167,338.390352081871
738279.50643938069697469473,13.4415723136082,-12.4322234768721,338.439588610492
738279.50643947115167975426,13.4538814457635,-12.4445326090274,338.451897742648
738279.50643956148996949196,13.4415723136082,-12.4445326090274,338.476516006958
738279.50643965194467455149,13.4415723136082,-12.4445326090274,338.390352081871
738279.50643974239937961102,13.4661905779188,-12.4322234768721,338.439588610492
738279.50643983285408467054,13.4415723136082,-12.4445326090274,338.464206874803
738279.50643992330878973007,13.4415723136082,-12.4322234768721,338.390352081871
738279.50644001376349478960,13.4415723136082,-12.4322234768721,338.427279478337
738279.50644010421819984913,13.4538814457635,-12.4322234768721,338.34111555325
738279.50644019467290490866,13.4415723136082,-12.4445326090274,338.36573381756
738279.50644028512760996819,13.4415723136082,-12.4445326090274,338.378042949716
738279.50644037558231502771,13.4538814457635,-12.4445326090274,338.378042949716
738279.50644046603702008724,13.4538814457635,-12.4322234768721,338.36573381756
738279.50644055649172514677,13.4415723136082,-12.4445326090274,338.390352081871
738279.50644064694643020630,13.4415723136082,-12.4445326090274,338.304188156784
738279.50644073728471994400,13.4415723136082,-12.4445326090274,338.36573381756
738279.50644082773942500353,13.4415723136082,-12.4322234768721,338.353424685405
738279.50644091819413006306,13.4415723136082,-12.4322234768721,338.242642496007
738279.50644100864883512259,13.4538814457635,-12.4445326090274,338.218024231697
738279.50644109910354018211,13.4415723136082,-12.4445326090274,338.451897742648
738279.50644118955824524164,13.4538814457635,-12.4445326090274,338.451897742648
738279.50644128001295030117,13.4415723136082,-12.4445326090274,338.353424685405
738279.50644137046765536070,13.4292631814529,-12.4445326090274,338.427279478337
738279.50644146092236042023,13.4415723136082,-12.4568417411827,338.402661214026
738279.50644155137706547976,13.4415723136082,-12.4445326090274,338.427279478337
738279.50644164183177053928,13.4415723136082,-12.4445326090274,338.378042949716
738279.50644173228647559881,13.4415723136082,-12.4568417411827,338.427279478337
738279.50644182262476533651,13.4538814457635,-12.4322234768721,338.439588610492
738279.50644191307947039604,13.4415723136082,-12.4445326090274,338.451897742648
738279.50644200353417545557,13.4415723136082,-12.4568417411827,338.36573381756
738279.50644209398888051510,13.4415723136082,-12.4445326090274,338.353424685405
738279.50644218444358557463,13.4415723136082,-12.4322234768721,338.439588610492
738279.50644227489829063416,13.4292631814529,-12.4568417411827,338.476516006958
738279.50644236535299569368,13.4538814457635,-12.4322234768721,338.390352081871
738279.50644245580770075321,13.4292631814529,-12.4568417411827,338.451897742648
738279.50644254626240581274,13.4415723136082,-12.4568417411827,338.439588610492
738279.50644263671711087227,13.4661905779188,-12.4322234768721,338.414970346182
738279.50644272717181593180,13.4415723136082,-12.4568417411827,338.427279478337
738279.50644281762652099133,13.4538814457635,-12.4445326090274,338.439588610492
738279.50644290808122605085,13.4169540492976,-12.4814600054933,338.501134271269
738279.50644299841951578856,13.4415723136082,-12.4445326090274,338.402661214026
738279.50644308887422084808,13.4538814457635,-12.4445326090274,338.464206874803
738279.50644317932892590761,13.4538814457635,-12.4322234768721,338.488825139114
738279.50644326978363096714,13.4538814457635,-12.4199143447167,338.414970346182
738279.50644336023833602667,13.4661905779188,-12.4076052125614,338.464206874803
738279.50644345069304108620,13.4661905779188,-12.4076052125614,338.464206874803
738279.50644354114774614573,13.4784997100742,-12.3706778160955,338.488825139114
738279.50644363160245120525,13.4908088422295,-12.3829869482508,338.378042949716
738279.50644372205715626478,13.5031179743848,-12.3583686839401,338.451897742648
738279.50644381251186132431,13.4784997100742,-12.3829869482508,338.488825139114
738279.50644390296656638384,13.4661905779188,-12.3952960804061,338.476516006958
738279.50644399342127144337,13.4538814457635,-12.4076052125614,338.414970346182
738279.50644408375956118107,13.4661905779188,-12.3952960804061,338.488825139114
738279.50644417421426624060,13.4661905779188,-12.3952960804061,338.476516006958
738279.50644426466897130013,13.4415723136082,-12.4322234768721,338.36573381756
738279.50644435512367635965,13.4415723136082,-12.4445326090274,338.464206874803
738279.50644444557838141918,13.4169540492976,-12.469150873338,338.414970346182
738279.50644453603308647871,13.4292631814529,-12.4568417411827,338.316497288939
738279.50644462648779153824,13.4169540492976,-12.4568417411827,338.402661214026
738279.50644471694249659777,13.4292631814529,-12.4568417411827,338.464206874803
738279.50644480739720165730,13.4292631814529,-12.4568417411827,338.464206874803
738279.50644489785190671682,13.4292631814529,-12.4445326090274,338.402661214026
738279.50644498830661177635,13.4292631814529,-12.4445326090274,338.427279478337
738279.50644507876131683588,13.4415723136082,-12.4568417411827,338.439588610492
738279.50644516909960657358,13.4415723136082,-12.4568417411827,338.328806421094
738279.50644525955431163311,13.4415723136082,-12.469150873338,338.328806421094
738279.50644535000901669264,13.4538814457635,-12.4814600054933,338.291879024628
738279.50644544046372175217,13.4784997100742,-12.4076052125614,338.328806421094
738279.50644553091842681170,13.5277362386954,-12.198349965921,338.427279478337
738279.50644562137313187122,13.7493006174912,-11.7306029440189,338.36573381756
738279.50644571182783693075,13.8477736747337,-11.2136193934955,338.476516006958
738279.50644580228254199028,13.7246823531805,-11.3367107150487,338.451897742648
738279.50644589273724704981,13.5646636351614,-11.7182938118636,338.267260760318
738279.50644598319195210934,13.318480992055,-12.3829869482508,338.390352081871
738279.50644607364665716887,13.3430992563657,-12.506078269804,338.414970346182
738279.50644616410136222839,13.4292631814529,-12.3829869482508,338.427279478337
738279.50644625455606728792,13.4538814457635,-12.3706778160955,338.402661214026
738279.50644634489435702562,13.4661905779188,-12.3706778160955,338.439588610492
738279.50644643534906208515,13.4784997100742,-12.3829869482508,338.414970346182
738279.50644652580376714468,13.4784997100742,-12.4076052125614,338.328806421094
738279.50644661625847220421,13.4784997100742,-12.3829869482508,338.439588610492
738279.50644670671317726374,13.4661905779188,-12.3952960804061,338.36573381756
738279.50644679716788232327,13.4908088422295,-12.3706778160955,338.328806421094
738279.50644688762258738279,13.5031179743848,-12.3583686839401,338.476516006958
738279.50644697807729244232,13.4908088422295,-12.3706778160955,338.402661214026
738279.50644706853199750185,13.5031179743848,-12.3583686839401,338.353424685405
738279.50644715898670256138,13.5031179743848,-12.3337504196295,338.439588610492
738279.50644724944140762091,13.5031179743848,-12.3337504196295,338.451897742648
738279.50644733989611268044,13.5031179743848,-12.3460595517848,338.439588610492
738279.50644743023440241814,13.5277362386954,-12.3214412874742,338.427279478337
738279.50644752068910747766,13.5277362386954,-12.3091321553189,338.439588610492
738279.50644761114381253719,13.5400453708508,-12.2845138910082,338.439588610492
738279.50644770159851759672,13.5523545030061,-12.2722047588529,338.402661214026
738279.50644779205322265625,13.5646636351614,-12.2475864945423,338.414970346182
738279.50644788250792771578,13.5646636351614,-12.2475864945423,338.476516006958
738279.50644797296263277531,13.589281899472,-12.2106590980763,338.378042949716
738279.50644806341733783484,13.6139001637827,-12.1860408337657,338.254951628162
738279.50644815387204289436,13.6139001637827,-12.1737317016104,338.451897742648
738279.50644824432674795389,13.626209295938,-12.1244951729891,338.451897742648
738279.50644833478145301342,13.6385184280933,-12.0875677765231,338.390352081871
738279.50644842523615807295,13.6385184280933,-12.0875677765231,338.427279478337
738279.50644851569086313248,13.6631366924039,-12.0629495122125,338.501134271269
738279.50644860602915287018,13.6754458245593,-12.0383312479019,338.476516006958
738279.50644869648385792971,13.6754458245593,-12.0506403800572,338.476516006958
738279.50644878693856298923,13.6631366924039,-12.0506403800572,338.291879024628
738279.50644887739326804876,13.6508275602486,-12.0752586443678,338.304188156784
738279.50644896784797310829,13.626209295938,-12.1368043051444,338.279569892473
738279.50644905830267816782,13.589281899472,-12.1860408337657,338.353424685405
738279.50644914875738322735,13.589281899472,-12.2106590980763,338.34111555325
738279.50644923921208828688,13.5277362386954,-12.2968230231635,338.328806421094
738279.50644932966679334641,13.5154271065401,-12.3214412874742,338.378042949716
738279.50644942012149840593,13.5031179743848,-12.3460595517848,338.34111555325
738279.50644951057620346546,13.5031179743848,-12.3706778160955,338.34111555325
738279.50644960103090852499,13.4661905779188,-12.3952960804061,338.353424685405
738279.50644969136919826269,13.4661905779188,-12.3952960804061,338.402661214026
738279.50644978182390332222,13.4415723136082,-12.4199143447167,338.464206874803
738279.50644987227860838175,13.4538814457635,-12.4076052125614,338.439588610492
738279.50644996273331344128,13.4538814457635,-12.3952960804061,338.34111555325
738279.50645005318801850080,13.4661905779188,-12.4076052125614,338.36573381756
738279.50645014364272356033,13.4661905779188,-12.4076052125614,338.353424685405
738279.50645023409742861986,13.4415723136082,-12.4199143447167,338.390352081871
738279.50645032455213367939,13.4538814457635,-12.4076052125614,338.402661214026
738279.50645041500683873892,13.4538814457635,-12.3952960804061,338.402661214026
738279.50645050546154379845,13.4661905779188,-12.3952960804061,338.451897742648
738279.50645059591624885798,13.4661905779188,-12.3952960804061,338.36573381756
738279.50645068637095391750,13.4661905779188,-12.3952960804061,338.402661214026
738279.50645077682565897703,13.4538814457635,-12.4199143447167,338.390352081871
738279.50645086716394871473,13.4538814457635,-12.4199143447167,338.378042949716
738279.50645095761865377426,13.4661905779188,-12.3952960804061,338.378042949716
738279.50645104807335883379,13.4784997100742,-12.4076052125614,338.378042949716
738279.50645113852806389332,13.4784997100742,-12.4076052125614,338.476516006958
738279.50645122898276895285,13.4784997100742,-12.3952960804061,338.427279478337
738279.50645131943747401237,13.4661905779188,-12.3952960804061,338.427279478337
738279.50645140989217907190,13.4661905779188,-12.3952960804061,338.464206874803
738279.50645150034688413143,13.4661905779188,-12.3829869482508,338.439588610492
738279.50645159080158919096,13.4661905779188,-12.3952960804061,338.242642496007
738279.50645168125629425049,13.4661905779188,-12.3952960804061,338.414970346182
738279.50645177171099931002,13.4538814457635,-12.4199143447167,338.464206874803
738279.50645186216570436954,13.4661905779188,-12.4199143447167,338.464206874803
738279.50645195250399410725,13.4538814457635,-12.4322234768721,338.414970346182
738279.50645204295869916677,13.4538814457635,-12.4199143447167,338.427279478337
738279.50645213341340422630,13.4538814457635,-12.4199143447167,338.451897742648
738279.50645222386810928583,13.4661905779188,-12.4199143447167,338.439588610492
738279.50645231432281434536,13.4661905779188,-12.4199143447167,338.353424685405
738279.50645240477751940489,13.4661905779188,-12.4322234768721,338.476516006958
738279.50645249523222446442,13.4415723136082,-12.4322234768721,338.439588610492
738279.50645258568692952394,13.4538814457635,-12.4322234768721,338.378042949716
738279.50645267614163458347,13.4538814457635,-12.4445326090274,338.451897742648
738279.50645276659633964300,13.4538814457635,-12.4322234768721,338.451897742648
738279.50645285705104470253,13.4415723136082,-12.4322234768721,338.427279478337
738279.50645294750574976206,13.4661905779188,-12.4322234768721,338.414970346182
738279.50645303796045482159,13.4538814457635,-12.4322234768721,338.353424685405
738279.50645312829874455929,13.4661905779188,-12.4199143447167,338.353424685405
738279.50645321875344961882,13.4661905779188,-12.4199143447167,338.34111555325
738279.50645330920815467834,13.4538814457635,-12.4322234768721,338.353424685405
738279.50645339966285973787,13.4538814457635,-12.4322234768721,338.378042949716
738279.50645349011756479740,13.4415723136082,-12.4322234768721,338.378042949716
738279.50645358057226985693,13.4538814457635,-12.4199143447167,338.353424685405
738279.50645367102697491646,13.4538814457635,-12.4199143447167,338.414970346182
738279.50645376148167997599,13.4415723136082,-12.4199143447167,338.402661214026
738279.50645385193638503551,13.4538814457635,-12.4322234768721,338.402661214026
738279.50645394239109009504,13.4661905779188,-12.4199143447167,338.476516006958
738279.50645403284579515457,13.4538814457635,-12.4322234768721,338.464206874803
738279.50645412330050021410,13.4661905779188,-12.4076052125614,338.316497288939
738279.50645421363878995180,13.4538814457635,-12.4199143447167,338.414970346182
738279.50645430409349501133,13.4538814457635,-12.4322234768721,338.451897742648
738279.50645439454820007086,13.4415723136082,-12.4322234768721,338.439588610492
738279.50645448500290513039,13.4415723136082,-12.4322234768721,338.36573381756
738279.50645457545761018991,13.4538814457635,-12.4322234768721,338.439588610492
738279.50645466591231524944,13.4538814457635,-12.4199143447167,338.378042949716
738279.50645475636702030897,13.4784997100742,-12.3952960804061,338.378042949716
738279.50645484682172536850,13.4415723136082,-12.4322234768721,338.353424685405
738279.50645493727643042803,13.4415723136082,-12.4199143447167,338.378042949716
738279.50645502773113548756,13.4292631814529,-12.4322234768721,338.218024231697
738279.50645511818584054708,13.4538814457635,-12.4076052125614,338.34111555325
738279.50645520864054560661,13.4292631814529,-12.4322234768721,338.378042949716
738279.50645529909525066614,13.4538814457635,-12.4322234768721,338.36573381756
738279.50645538943354040384,13.4538814457635,-12.4199143447167,338.402661214026
738279.50645547988824546337,13.4661905779188,-12.3952960804061,338.414970346182
738279.50645557034295052290,13.4661905779188,-12.3952960804061,338.414970346182
738279.50645566079765558243,13.4784997100742,-12.3829869482508,338.439588610492
738279.50645575125236064196,13.4908088422295,-12.3706778160955,338.476516006958
738279.50645584170706570148,13.4661905779188,-12.3829869482508,338.439588610492
738279.50645593216177076101,13.4908088422295,-12.3583686839401,338.402661214026
738279.50645602261647582054,13.5400453708508,-12.2845138910082,338.501134271269
738279.50645611307118088007,13.5031179743848,-12.3460595517848,338.476516006958
738279.50645620352588593960,13.4908088422295,-12.3460595517848,338.36573381756
738279.50645629398059099913,13.4784997100742,-12.3460595517848,338.451897742648
738279.50645638443529605865,13.4661905779188,-12.3706778160955,338.501134271269
738279.50645647477358579636,13.4661905779188,-12.3706778160955,338.390352081871
738279.50645656522829085588,13.4415723136082,-12.3952960804061,338.427279478337
738279.50645665568299591541,13.4292631814529,-12.4199143447167,338.451897742648
738279.50645674613770097494,13.4538814457635,-12.4076052125614,338.451897742648
738279.50645683659240603447,13.4415723136082,-12.4076052125614,338.378042949716
738279.50645692704711109400,13.4292631814529,-12.4322234768721,338.439588610492
738279.50645701750181615353,13.4292631814529,-12.4199143447167,338.476516006958
738279.50645710795652121305,13.4415723136082,-12.4199143447167,338.353424685405
738279.50645719841122627258,13.4415723136082,-12.4322234768721,338.390352081871
738279.50645728886593133211,13.4538814457635,-12.4076052125614,338.427279478337
738279.50645737932063639164,13.4415723136082,-12.4322234768721,338.353424685405
738279.50645746977534145117,13.4415723136082,-12.4199143447167,338.378042949716
738279.50645756011363118887,13.4415723136082,-12.4076052125614,338.353424685405
738279.50645765056833624840,13.4415723136082,-12.4445326090274,338.378042949716
738279.50645774102304130793,13.4538814457635,-12.4445326090274,338.402661214026
738279.50645783147774636745,13.5031179743848,-12.3091321553189,338.464206874803
738279.50645792193245142698,13.6139001637827,-11.9890947192806,338.488825139114
738279.50645801238715648651,13.860082806889,-11.4105655079806,338.451897742648
738279.50645810284186154604,13.8847010711997,-11.0536006754763,338.476516006958
738279.50645819329656660557,13.5769727673167,-11.6936755475529,338.254951628162
738279.50645828375127166510,13.3430992563657,-12.3337504196295,338.316497288939
738279.50645837420597672462,13.355408388521,-12.4814600054933,338.378042949716
738279.50645846466068178415,13.4415723136082,-12.3583686839401,338.390352081871
738279.50645855511538684368,13.4784997100742,-12.3091321553189,338.205715099541
738279.50645864557009190321,13.5031179743848,-12.3337504196295,338.267260760318
738279.50645873590838164091,13.4908088422295,-12.3706778160955,338.390352081871
738279.50645882636308670044,13.4908088422295,-12.3706778160955,338.316497288939
738279.50645891681779175997,13.4908088422295,-12.3583686839401,338.414970346182
738279.50645900727249681950,13.4908088422295,-12.3583686839401,338.414970346182
738279.50645909772720187902,13.4908088422295,-12.3583686839401,338.34111555325
738279.50645918818190693855,13.4784997100742,-12.3583686839401,338.378042949716
738279.50645927863661199808,13.5277362386954,-12.3091321553189,338.402661214026
738279.50645936909131705761,13.5031179743848,-12.3337504196295,338.378042949716
738279.50645945954602211714,13.5154271065401,-12.3337504196295,338.34111555325
738279.50645955000072717667,13.5154271065401,-12.3091321553189,338.402661214026
738279.50645964045543223619,13.5277362386954,-12.2968230231635,338.378042949716
738279.50645973091013729572,13.5523545030061,-12.2722047588529,338.402661214026
738279.50645982124842703342,13.5277362386954,-12.2968230231635,338.378042949716
738279.50645991170313209295,13.5646636351614,-12.2598956266976,338.427279478337
738279.50646000215783715248,13.5523545030061,-12.2598956266976,338.439588610492
738279.50646009261254221201,13.5523545030061,-12.2598956266976,338.414970346182
738279.50646018306724727154,13.589281899472,-12.198349965921,338.427279478337
738279.50646027352195233107,13.6139001637827,-12.1860408337657,338.476516006958
738279.50646036397665739059,13.6139001637827,-12.1491134372997,338.427279478337
738279.50646045443136245012,13.6139001637827,-12.161422569455,338.390352081871
738279.50646054488606750965,13.6508275602486,-12.0875677765231,338.439588610492
738279.50646063534077256918,13.6631366924039,-12.0752586443678,338.464206874803
738279.50646072579547762871,13.6754458245593,-12.0506403800572,338.36573381756
738279.50646081625018268824,13.6631366924039,-12.0506403800572,338.439588610492
738279.50646090670488774776,13.6877549567146,-12.0260221157465,338.427279478337
738279.50646099704317748547,13.6877549567146,-12.0260221157465,338.427279478337
738279.50646108749788254499,13.6754458245593,-12.0260221157465,338.353424685405
738279.50646117795258760452,13.6631366924039,-12.0506403800572,338.402661214026
738279.50646126840729266405,13.6754458245593,-12.0506403800572,338.439588610492
738279.50646135886199772358,13.626209295938,-12.1368043051444,338.353424685405
738279.50646144931670278311,13.6139001637827,-12.161422569455,338.402661214026
738279.50646153977140784264,13.589281899472,-12.2106590980763,338.304188156784
738279.50646163022611290216,13.5400453708508,-12.2598956266976,338.316497288939
738279.50646172068081796169,13.5031179743848,-12.3214412874742,338.353424685405
738279.50646181113552302122,13.4908088422295,-12.3460595517848,338.390352081871
738279.50646190159022808075,13.5154271065401,-12.3337504196295,338.451897742648
738279.50646199204493314028,13.4784997100742,-12.3583686839401,338.439588610492
738279.50646208238322287798,13.4784997100742,-12.3583686839401,338.205715099541
738279.50646217283792793751,13.4661905779188,-12.3829869482508,338.279569892473
738279.50646226329263299704,13.4784997100742,-12.3706778160955,338.36573381756
738279.50646235374733805656,13.4661905779188,-12.3706778160955,338.414970346182
738279.50646244420204311609,13.4661905779188,-12.3952960804061,338.390352081871
738279.50646253465674817562,13.4661905779188,-12.3829869482508,338.427279478337
738279.50646262511145323515,13.4784997100742,-12.3583686839401,338.427279478337
738279.50646271556615829468,13.4661905779188,-12.3706778160955,338.378042949716
738279.50646280602086335421,13.4784997100742,-12.3706778160955,338.439588610492
738279.50646289647556841373,13.4784997100742,-12.3583686839401,338.378042949716
738279.50646298693027347326,13.4784997100742,-12.3706778160955,338.390352081871
738279.50646307738497853279,13.4784997100742,-12.3706778160955,338.402661214026
738279.50646316783968359232,13.4784997100742,-12.3583686839401,338.402661214026
738279.50646325817797333002,13.4784997100742,-12.3706778160955,338.378042949716
738279.50646334863267838955,13.4661905779188,-12.3829869482508,338.414970346182
738279.50646343908738344908,13.4784997100742,-12.3706778160955,338.353424685405
738279.50646352954208850861,13.4784997100742,-12.3706778160955,338.390352081871
738279.50646361999679356813,13.4784997100742,-12.3706778160955,338.353424685405
738279.50646371045149862766,13.4784997100742,-12.3706778160955,338.402661214026
738279.50646380090620368719,13.4784997100742,-12.3706778160955,338.36573381756
738279.50646389136090874672,13.4538814457635,-12.3829869482508,338.353424685405
738279.50646398181561380625,13.4784997100742,-12.3706778160955,338.353424685405
738279.50646407227031886578,13.4661905779188,-12.3952960804061,338.316497288939
738279.50646416272502392530,13.4538814457635,-12.3952960804061,338.414970346182
738279.50646425317972898483,13.4538814457635,-12.4076052125614,338.414970346182
738279.50646434351801872253,13.4661905779188,-12.3829869482508,338.439588610492
738279.50646443397272378206,13.4538814457635,-12.4199143447167,338.464206874803
738279.50646452442742884159,13.4661905779188,-12.3829869482508,338.476516006958
738279.50646461488213390112,13.4415723136082,-12.4076052125614,338.439588610492
738279.50646470533683896065,13.4661905779188,-12.3952960804061,338.36573381756
738279.50646479579154402018,13.4538814457635,-12.4076052125614,338.439588610492
738279.50646488624624907970,13.4661905779188,-12.4076052125614,338.439588610492
738279.50646497670095413923,13.4661905779188,-12.4076052125614,338.476516006958
738279.50646506715565919876,13.4538814457635,-12.4076052125614,338.451897742648
738279.50646515761036425829,13.4538814457635,-12.4076052125614,338.476516006958
738279.50646524806506931782,13.4538814457635,-12.4076052125614,338.476516006958
738279.50646533851977437735,13.4415723136082,-12.4076052125614,338.36573381756
738279.50646542897447943687,13.4538814457635,-12.4199143447167,338.427279478337
738279.50646551931276917458,13.4538814457635,-12.4199143447167,338.488825139114
738279.50646560976747423410,13.4415723136082,-12.4076052125614,338.291879024628
738279.50646570022217929363,13.4538814457635,-12.4076052125614,338.304188156784
738279.50646579067688435316,13.4415723136082,-12.4199143447167,338.36573381756
738279.50646588113158941269,13.4538814457635,-12.4076052125614,338.414970346182
738279.50646597158629447222,13.4538814457635,-12.4076052125614,338.390352081871
738279.50646606204099953175,13.4538814457635,-12.4199143447167,338.402661214026
738279.50646615249570459127,13.4538814457635,-12.4076052125614,338.451897742648
738279.50646624295040965080,13.4538814457635,-12.3952960804061,338.451897742648
738279.50646633340511471033,13.4538814457635,-12.4199143447167,338.439588610492
738279.50646642385981976986,13.4538814457635,-12.4199143447167,338.353424685405
738279.50646651431452482939,13.4538814457635,-12.4199143447167,338.36573381756
738279.50646660465281456709,13.4538814457635,-12.3952960804061,338.353424685405
738279.50646669510751962662,13.4661905779188,-12.4076052125614,338.378042949716
738279.50646678556222468615,13.4661905779188,-12.3952960804061,338.390352081871
738279.50646687601692974567,13.4661905779188,-12.4076052125614,338.414970346182
738279.50646696647163480520,13.4415723136082,-12.4199143447167,338.439588610492
738279.50646705692633986473,13.4415723136082,-12.4199143447167,338.451897742648
738279.50646714738104492426,13.4784997100742,-12.3952960804061,338.378042949716
738279.50646723783574998379,13.4661905779188,-12.4199143447167,338.378042949716
738279.50646732829045504332,13.4538814457635,-12.4076052125614,338.390352081871
738279.50646741874516010284,13.4538814457635,-12.4322234768721,338.439588610492
738279.50646750919986516237,13.4415723136082,-12.4199143447167,338.439588610492
738279.50646759965457022190,13.4415723136082,-12.4199143447167,338.378042949716
738279.50646768999285995960,13.4538814457635,-12.4076052125614,338.390352081871
738279.50646778044756501913,13.4415723136082,-12.4076052125614,338.402661214026
738279.50646787090227007866,13.4415723136082,-12.4199143447167,338.390352081871
738279.50646796135697513819,13.4415723136082,-12.4199143447167,338.390352081871
738279.50646805181168019772,13.4538814457635,-12.3952960804061,338.390352081871
738279.50646814226638525724,13.4538814457635,-12.4076052125614,338.378042949716
738279.50646823272109031677,13.4538814457635,-12.4199143447167,338.378042949716
738279.50646832317579537630,13.4538814457635,-12.4076052125614,338.378042949716
738279.50646841363050043583,13.4538814457635,-12.3952960804061,338.36573381756
738279.50646850408520549536,13.4661905779188,-12.3829869482508,338.378042949716
738279.50646859453991055489,13.4661905779188,-12.3952960804061,338.378042949716
738279.50646868499461561441,13.4661905779188,-12.3952960804061,338.378042949716
738279.50646877544932067394,13.4908088422295,-12.3706778160955,338.427279478337
738279.50646886578761041164,13.5154271065401,-12.3337504196295,338.402661214026
738279.50646895624231547117,13.5154271065401,-12.3460595517848,338.464206874803
738279.50646904669702053070,13.4908088422295,-12.3583686839401,338.464206874803
738279.50646913715172559023,13.4661905779188,-12.3829869482508,338.390352081871
738279.50646922760643064976,13.4784997100742,-12.3583686839401,338.328806421094
738279.50646931806113570929,13.4538814457635,-12.3952960804061,338.513443403424
738279.50646940851584076881,13.4538814457635,-12.4076052125614,338.476516006958
738279.50646949897054582834,13.4292631814529,-12.4199143447167,338.464206874803
738279.50646958942525088787,13.4538814457635,-12.4076052125614,338.488825139114
738279.50646967987995594740,13.4169540492976,-12.4322234768721,338.439588610492
738279.50646977033466100693,13.4292631814529,-12.4199143447167,338.476516006958
738279.50646986078936606646,13.4292631814529,-12.4322234768721,338.414970346182
738279.50646995112765580416,13.4415723136082,-12.4322234768721,338.439588610492
738279.50647004158236086369,13.4292631814529,-12.4322234768721,338.451897742648
738279.50647013203706592321,13.4292631814529,-12.4568417411827,338.36573381756
738279.50647022249177098274,13.4169540492976,-12.469150873338,338.353424685405
738279.50647031294647604227,13.4292631814529,-12.4322234768721,338.353424685405
738279.50647040340118110180,13.4292631814529,-12.4199143447167,338.36573381756
738279.50647049385588616133,13.4661905779188,-12.4076052125614,338.414970346182
738279.50647058431059122086,13.4661905779188,-12.4322234768721,338.36573381756
738279.50647067476529628038,13.4784997100742,-12.3829869482508,338.353424685405
738279.50647076522000133991,13.5400453708508,-12.161422569455,338.501134271269
738279.50647085567470639944,13.7739188818018,-11.6813664153976,338.451897742648
738279.50647094612941145897,13.860082806889,-11.1643828648742,338.574989064201
738279.50647103658411651850,13.6877549567146,-11.3367107150487,338.402661214026
738279.50647112692240625620,13.4169540492976,-12.0506403800572,338.328806421094
738279.50647121737711131573,13.2692444634337,-12.5306965341146,338.390352081871
738279.50647130783181637526,13.3923357849869,-12.3952960804061,338.439588610492
738279.50647139828652143478,13.4538814457635,-12.3337504196295,338.414970346182
738279.50647148874122649431,13.4784997100742,-12.3460595517848,338.378042949716
738279.50647157919593155384,13.4661905779188,-12.3829869482508,338.34111555325
738279.50647166965063661337,13.4538814457635,-12.3952960804061,338.36573381756
738279.50647176010534167290,13.4784997100742,-12.3952960804061,338.402661214026
738279.50647185056004673243,13.4908088422295,-12.3214412874742,338.390352081871
738279.50647194101475179195,13.4908088422295,-12.3460595517848,338.34111555325
738279.50647203146945685148,13.4908088422295,-12.3337504196295,338.402661214026
738279.50647212192416191101,13.4784997100742,-12.3337504196295,338.36573381756
738279.50647221226245164871,13.5031179743848,-12.3214412874742,338.414970346182
738279.50647230271715670824,13.5154271065401,-12.3091321553189,338.439588610492
738279.50647239317186176777,13.5031179743848,-12.2845138910082,338.390352081871
738279.50647248362656682730,13.5031179743848,-12.2968230231635,338.390352081871
738279.50647257408127188683,13.5031179743848,-12.3214412874742,338.36573381756
738279.50647266453597694635,13.5154271065401,-12.2968230231635,338.36573381756
738279.50647275499068200588,13.5154271065401,-12.2845138910082,338.279569892473
738279.50647284544538706541,13.5400453708508,-12.2598956266976,338.414970346182
738279.50647293590009212494,13.5523545030061,-12.235277362387,338.464206874803
738279.50647302635479718447,13.5646636351614,-12.2229682302316,338.451897742648
738279.50647311680950224400,13.5523545030061,-12.2229682302316,338.476516006958
738279.50647320726420730352,13.5769727673167,-12.198349965921,338.427279478337
738279.50647329771891236305,13.6139001637827,-12.1491134372997,338.451897742648
738279.50647338805720210075,13.6139001637827,-12.1244951729891,338.451897742648
738279.50647347851190716028,13.6139001637827,-12.1244951729891,338.378042949716
738279.50647356896661221981,13.6385184280933,-12.0875677765231,338.427279478337
738279.50647365942131727934,13.6631366924039,-12.0506403800572,338.439588610492
738279.50647374987602233887,13.6754458245593,-12.0506403800572,338.439588610492
738279.50647384033072739840,13.6631366924039,-12.0506403800572,338.402661214026
738279.50647393078543245792,13.6508275602486,-12.0383312479019,338.414970346182
738279.50647402124013751745,13.6631366924039,-12.0506403800572,338.451897742648
738279.50647411169484257698,13.626209295938,-12.0998769086784,338.427279478337
738279.50647420214954763651,13.6015910316273,-12.1491134372997,338.378042949716
738279.50647429260425269604,13.5769727673167,-12.198349965921,338.328806421094
738279.50647438305895775557,13.5646636351614,-12.2106590980763,338.328806421094
738279.50647447339724749327,13.5400453708508,-12.2475864945423,338.304188156784
738279.50647456385195255280,13.5031179743848,-12.3091321553189,338.291879024628
738279.50647465430665761232,13.4908088422295,-12.3214412874742,338.291879024628
738279.50647474476136267185,13.4538814457635,-12.3706778160955,338.316497288939
738279.50647483521606773138,13.4784997100742,-12.3337504196295,338.316497288939
738279.50647492567077279091,13.4661905779188,-12.3460595517848,338.34111555325
738279.50647501612547785044,13.4538814457635,-12.3952960804061,338.316497288939
738279.50647510658018290997,13.4538814457635,-12.3829869482508,338.378042949716
738279.50647519703488796949,13.4415723136082,-12.3952960804061,338.402661214026
738279.50647528748959302902,13.4415723136082,-12.3829869482508,338.427279478337
738279.50647537794429808855,13.4538814457635,-12.3829869482508,338.464206874803
738279.50647546839900314808,13.4415723136082,-12.3952960804061,338.451897742648
738279.50647555885370820761,13.4415723136082,-12.3829869482508,338.36573381756
738279.50647564919199794531,13.4538814457635,-12.3952960804061,338.414970346182
738279.50647573964670300484,13.4661905779188,-12.3583686839401,338.402661214026
738279.50647583010140806437,13.4538814457635,-12.3706778160955,338.439588610492
738279.50647592055611312389,13.4538814457635,-12.3952960804061,338.402661214026
738279.50647601101081818342,13.4661905779188,-12.3829869482508,338.378042949716
738279.50647610146552324295,13.4538814457635,-12.3829869482508,338.402661214026
738279.50647619192022830248,13.4538814457635,-12.3706778160955,338.218024231697
738279.50647628237493336201,13.4538814457635,-12.3952960804061,338.254951628162
738279.50647637282963842154,13.4661905779188,-12.3829869482508,338.36573381756
738279.50647646328434348106,13.4661905779188,-12.3829869482508,338.414970346182
738279.50647655373904854059,13.4538814457635,-12.3829869482508,338.36573381756
738279.50647664419375360012,13.4415723136082,-12.3952960804061,338.439588610492
738279.50647673453204333782,13.4661905779188,-12.3706778160955,338.414970346182
738279.50647682498674839735,13.4415723136082,-12.4076052125614,338.427279478337
738279.50647691544145345688,13.4538814457635,-12.3706778160955,338.378042949716
738279.50647700589615851641,13.4415723136082,-12.3952960804061,338.427279478337
738279.50647709635086357594,13.4415723136082,-12.4076052125614,338.451897742648
738279.50647718680556863546,13.4415723136082,-12.4076052125614,338.378042949716
738279.50647727726027369499,13.4538814457635,-12.4076052125614,338.439588610492
738279.50647736771497875452,13.4415723136082,-12.3952960804061,338.439588610492
738279.50647745816968381405,13.4415723136082,-12.4199143447167,338.402661214026
738279.50647754862438887358,13.4292631814529,-12.4322234768721,338.414970346182
738279.50647763907909393311,13.4415723136082,-12.4076052125614,338.439588610492
738279.50647772953379899263,13.4292631814529,-12.4322234768721,338.439588610492
738279.50647781987208873034,13.4292631814529,-12.4322234768721,338.414970346182
738279.50647791032679378986,13.4292631814529,-12.4322234768721,338.451897742648
738279.50647800078149884939,13.4415723136082,-12.4076052125614,338.476516006958
738279.50647809123620390892,13.4538814457635,-12.4076052125614,338.390352081871
738279.50647818169090896845,13.4415723136082,-12.4199143447167,338.439588610492
738279.50647827214561402798,13.4415723136082,-12.4076052125614,338.427279478337
738279.50647836260031908751,13.4292631814529,-12.4445326090274,338.304188156784
738279.50647845305502414703,13.4292631814529,-12.4445326090274,338.316497288939
738279.50647854350972920656,13.4415723136082,-12.3952960804061,338.36573381756
738279.50647863396443426609,13.4292631814529,-12.4199143447167,338.402661214026
738279.50647872441913932562,13.4169540492976,-12.4322234768721,338.451897742648
738279.50647881487384438515,13.4292631814529,-12.4322234768721,338.414970346182
738279.50647890532854944468,13.4538814457635,-12.4076052125614,338.291879024628
738279.50647899566683918238,13.4169540492976,-12.4322234768721,338.353424685405
738279.50647908612154424191,13.4415723136082,-12.4199143447167,338.328806421094
738279.50647917657624930143,13.4415723136082,-12.4199143447167,338.390352081871
738279.50647926703095436096,13.4292631814529,-12.4199143447167,338.390352081871
738279.50647935748565942049,13.4046449171422,-12.4445326090274,338.34111555325
738279.50647944794036448002,13.4415723136082,-12.4199143447167,338.34111555325
738279.50647953839506953955,13.4415723136082,-12.4199143447167,338.34111555325
738279.50647962884977459908,13.4415723136082,-12.4076052125614,338.36573381756
738279.50647971930447965860,13.4292631814529,-12.4199143447167,338.168787703075
738279.50647980975918471813,13.4292631814529,-12.4322234768721,338.291879024628
738279.50647990021388977766,13.4169540492976,-12.4322234768721,338.328806421094
738279.50647999066859483719,13.4415723136082,-12.4076052125614,338.439588610492
738279.50648008100688457489,13.4415723136082,-12.4076052125614,338.439588610492
738279.50648017146158963442,13.4046449171422,-12.4568417411827,338.439588610492
738279.50648026191629469395,13.4292631814529,-12.4322234768721,338.353424685405
738279.50648035237099975348,13.4169540492976,-12.4322234768721,338.378042949716
738279.50648044282570481300,13.4415723136082,-12.4199143447167,338.390352081871
738279.50648053328040987253,13.4292631814529,-12.4076052125614,338.378042949716
738279.50648062373511493206,13.4169540492976,-12.4322234768721,338.414970346182
738279.50648071418981999159,13.4292631814529,-12.4322234768721,338.378042949716
738279.50648080464452505112,13.4292631814529,-12.4199143447167,338.390352081871
738279.50648089509923011065,13.4169540492976,-12.4445326090274,338.464206874803
738279.50648098555393517017,13.3923357849869,-12.4568417411827,338.439588610492
738279.50648107600864022970,13.4292631814529,-12.4322234768721,338.439588610492
738279.50648116646334528923,13.4415723136082,-12.4199143447167,338.414970346182
738279.50648125680163502693,13.4292631814529,-12.4199143447167,338.414970346182
738279.50648134725634008646,13.4415723136082,-12.4199143447167,338.451897742648
738279.50648143771104514599,13.4046449171422,-12.4445326090274,338.427279478337
738279.50648152816575020552,13.4169540492976,-12.4199143447167,338.402661214026
738279.50648161862045526505,13.4169540492976,-12.4322234768721,338.464206874803
738279.50648170907516032457,13.4169540492976,-12.4322234768721,338.439588610492
738279.50648179952986538410,13.4169540492976,-12.4199143447167,338.464206874803
738279.50648188998457044363,13.4292631814529,-12.4076052125614,338.439588610492
738279.50648198043927550316,13.4169540492976,-12.4199143447167,338.451897742648
738279.50648207089398056269,13.4538814457635,-12.3829869482508,338.501134271269
738279.50648216134868562222,13.4538814457635,-12.3706778160955,338.439588610492
738279.50648225180339068174,13.4538814457635,-12.3706778160955,338.427279478337
738279.50648234214168041945,13.4661905779188,-12.3583686839401,338.476516006958
738279.50648243259638547897,13.4908088422295,-12.3337504196295,338.488825139114
738279.50648252305109053850,13.4661905779188,-12.3706778160955,338.378042949716
738279.50648261350579559803,13.4538814457635,-12.3829869482508,338.501134271269
738279.50648270396050065756,13.4292631814529,-12.3829869482508,338.353424685405
738279.50648279441520571709,13.4415723136082,-12.3583686839401,338.390352081871
738279.50648288486991077662,13.4415723136082,-12.3706778160955,338.34111555325
738279.50648297532461583614,13.4169540492976,-12.4076052125614,338.316497288939
738279.50648306577932089567,13.4046449171422,-12.4199143447167,338.353424685405
738279.50648315623402595520,13.4046449171422,-12.4199143447167,338.328806421094
738279.50648324668873101473,13.3923357849869,-12.4322234768721,338.181096835231
738279.50648333714343607426,13.4046449171422,-12.4322234768721,338.279569892473
738279.50648342759814113379,13.3923357849869,-12.4445326090274,338.390352081871
738279.50648351793643087149,13.3923357849869,-12.4445326090274,338.451897742648
738279.50648360839113593102,13.4046449171422,-12.4322234768721,338.427279478337
738279.50648369884584099054,13.4046449171422,-12.4322234768721,338.316497288939
738279.50648378930054605007,13.4046449171422,-12.4445326090274,338.402661214026
738279.50648387975525110960,13.4046449171422,-12.4568417411827,338.414970346182
738279.50648397020995616913,13.4169540492976,-12.4322234768721,338.328806421094
738279.50648406066466122866,13.4169540492976,-12.4322234768721,338.378042949716
738279.50648415111936628819,13.4538814457635,-12.4322234768721,338.378042949716
738279.50648424157407134771,13.4538814457635,-12.3214412874742,338.451897742648
738279.50648433202877640724,13.5646636351614,-12.0260221157465,338.439588610492
738279.50648442248348146677,13.8231554104231,-11.4721111687572,338.414970346182
738279.50648451293818652630,13.8231554104231,-11.078218939787,338.488825139114
738279.50648460327647626400,13.5646636351614,-11.5828933581551,338.353424685405
738279.50648469373118132353,13.3061718598997,-12.2722047588529,338.464206874803
738279.50648478418588638306,13.2815535955891,-12.4937691376487,338.414970346182
738279.50648487464059144258,13.3923357849869,-12.3583686839401,338.476516006958
738279.50648496509529650211,13.4292631814529,-12.3337504196295,338.451897742648
738279.50648505555000156164,13.4538814457635,-12.3460595517848,338.402661214026
738279.50648514600470662117,13.4538814457635,-12.3706778160955,338.316497288939
738279.50648523645941168070,13.4538814457635,-12.3583686839401,338.304188156784
738279.50648532691411674023,13.4538814457635,-12.3583686839401,338.390352081871
738279.50648541736882179976,13.4661905779188,-12.3583686839401,338.414970346182
738279.50648550782352685928,13.4415723136082,-12.3829869482508,338.427279478337
738279.50648559827823191881,13.4661905779188,-12.3460595517848,338.390352081871
738279.50648568873293697834,13.4661905779188,-12.3337504196295,338.427279478337
738279.50648577907122671604,13.4661905779188,-12.3460595517848,338.464206874803
738279.50648586952593177557,13.4908088422295,-12.3214412874742,338.414970346182
738279.50648595998063683510,13.4784997100742,-12.3091321553189,338.414970346182
738279.50648605043534189463,13.4908088422295,-12.2968230231635,338.414970346182
738279.50648614089004695415,13.4908088422295,-12.2968230231635,338.451897742648
738279.50648623134475201368,13.4908088422295,-12.2968230231635,338.402661214026
738279.50648632179945707321,13.5031179743848,-12.2845138910082,338.451897742648
738279.50648641225416213274,13.5277362386954,-12.2475864945423,338.439588610492
738279.50648650270886719227,13.5031179743848,-12.2598956266976,338.390352081871
738279.50648659316357225180,13.5400453708508,-12.2229682302316,338.476516006958
738279.50648668361827731133,13.5646636351614,-12.1860408337657,338.451897742648
738279.50648677407298237085,13.5523545030061,-12.1860408337657,338.316497288939
738279.50648686441127210855,13.6015910316273,-12.1244951729891,338.291879024628
738279.50648695486597716808,13.6015910316273,-12.1244951729891,338.476516006958
738279.50648704532068222761,13.6139001637827,-12.0998769086784,338.439588610492
738279.50648713577538728714,13.626209295938,-12.0629495122125,338.353424685405
738279.50648722623009234667,13.6385184280933,-12.0383312479019,338.353424685405
738279.50648731668479740620,13.6385184280933,-12.0260221157465,338.36573381756
738279.50648740713950246572,13.6508275602486,-12.0137129835912,338.316497288939
738279.50648749759420752525,13.626209295938,-12.0383312479019,338.414970346182
738279.50648758804891258478,13.6139001637827,-12.0629495122125,338.476516006958
738279.50648767850361764431,13.6139001637827,-12.0752586443678,338.439588610492
738279.50648776895832270384,13.6015910316273,-12.0998769086784,338.34111555325
738279.50648785941302776337,13.5646636351614,-12.1737317016104,338.328806421094
738279.50648794975131750107,13.5277362386954,-12.2229682302316,338.328806421094
738279.50648804020602256060,13.5031179743848,-12.2845138910082,338.328806421094
738279.50648813066072762012,13.5031179743848,-12.2968230231635,338.328806421094
738279.50648822111543267965,13.4661905779188,-12.3460595517848,338.353424685405
738279.50648831157013773918,13.4415723136082,-12.3706778160955,338.427279478337
738279.50648840202484279871,13.4415723136082,-12.3706778160955,338.476516006958
738279.50648849247954785824,13.4415723136082,-12.3706778160955,338.402661214026
738279.50648858293425291777,13.4292631814529,-12.4076052125614,338.451897742648
738279.50648867338895797729,13.4415723136082,-12.3706778160955,338.488825139114
738279.50648876384366303682,13.4415723136082,-12.3829869482508,338.378042949716
738279.50648885429836809635,13.4415723136082,-12.3829869482508,338.427279478337
738279.50648894475307315588,13.4292631814529,-12.4076052125614,338.242642496007
738279.50648903520777821541,13.4292631814529,-12.3952960804061,338.390352081871
738279.50648912554606795311,13.4292631814529,-12.3829869482508,338.378042949716
738279.50648921600077301264,13.4292631814529,-12.3952960804061,338.464206874803
738279.50648930645547807217,13.4415723136082,-12.3829869482508,338.36573381756
738279.50648939691018313169,13.4292631814529,-12.3952960804061,338.439588610492
738279.50648948736488819122,13.4538814457635,-12.3706778160955,338.427279478337
738279.50648957781959325075,13.4415723136082,-12.3829869482508,338.427279478337
738279.50648966827429831028,13.4538814457635,-12.3706778160955,338.439588610492
738279.50648975872900336981,13.4415723136082,-12.3583686839401,338.439588610492
738279.50648984918370842934,13.4415723136082,-12.3706778160955,338.451897742648
738279.50648993963841348886,13.4415723136082,-12.3829869482508,338.414970346182
738279.50649003009311854839,13.4538814457635,-12.3583686839401,338.464206874803
738279.50649012054782360792,13.4292631814529,-12.3952960804061,338.439588610492
738279.50649021088611334562,13.4538814457635,-12.3706778160955,338.36573381756
738279.50649030134081840515,13.4292631814529,-12.3829869482508,338.390352081871
738279.50649039179552346468,13.4415723136082,-12.3829869482508,338.304188156784
738279.50649048225022852421,13.4415723136082,-12.3952960804061,338.427279478337
738279.50649057270493358374,13.4415723136082,-12.3952960804061,338.439588610492
738279.50649066315963864326,13.4292631814529,-12.4076052125614,338.451897742648
738279.50649075361434370279,13.4292631814529,-12.3952960804061,338.439588610492
738279.50649084406904876232,13.4415723136082,-12.4076052125614,338.414970346182
738279.50649093452375382185,13.4292631814529,-12.4076052125614,338.427279478337
738279.50649102497845888138,13.4169540492976,-12.4199143447167,338.439588610492
738279.50649111543316394091,13.4292631814529,-12.4076052125614,338.402661214026
738279.50649120588786900043,13.4415723136082,-12.4076052125614,338.451897742648
738279.50649129634257405996,13.4292631814529,-12.3952960804061,338.488825139114
738279.50649138668086379766,13.4292631814529,-12.4076052125614,338.353424685405
738279.50649147713556885719,13.4169540492976,-12.4322234768721,338.390352081871
738279.50649156759027391672,13.4292631814529,-12.4076052125614,338.242642496007
738279.50649165804497897625,13.4292631814529,-12.4076052125614,338.36573381756
738279.50649174849968403578,13.4292631814529,-12.4076052125614,338.390352081871
738279.50649183895438909531,13.4169540492976,-12.4076052125614,338.353424685405
738279.50649192940909415483,13.4169540492976,-12.4199143447167,338.414970346182
738279.50649201986379921436,13.4292631814529,-12.4076052125614,338.414970346182
738279.50649211031850427389,13.4169540492976,-12.4322234768721,338.36573381756
738279.50649220077320933342,13.4415723136082,-12.4076052125614,338.427279478337
738279.50649229122791439295,13.4169540492976,-12.4199143447167,338.451897742648
738279.50649238168261945248,13.4292631814529,-12.4076052125614,338.464206874803
738279.50649247202090919018,13.4292631814529,-12.4076052125614,338.34111555325
738279.50649256247561424971,13.4292631814529,-12.4076052125614,338.390352081871
738279.50649265293031930923,13.4292631814529,-12.4199143447167,338.353424685405
738279.50649274338502436876,13.4292631814529,-12.4199143447167,338.36573381756
738279.50649283383972942829,13.4169540492976,-12.4199143447167,338.378042949716
738279.50649292429443448782,13.4046449171422,-12.4322234768721,338.353424685405
738279.50649301474913954735,13.4415723136082,-12.3952960804061,338.378042949716
738279.50649310520384460688,13.4169540492976,-12.4199143447167,338.36573381756
738279.50649319565854966640,13.4292631814529,-12.4199143447167,338.36573381756
738279.50649328611325472593,13.4169540492976,-12.4199143447167,338.353424685405
738279.50649337656795978546,13.4415723136082,-12.3952960804061,338.36573381756
738279.50649346702266484499,13.4415723136082,-12.4076052125614,338.414970346182
738279.50649355747736990452,13.4292631814529,-12.4199143447167,338.378042949716
738279.50649364781565964222,13.4292631814529,-12.4322234768721,338.439588610492
738279.50649373827036470175,13.4292631814529,-12.4199143447167,338.36573381756
738279.50649382872506976128,13.4169540492976,-12.4199143447167,338.36573381756
738279.50649391917977482080,13.4169540492976,-12.4199143447167,338.279569892473
738279.50649400963447988033,13.4169540492976,-12.4076052125614,338.464206874803
738279.50649410008918493986,13.4169540492976,-12.4076052125614,338.451897742648
738279.50649419054388999939,13.4292631814529,-12.4199143447167,338.464206874803
738279.50649428099859505892,13.4169540492976,-12.4199143447167,338.476516006958
738279.50649437145330011845,13.4292631814529,-12.4199143447167,338.451897742648
738279.50649446190800517797,13.4169540492976,-12.3952960804061,338.390352081871
738279.50649455236271023750,13.4292631814529,-12.3952960804061,338.488825139114
738279.50649464281741529703,13.4415723136082,-12.3952960804061,338.464206874803
738279.50649473315570503473,13.4538814457635,-12.3829869482508,338.439588610492
738279.50649482361041009426,13.4661905779188,-12.3583686839401,338.476516006958
738279.50649491406511515379,13.4784997100742,-12.3337504196295,338.476516006958
738279.50649500451982021332,13.5031179743848,-12.3337504196295,338.488825139114
738279.50649509497452527285,13.4661905779188,-12.3460595517848,338.427279478337
738279.50649518542923033237,13.4538814457635,-12.3706778160955,338.451897742648
738279.50649527588393539190,13.4661905779188,-12.3583686839401,338.464206874803
738279.50649536633864045143,13.4415723136082,-12.3583686839401,338.451897742648
738279.50649545679334551096,13.4415723136082,-12.3706778160955,338.464206874803
738279.50649554724805057049,13.4415723136082,-12.3829869482508,338.488825139114
738279.50649563770275563002,13.4046449171422,-12.4076052125614,338.464206874803
738279.50649572815746068954,13.3923357849869,-12.4322234768721,338.414970346182
738279.50649581861216574907,13.4046449171422,-12.4199143447167,338.464206874803
738279.50649590895045548677,13.4169540492976,-12.4322234768721,338.451897742648
738279.50649599940516054630,13.4046449171422,-12.4322234768721,338.451897742648
738279.50649608985986560583,13.4169540492976,-12.4322234768721,338.439588610492
738279.50649618031457066536,13.4046449171422,-12.4322234768721,338.488825139114
738279.50649627076927572489,13.4169540492976,-12.4445326090274,338.513443403424
738279.50649636122398078442,13.4046449171422,-12.4445326090274,338.390352081871
738279.50649645167868584394,13.4292631814529,-12.4076052125614,338.279569892473
738279.50649654213339090347,13.4292631814529,-12.4199143447167,338.353424685405
738279.50649663258809596300,13.4292631814529,-12.4322234768721,338.390352081871
738279.50649672304280102253,13.4169540492976,-12.4568417411827,338.378042949716
738279.50649681349750608206,13.4538814457635,-12.3460595517848,338.451897742648
738279.50649690395221114159,13.6015910316273,-11.9890947192806,338.513443403424
738279.50649699429050087929,13.8354645425784,-11.4598020366019,338.501134271269
738279.50649708474520593882,13.8354645425784,-11.078218939787,338.476516006958
738279.50649717519991099834,13.5769727673167,-11.5828933581551,338.402661214026
738279.50649726565461605787,13.4292631814529,-11.9398581906593,338.390352081871
738279.50649735610932111740,13.2446261991231,-12.506078269804,338.414970346182
738279.50649744656402617693,13.3677175206763,-12.4076052125614,338.328806421094
738279.50649753701873123646,13.4292631814529,-12.3460595517848,338.464206874803
738279.50649762747343629599,13.4292631814529,-12.3460595517848,338.439588610492
738279.50649771792814135551,13.4538814457635,-12.3583686839401,338.427279478337
738279.50649780838284641504,13.4538814457635,-12.3706778160955,338.427279478337
738279.50649789883755147457,13.4661905779188,-12.3583686839401,338.390352081871
738279.50649798929225653410,13.4538814457635,-12.3706778160955,338.427279478337
738279.50649807963054627180,13.4661905779188,-12.3583686839401,338.402661214026
738279.50649817008525133133,13.4661905779188,-12.3460595517848,338.390352081871
738279.50649826053995639086,13.4661905779188,-12.3706778160955,338.378042949716
738279.50649835099466145039,13.4908088422295,-12.3214412874742,338.353424685405
738279.50649844144936650991,13.4784997100742,-12.3214412874742,338.328806421094
738279.50649853190407156944,13.4784997100742,-12.3460595517848,338.353424685405
738279.50649862235877662897,13.4908088422295,-12.3214412874742,338.451897742648
738279.50649871281348168850,13.5031179743848,-12.2968230231635,338.451897742648
738279.50649880326818674803,13.5031179743848,-12.2845138910082,338.427279478337
738279.50649889372289180756,13.5031179743848,-12.2968230231635,338.427279478337
738279.50649898417759686708,13.5154271065401,-12.2598956266976,338.439588610492
738279.50649907463230192661,13.5400453708508,-12.235277362387,338.402661214026
738279.50649916508700698614,13.5400453708508,-12.2229682302316,338.451897742648
738279.50649925542529672384,13.5277362386954,-12.2229682302316,338.451897742648
738279.50649934588000178337,13.5769727673167,-12.1737317016104,338.439588610492
738279.50649943633470684290,13.589281899472,-12.1491134372997,338.464206874803
738279.50649952678941190243,13.6015910316273,-12.1244951729891,338.414970346182
738279.50649961724411696196,13.626209295938,-12.0998769086784,338.439588610492
738279.50649970769882202148,13.6385184280933,-12.0752586443678,338.414970346182
738279.50649979815352708101,13.6385184280933,-12.0506403800572,338.414970346182
738279.50649988860823214054,13.6631366924039,-12.0383312479019,338.316497288939
738279.50649997906293720007,13.6631366924039,-12.0383312479019,338.316497288939
738279.50650006951764225960,13.6508275602486,-12.0383312479019,338.316497288939
738279.50650015997234731913,13.6508275602486,-12.0260221157465,338.378042949716
738279.50650025042705237865,13.6139001637827,-12.0875677765231,338.328806421094
738279.50650034076534211636,13.589281899472,-12.1491134372997,338.36573381756
738279.50650043122004717588,13.5769727673167,-12.1737317016104,338.36573381756
738279.50650052167475223541,13.5523545030061,-12.235277362387,338.402661214026
738279.50650061212945729494,13.5154271065401,-12.2722047588529,338.414970346182
738279.50650070258416235447,13.4784997100742,-12.3214412874742,338.414970346182
738279.50650079303886741400,13.4661905779188,-12.3337504196295,338.464206874803
738279.50650088349357247353,13.4538814457635,-12.3460595517848,338.15647857092
738279.50650097394827753305,13.4415723136082,-12.3706778160955,338.230333363852
738279.50650106440298259258,13.4415723136082,-12.3829869482508,338.402661214026
738279.50650115485768765211,13.4292631814529,-12.3829869482508,338.414970346182
738279.50650124531239271164,13.4292631814529,-12.3952960804061,338.439588610492
738279.50650133576709777117,13.4538814457635,-12.3829869482508,338.439588610492
738279.50650142622180283070,13.4292631814529,-12.3829869482508,338.353424685405
738279.50650151656009256840,13.4415723136082,-12.3952960804061,338.34111555325
738279.50650160701479762793,13.4415723136082,-12.3706778160955,338.402661214026
738279.50650169746950268745,13.4292631814529,-12.3829869482508,338.414970346182
738279.50650178792420774698,13.4415723136082,-12.3829869482508,338.414970346182
738279.50650187837891280651,13.4415723136082,-12.3952960804061,338.402661214026
738279.50650196883361786604,13.4415723136082,-12.3829869482508,338.414970346182
738279.50650205928832292557,13.4415723136082,-12.3952960804061,338.36573381756
738279.50650214974302798510,13.4415723136082,-12.3706778160955,338.402661214026
738279.50650224019773304462,13.4415723136082,-12.3706778160955,338.378042949716
738279.50650233065243810415,13.4415723136082,-12.3706778160955,338.353424685405
738279.50650242110714316368,13.4292631814529,-12.3829869482508,338.34111555325
738279.50650251156184822321,13.4415723136082,-12.3829869482508,338.34111555325
738279.50650260190013796091,13.4538814457635,-12.3829869482508,338.328806421094
738279.50650269235484302044,13.4415723136082,-12.3829869482508,338.328806421094
738279.50650278280954807997,13.4415723136082,-12.3706778160955,338.390352081871
738279.50650287326425313950,13.4415723136082,-12.3829869482508,338.414970346182
738279.50650296371895819902,13.4415723136082,-12.3952960804061,338.427279478337
738279.50650305417366325855,13.4538814457635,-12.3829869482508,338.390352081871
738279.50650314462836831808,13.4415723136082,-12.3952960804061,338.488825139114
738279.50650323508307337761,13.4292631814529,-12.3952960804061,338.439588610492
738279.50650332553777843714,13.4169540492976,-12.3952960804061,338.439588610492
738279.50650341599248349667,13.4292631814529,-12.4076052125614,338.427279478337
738279.50650350644718855619,13.4415723136082,-12.3829869482508,338.488825139114
738279.50650359690189361572,13.4292631814529,-12.4076052125614,338.464206874803
738279.50650368735659867525,13.4169540492976,-12.4199143447167,338.427279478337
738279.50650377769488841295,13.4292631814529,-12.4076052125614,338.439588610492
738279.50650386814959347248,13.4169540492976,-12.4199143447167,338.464206874803
738279.50650395860429853201,13.4292631814529,-12.4076052125614,338.488825139114
738279.50650404905900359154,13.4292631814529,-12.4199143447167,338.402661214026
738279.50650413951370865107,13.4169540492976,-12.4199143447167,338.464206874803
738279.50650422996841371059,13.4169540492976,-12.4076052125614,338.464206874803
738279.50650432042311877012,13.4169540492976,-12.4076052125614,338.378042949716
738279.50650441087782382965,13.4292631814529,-12.3952960804061,338.242642496007
738279.50650450133252888918,13.4169540492976,-12.4199143447167,338.242642496007
738279.50650459178723394871,13.4169540492976,-12.4076052125614,338.34111555325
738279.50650468224193900824,13.4169540492976,-12.4199143447167,338.328806421094
738279.50650477269664406776,13.4169540492976,-12.4199143447167,338.402661214026
738279.50650486303493380547,13.4169540492976,-12.4199143447167,338.439588610492
738279.50650495348963886499,13.4046449171422,-12.4199143447167,338.390352081871
738279.50650504394434392452,13.4169540492976,-12.4199143447167,338.353424685405
738279.50650513439904898405,13.4046449171422,-12.4199143447167,338.378042949716
738279.50650522485375404358,13.4169540492976,-12.3952960804061,338.427279478337
738279.50650531530845910311,13.4169540492976,-12.4076052125614,338.488825139114
738279.50650540576316416264,13.4292631814529,-12.4076052125614,338.390352081871
738279.50650549621786922216,13.4169540492976,-12.4199143447167,338.414970346182
738279.50650558667257428169,13.4046449171422,-12.4322234768721,338.414970346182
738279.50650567712727934122,13.4169540492976,-12.4322234768721,338.390352081871
738279.50650576758198440075,13.4538814457635,-12.3952960804061,338.414970346182
738279.50650585803668946028,13.4292631814529,-12.4322234768721,338.36573381756
738279.50650594849139451981,13.4292631814529,-12.4199143447167,338.390352081871
738279.50650603882968425751,13.4292631814529,-12.4076052125614,338.353424685405
738279.50650612928438931704,13.4415723136082,-12.3952960804061,338.390352081871
738279.50650621973909437656,13.3923357849869,-12.4445326090274,338.36573381756
738279.50650631019379943609,13.4046449171422,-12.4445326090274,338.414970346182
738279.50650640064850449562,13.4169540492976,-12.4076052125614,338.378042949716
738279.50650649110320955515,13.4169540492976,-12.4322234768721,338.378042949716
738279.50650658155791461468,13.4046449171422,-12.4199143447167,338.378042949716
738279.50650667201261967421,13.4169540492976,-12.4199143447167,338.402661214026
738279.50650676246732473373,13.4046449171422,-12.4322234768721,338.476516006958
738279.50650685292202979326,13.3923357849869,-12.4445326090274,338.476516006958
738279.50650694337673485279,13.3923357849869,-12.4199143447167,338.36573381756
738279.50650703383143991232,13.4292631814529,-12.4076052125614,338.451897742648
738279.50650712416972965002,13.4292631814529,-12.4199143447167,338.464206874803
738279.50650721462443470955,13.4169540492976,-12.4076052125614,338.451897742648
738279.50650730507913976908,13.4169540492976,-12.4199143447167,338.427279478337
738279.50650739553384482861,13.4169540492976,-12.4076052125614,338.464206874803
738279.50650748598854988813,13.4169540492976,-12.4076052125614,338.464206874803
738279.50650757644325494766,13.4169540492976,-12.4076052125614,338.378042949716
738279.50650766689796000719,13.4292631814529,-12.4076052125614,338.488825139114
738279.50650775735266506672,13.4169540492976,-12.4322234768721,338.464206874803
738279.50650784780737012625,13.4046449171422,-12.4322234768721,338.427279478337
738279.50650793826207518578,13.4292631814529,-12.4076052125614,338.316497288939
738279.50650802871678024530,13.4538814457635,-12.3706778160955,338.36573381756
738279.50650811917148530483,13.4538814457635,-12.3829869482508,338.464206874803
738279.50650820950977504253,13.4661905779188,-12.3706778160955,338.378042949716
738279.50650829996448010206,13.4784997100742,-12.3583686839401,338.488825139114
738279.50650839041918516159,13.4661905779188,-12.3583686839401,338.451897742648
738279.50650848087389022112,13.4784997100742,-12.3583686839401,338.34111555325
738279.50650857132859528065,13.4784997100742,-12.3460595517848,338.316497288939
738279.50650866178330034018,13.4661905779188,-12.3460595517848,338.414970346182
738279.50650875223800539970,13.4415723136082,-12.3829869482508,338.378042949716
738279.50650884269271045923,13.4415723136082,-12.3706778160955,338.402661214026
738279.50650893314741551876,13.4415723136082,-12.3583686839401,338.414970346182
738279.50650902360212057829,13.4292631814529,-12.3952960804061,338.488825139114
738279.50650911405682563782,13.4046449171422,-12.4199143447167,338.439588610492
738279.50650920451153069735,13.4046449171422,-12.4076052125614,338.427279478337
738279.50650929496623575687,13.3923357849869,-12.4445326090274,338.451897742648
738279.50650938530452549458,13.3923357849869,-12.4568417411827,338.36573381756
738279.50650947575923055410,13.4046449171422,-12.4445326090274,338.390352081871
738279.50650956621393561363,13.4169540492976,-12.4199143447167,338.414970346182
738279.50650965666864067316,13.4169540492976,-12.4199143447167,338.439588610492
738279.50650974712334573269,13.4169540492976,-12.4322234768721,338.476516006958
738279.50650983757805079222,13.4169540492976,-12.4445326090274,338.390352081871
738279.50650992803275585175,13.4169540492976,-12.4322234768721,338.402661214026
738279.50651001848746091127,13.4046449171422,-12.4445326090274,338.439588610492
738279.50651010894216597080,13.4046449171422,-12.469150873338,338.476516006958
738279.50651019939687103033,13.4415723136082,-12.4199143447167,338.414970346182
738279.50651028985157608986,13.4784997100742,-12.3091321553189,338.464206874803
738279.50651038030628114939,13.6139001637827,-11.9767855871253,338.439588610492
738279.50651047064457088709,13.860082806889,-11.4105655079806,338.414970346182
738279.50651056109927594662,13.860082806889,-11.1890011291849,338.488825139114
738279.50651065155398100615,13.7123732210252,-11.2628559221168,338.353424685405
738279.50651074200868606567,13.4046449171422,-12.0014038514359,338.353424685405
738279.50651083246339112520,13.2446261991231,-12.5183874019593,338.402661214026
738279.50651092291809618473,13.3677175206763,-12.3952960804061,338.451897742648
738279.50651101337280124426,13.4169540492976,-12.3583686839401,338.525752535579
738279.50651110382750630379,13.4661905779188,-12.3337504196295,338.464206874803
738279.50651119428221136332,13.4661905779188,-12.3460595517848,338.427279478337
738279.50651128473691642284,13.4538814457635,-12.3706778160955,338.464206874803
738279.50651137519162148237,13.4538814457635,-12.3829869482508,338.488825139114
738279.50651146564632654190,13.4661905779188,-12.3460595517848,338.304188156784
738279.50651155610103160143,13.4908088422295,-12.3460595517848,338.316497288939
738279.50651164643932133913,13.4784997100742,-12.3583686839401,338.464206874803
738279.50651173689402639866,13.4784997100742,-12.3583686839401,338.427279478337
738279.50651182734873145819,13.4908088422295,-12.3337504196295,338.439588610492
738279.50651191780343651772,13.4784997100742,-12.3460595517848,338.488825139114
738279.50651200825814157724,13.5031179743848,-12.3337504196295,338.464206874803
738279.50651209871284663677,13.5031179743848,-12.3214412874742,338.36573381756
738279.50651218916755169630,13.5154271065401,-12.2968230231635,338.464206874803
738279.50651227962225675583,13.5154271065401,-12.2845138910082,338.439588610492
738279.50651237007696181536,13.5277362386954,-12.2845138910082,338.427279478337
738279.50651246053166687489,13.5400453708508,-12.2722047588529,338.402661214026
738279.50651255098637193441,13.5400453708508,-12.2598956266976,338.451897742648
738279.50651264144107699394,13.5523545030061,-12.235277362387,338.353424685405
738279.50651273177936673164,13.5523545030061,-12.235277362387,338.353424685405
738279.50651282223407179117,13.5769727673167,-12.198349965921,338.328806421094
738279.50651291268877685070,13.6015910316273,-12.1737317016104,338.353424685405
738279.50651300314348191023,13.626209295938,-12.1368043051444,338.402661214026
738279.50651309359818696976,13.626209295938,-12.1244951729891,338.390352081871
738279.50651318405289202929,13.6385184280933,-12.0875677765231,338.378042949716
738279.50651327450759708881,13.6385184280933,-12.0875677765231,338.427279478337
738279.50651336496230214834,13.6385184280933,-12.0752586443678,338.439588610492
738279.50651345541700720787,13.6631366924039,-12.0506403800572,338.451897742648
738279.50651354587171226740,13.6508275602486,-12.0506403800572,338.316497288939
738279.50651363632641732693,13.626209295938,-12.0875677765231,338.402661214026
738279.50651372678112238646,13.6385184280933,-12.0752586443678,338.36573381756
738279.50651381723582744598,13.589281899472,-12.1491134372997,338.378042949716
738279.50651390757411718369,13.589281899472,-12.1737317016104,338.36573381756
738279.50651399802882224321,13.5400453708508,-12.235277362387,338.439588610492
738279.50651408848352730274,13.5277362386954,-12.2598956266976,338.36573381756
738279.50651417893823236227,13.4661905779188,-12.3337504196295,338.402661214026
738279.50651426939293742180,13.4784997100742,-12.3337504196295,338.427279478337
738279.50651435984764248133,13.4538814457635,-12.3583686839401,338.414970346182
738279.50651445030234754086,13.4415723136082,-12.3952960804061,338.414970346182
738279.50651454075705260038,13.4661905779188,-12.3706778160955,338.390352081871
738279.50651463121175765991,13.4538814457635,-12.3829869482508,338.427279478337
738279.50651472166646271944,13.4661905779188,-12.3706778160955,338.439588610492
738279.50651481212116777897,13.4415723136082,-12.3952960804061,338.414970346182
738279.50651490257587283850,13.4415723136082,-12.3829869482508,338.427279478337
738279.50651499291416257620,13.4169540492976,-12.4076052125614,338.353424685405
738279.50651508336886763573,13.4661905779188,-12.3583686839401,338.291879024628
738279.50651517382357269526,13.4415723136082,-12.3829869482508,338.427279478337
738279.50651526427827775478,13.4415723136082,-12.3829869482508,338.451897742648
738279.50651535473298281431,13.4538814457635,-12.3829869482508,338.464206874803
738279.50651544518768787384,13.4415723136082,-12.3829869482508,338.414970346182
738279.50651553564239293337,13.4415723136082,-12.4076052125614,338.451897742648
738279.50651562609709799290,13.4538814457635,-12.3829869482508,338.501134271269
738279.50651571655180305243,13.4661905779188,-12.3706778160955,338.451897742648
738279.50651580700650811195,13.4661905779188,-12.3706778160955,338.402661214026
738279.50651589746121317148,13.4538814457635,-12.3952960804061,338.427279478337
738279.50651598791591823101,13.4538814457635,-12.3829869482508,338.464206874803
738279.50651607837062329054,13.4661905779188,-12.3706778160955,338.36573381756
738279.50651616870891302824,13.4415723136082,-12.3829869482508,338.427279478337
738279.50651625916361808777,13.4538814457635,-12.3829869482508,338.476516006958
738279.50651634961832314730,13.4415723136082,-12.3952960804061,338.476516006958
738279.50651644007302820683,13.4784997100742,-12.3583686839401,338.378042949716
738279.50651653052773326635,13.4415723136082,-12.3952960804061,338.427279478337
738279.50651662098243832588,13.4415723136082,-12.3952960804061,338.439588610492
738279.50651671143714338541,13.4415723136082,-12.3952960804061,338.34111555325
738279.50651680189184844494,13.4415723136082,-12.3952960804061,338.427279478337
738279.50651689234655350447,13.4538814457635,-12.3952960804061,338.414970346182
738279.50651698280125856400,13.4415723136082,-12.4076052125614,338.378042949716
738279.50651707325596362352,13.4415723136082,-12.3952960804061,338.328806421094
738279.50651716371066868305,13.4415723136082,-12.4076052125614,338.36573381756
738279.50651725404895842075,13.4292631814529,-12.4076052125614,338.390352081871
738279.50651734450366348028,13.4538814457635,-12.3829869482508,338.353424685405
738279.50651743495836853981,13.4415723136082,-12.4076052125614,338.402661214026
738279.50651752541307359934,13.4415723136082,-12.3952960804061,338.390352081871
738279.50651761586777865887,13.4415723136082,-12.3952960804061,338.451897742648
738279.50651770632248371840,13.4292631814529,-12.4199143447167,338.34111555325
738279.50651779677718877792,13.4169540492976,-12.4199143447167,338.414970346182
738279.50651788723189383745,13.4169540492976,-12.4322234768721,338.451897742648
738279.50651797768659889698,13.4292631814529,-12.4076052125614,338.488825139114
738279.50651806814130395651,13.4415723136082,-12.4199143447167,338.402661214026
738279.50651815859600901604,13.4292631814529,-12.4322234768721,338.439588610492
738279.50651824905071407557,13.4292631814529,-12.4076052125614,338.427279478337
738279.50651833950541913509,13.4292631814529,-12.4076052125614,338.34111555325
738279.50651842984370887280,13.4292631814529,-12.4076052125614,338.414970346182
738279.50651852029841393232,13.4046449171422,-12.4322234768721,338.328806421094
738279.50651861075311899185,13.4292631814529,-12.4199143447167,338.267260760318
738279.50651870120782405138,13.4415723136082,-12.4076052125614,338.402661214026
738279.50651879166252911091,13.4046449171422,-12.4445326090274,338.414970346182
738279.50651888211723417044,13.4415723136082,-12.4076052125614,338.390352081871
738279.50651897257193922997,13.4415723136082,-12.4076052125614,338.439588610492
738279.50651906302664428949,13.4415723136082,-12.4199143447167,338.439588610492
738279.50651915348134934902,13.4292631814529,-12.4199143447167,338.353424685405
738279.50651924393605440855,13.4292631814529,-12.4076052125614,338.378042949716
738279.50651933439075946808,13.4292631814529,-12.4199143447167,338.414970346182
738279.50651942484546452761,13.4169540492976,-12.4445326090274,338.451897742648
738279.50651951518375426531,13.4292631814529,-12.4199143447167,338.414970346182
738279.50651960563845932484,13.4292631814529,-12.4076052125614,338.439588610492
738279.50651969609316438437,13.4046449171422,-12.4322234768721,338.476516006958
738279.50651978654786944389,13.4415723136082,-12.4076052125614,338.464206874803
738279.50651987700257450342,13.4292631814529,-12.4322234768721,338.414970346182
738279.50651996745727956295,13.4169540492976,-12.4076052125614,338.476516006958
738279.50652005791198462248,13.4292631814529,-12.4076052125614,338.501134271269
738279.50652014836668968201,13.4169540492976,-12.4322234768721,338.427279478337
738279.50652023882139474154,13.4292631814529,-12.4322234768721,338.328806421094
738279.50652032927609980106,13.4538814457635,-12.3829869482508,338.353424685405
738279.50652041973080486059,13.4169540492976,-12.4322234768721,338.353424685405
738279.50652051018550992012,13.4292631814529,-12.4076052125614,338.304188156784
738279.50652060052379965782,13.4292631814529,-12.4199143447167,338.34111555325
738279.50652069097850471735,13.4415723136082,-12.4199143447167,338.427279478337
738279.50652078143320977688,13.4292631814529,-12.4322234768721,338.36573381756
738279.50652087188791483641,13.4169540492976,-12.4199143447167,338.427279478337
738279.50652096234261989594,13.4292631814529,-12.4199143447167,338.451897742648
738279.50652105279732495546,13.4292631814529,-12.4076052125614,338.464206874803
738279.50652114325203001499,13.4538814457635,-12.4076052125614,338.390352081871
738279.50652123370673507452,13.4292631814529,-12.4199143447167,338.36573381756
738279.50652132416144013405,13.4292631814529,-12.4199143447167,338.279569892473
738279.50652141461614519358,13.4292631814529,-12.4076052125614,338.378042949716
738279.50652150507085025311,13.4292631814529,-12.4076052125614,338.353424685405
738279.50652159552555531263,13.4292631814529,-12.4199143447167,338.390352081871
738279.50652168598026037216,13.4415723136082,-12.4199143447167,338.390352081871
738279.50652177631855010986,13.4169540492976,-12.4322234768721,338.402661214026
738279.50652186677325516939,13.4169540492976,-12.4322234768721,338.451897742648
738279.50652195722796022892,13.4046449171422,-12.4199143447167,338.414970346182
738279.50652204768266528845,13.4415723136082,-12.3952960804061,338.36573381756
738279.50652213813737034798,13.4415723136082,-12.3952960804061,338.205715099541
738279.50652222859207540751,13.4538814457635,-12.3829869482508,338.402661214026
738279.50652231904678046703,13.4538814457635,-12.3706778160955,338.402661214026
738279.50652240950148552656,13.4661905779188,-12.3706778160955,338.390352081871
738279.50652249995619058609,13.4784997100742,-12.3460595517848,338.390352081871
738279.50652259041089564562,13.4908088422295,-12.3214412874742,338.378042949716
738279.50652268086560070515,13.4908088422295,-12.3337504196295,338.439588610492
738279.50652277132030576468,13.4538814457635,-12.3829869482508,338.439588610492
738279.50652286165859550238,13.4538814457635,-12.3706778160955,338.36573381756
738279.50652295211330056190,13.4538814457635,-12.3583686839401,338.451897742648
738279.50652304256800562143,13.4292631814529,-12.3706778160955,338.378042949716
738279.50652313302271068096,13.4292631814529,-12.3829869482508,338.414970346182
738279.50652322347741574049,13.4046449171422,-12.4199143447167,338.390352081871
738279.50652331393212080002,13.4169540492976,-12.4322234768721,338.390352081871
738279.50652340438682585955,13.4169540492976,-12.4199143447167,338.414970346182
738279.50652349484153091908,13.4046449171422,-12.4322234768721,338.402661214026
738279.50652358529623597860,13.4292631814529,-12.4199143447167,338.439588610492
738279.50652367575094103813,13.4169540492976,-12.4199143447167,338.427279478337
738279.50652376620564609766,13.4415723136082,-12.4199143447167,338.439588610492
738279.50652385666035115719,13.4415723136082,-12.4076052125614,338.328806421094
738279.50652394711505621672,13.4292631814529,-12.4322234768721,338.353424685405
738279.50652403745334595442,13.4169540492976,-12.4199143447167,338.36573381756
738279.50652412790805101395,13.4415723136082,-12.3952960804061,338.36573381756
738279.50652421836275607347,13.4169540492976,-12.4445326090274,338.34111555325
738279.50652430881746113300,13.4292631814529,-12.4445326090274,338.427279478337
738279.50652439927216619253,13.4784997100742,-12.2968230231635,338.501134271269
738279.50652448972687125206,13.6139001637827,-11.9767855871253,338.501134271269
738279.50652458018157631159,13.8354645425784,-11.4228746401359,338.464206874803
738279.50652467063628137112,13.8354645425784,-11.1151463362529,338.501134271269
738279.50652476109098643064,13.5400453708508,-11.6813664153976,338.414970346182
738279.50652485154569149017,13.3061718598997,-12.3214412874742,338.353424685405
738279.50652494200039654970,13.2938627277444,-12.4937691376487,338.488825139114
738279.50652503245510160923,13.4415723136082,-12.3337504196295,338.488825139114
738279.50652512279339134693,13.4661905779188,-12.3214412874742,338.414970346182
738279.50652521324809640646,13.4415723136082,-12.3706778160955,338.439588610492
738279.50652530370280146599,13.4661905779188,-12.3583686839401,338.464206874803
738279.50652539415750652552,13.4415723136082,-12.3706778160955,338.414970346182
738279.50652548461221158504,13.4784997100742,-12.3460595517848,338.402661214026
738279.50652557506691664457,13.4661905779188,-12.3460595517848,338.205715099541
738279.50652566552162170410,13.4908088422295,-12.3337504196295,338.230333363852
738279.50652575597632676363,13.5277362386954,-12.2968230231635,338.439588610492
738279.50652584643103182316,13.4908088422295,-12.3460595517848,338.390352081871
738279.50652593688573688269,13.5031179743848,-12.3337504196295,338.464206874803
738279.50652602734044194221,13.4908088422295,-12.3214412874742,338.464206874803
738279.50652611779514700174,13.4908088422295,-12.3337504196295,338.353424685405
738279.50652620824985206127,13.5031179743848,-12.3091321553189,338.390352081871
738279.50652629858814179897,13.5154271065401,-12.2968230231635,338.328806421094
738279.50652638904284685850,13.5277362386954,-12.2598956266976,338.304188156784
738279.50652647949755191803,13.5400453708508,-12.2598956266976,338.402661214026
738279.50652656995225697756,13.5400453708508,-12.2475864945423,338.427279478337
738279.50652666040696203709,13.5277362386954,-12.2598956266976,338.316497288939
738279.50652675086166709661,13.5646636351614,-12.2106590980763,338.353424685405
738279.50652684131637215614,13.5769727673167,-12.1860408337657,338.402661214026
738279.50652693177107721567,13.5646636351614,-12.1737317016104,338.36573381756
738279.50652702222578227520,13.589281899472,-12.161422569455,338.378042949716
738279.50652711268048733473,13.626209295938,-12.0998769086784,338.34111555325
738279.50652720313519239426,13.6385184280933,-12.0752586443678,338.328806421094
738279.50652729358989745378,13.6508275602486,-12.0629495122125,338.427279478337
738279.50652738392818719149,13.6631366924039,-12.0383312479019,338.390352081871
738279.50652747438289225101,13.6754458245593,-12.0383312479019,338.36573381756
738279.50652756483759731054,13.6631366924039,-12.0383312479019,338.390352081871
738279.50652765529230237007,13.6631366924039,-12.0383312479019,338.378042949716
738279.50652774574700742960,13.6508275602486,-12.0629495122125,338.427279478337
738279.50652783620171248913,13.6385184280933,-12.0875677765231,338.390352081871
738279.50652792665641754866,13.6139001637827,-12.1244951729891,338.427279478337
738279.50652801711112260818,13.5769727673167,-12.1737317016104,338.390352081871
738279.50652810756582766771,13.5646636351614,-12.2106590980763,338.427279478337
738279.50652819802053272724,13.5277362386954,-12.2598956266976,338.328806421094
738279.50652828847523778677,13.4908088422295,-12.2845138910082,338.414970346182
738279.50652837892994284630,13.4784997100742,-12.3214412874742,338.451897742648
738279.50652846938464790583,13.4661905779188,-12.3583686839401,338.414970346182
738279.50652855972293764353,13.4415723136082,-12.3706778160955,338.378042949716
738279.50652865017764270306,13.4784997100742,-12.3337504196295,338.414970346182
738279.50652874063234776258,13.4538814457635,-12.3706778160955,338.451897742648
738279.50652883108705282211,13.4538814457635,-12.3706778160955,338.439588610492
738279.50652892154175788164,13.4538814457635,-12.3706778160955,338.427279478337
738279.50652901199646294117,13.4415723136082,-12.3829869482508,338.464206874803
738279.50652910245116800070,13.4292631814529,-12.3829869482508,338.267260760318
738279.50652919290587306023,13.4538814457635,-12.3583686839401,338.279569892473
738279.50652928336057811975,13.4415723136082,-12.3583686839401,338.427279478337
738279.50652937381528317928,13.4538814457635,-12.3583686839401,338.34111555325
738279.50652946426998823881,13.4169540492976,-12.4076052125614,338.328806421094
738279.50652955472469329834,13.4415723136082,-12.3706778160955,338.316497288939
738279.50652964506298303604,13.4538814457635,-12.3583686839401,338.328806421094
738279.50652973551768809557,13.4661905779188,-12.3460595517848,338.304188156784
738279.50652982597239315510,13.4538814457635,-12.3583686839401,338.34111555325
738279.50652991642709821463,13.4415723136082,-12.3952960804061,338.378042949716
738279.50653000688180327415,13.4538814457635,-12.3706778160955,338.378042949716
738279.50653009733650833368,13.4415723136082,-12.3706778160955,338.34111555325
738279.50653018779121339321,13.4169540492976,-12.3952960804061,338.353424685405
738279.50653027824591845274,13.4538814457635,-12.3706778160955,338.353424685405
738279.50653036870062351227,13.4415723136082,-12.3829869482508,338.378042949716
738279.50653045915532857180,13.4292631814529,-12.4076052125614,338.378042949716
738279.50653054961003363132,13.4661905779188,-12.3706778160955,338.402661214026
738279.50653064006473869085,13.4538814457635,-12.3706778160955,338.402661214026
738279.50653073040302842855,13.4415723136082,-12.3952960804061,338.378042949716
738279.50653082085773348808,13.4292631814529,-12.3952960804061,338.390352081871
738279.50653091131243854761,13.4415723136082,-12.3829869482508,338.402661214026
738279.50653100176714360714,13.4292631814529,-12.4076052125614,338.476516006958
738279.50653109222184866667,13.4169540492976,-12.4076052125614,338.414970346182
738279.50653118267655372620,13.4169540492976,-12.3952960804061,338.390352081871
738279.50653127313125878572,13.4169540492976,-12.3952960804061,338.439588610492
738279.50653136358596384525,13.4292631814529,-12.3952960804061,338.451897742648
738279.50653145404066890478,13.4169540492976,-12.4076052125614,338.427279478337
738279.50653154449537396431,13.4046449171422,-12.4322234768721,338.402661214026
738279.50653163495007902384,13.4169540492976,-12.4199143447167,338.439588610492
738279.50653172540478408337,13.4415723136082,-12.3952960804061,338.36573381756
738279.50653181585948914289,13.4169540492976,-12.4199143447167,338.464206874803
738279.50653190619777888060,13.4292631814529,-12.4076052125614,338.36573381756
738279.50653199665248394012,13.4292631814529,-12.4076052125614,338.414970346182
738279.50653208710718899965,13.4292631814529,-12.3952960804061,338.427279478337
738279.50653217756189405918,13.4292631814529,-12.3952960804061,338.476516006958
738279.50653226801659911871,13.4292631814529,-12.3952960804061,338.439588610492
738279.50653235847130417824,13.4169540492976,-12.4076052125614,338.402661214026
738279.50653244892600923777,13.4169540492976,-12.3952960804061,338.439588610492
738279.50653253938071429729,13.4169540492976,-12.4199143447167,338.464206874803
738279.50653262983541935682,13.3923357849869,-12.4322234768721,338.304188156784
738279.50653272029012441635,13.4169540492976,-12.4199143447167,338.304188156784
738279.50653281074482947588,13.4292631814529,-12.4076052125614,338.464206874803
738279.50653290119953453541,13.4169540492976,-12.4076052125614,338.476516006958
738279.50653299153782427311,13.4292631814529,-12.4076052125614,338.513443403424
738279.50653308199252933264,13.4169540492976,-12.4076052125614,338.476516006958
738279.50653317244723439217,13.4292631814529,-12.4076052125614,338.451897742648
738279.50653326290193945169,13.4046449171422,-12.4076052125614,338.488825139114
738279.50653335335664451122,13.4046449171422,-12.4199143447167,338.476516006958
738279.50653344381134957075,13.4169540492976,-12.4076052125614,338.488825139114
738279.50653353426605463028,13.4169540492976,-12.4076052125614,338.451897742648
738279.50653362472075968981,13.4169540492976,-12.4199143447167,338.476516006958
738279.50653371517546474934,13.3923357849869,-12.4322234768721,338.513443403424
738279.50653380563016980886,13.4169540492976,-12.4199143447167,338.402661214026
738279.50653389608487486839,13.4292631814529,-12.3952960804061,338.501134271269
738279.50653398653957992792,13.4169540492976,-12.4076052125614,338.488825139114
738279.50653407699428498745,13.4169540492976,-12.4199143447167,338.464206874803
738279.50653416733257472515,13.4046449171422,-12.4076052125614,338.451897742648
738279.50653425778727978468,13.4046449171422,-12.4199143447167,338.501134271269
738279.50653434824198484421,13.4046449171422,-12.4199143447167,338.488825139114
738279.50653443869668990374,13.4046449171422,-12.4076052125614,338.328806421094
738279.50653452915139496326,13.4046449171422,-12.4076052125614,338.304188156784
738279.50653461960610002279,13.3923357849869,-12.4445326090274,338.328806421094
738279.50653471006080508232,13.4046449171422,-12.4322234768721,338.390352081871
738279.50653480051551014185,13.4046449171422,-12.4199143447167,338.353424685405
738279.50653489097021520138,13.4046449171422,-12.4199143447167,338.36573381756
738279.50653498142492026091,13.4169540492976,-12.4076052125614,338.402661214026
738279.50653507187962532043,13.4169540492976,-12.4076052125614,338.353424685405
738279.50653516233433037996,13.4046449171422,-12.4076052125614,338.353424685405
738279.50653525267262011766,13.4169540492976,-12.3952960804061,338.402661214026
738279.50653534312732517719,13.4046449171422,-12.4076052125614,338.378042949716
738279.50653543358203023672,13.4046449171422,-12.4076052125614,338.34111555325
738279.50653552403673529625,13.4046449171422,-12.4199143447167,338.402661214026
738279.50653561449144035578,13.4046449171422,-12.4199143447167,338.390352081871
738279.50653570494614541531,13.4169540492976,-12.4199143447167,338.402661214026
738279.50653579540085047483,13.3923357849869,-12.4322234768721,338.439588610492
738279.50653588585555553436,13.4292631814529,-12.3952960804061,338.414970346182
738279.50653597631026059389,13.4292631814529,-12.4076052125614,338.427279478337
738279.50653606676496565342,13.4169540492976,-12.4076052125614,338.427279478337
738279.50653615721967071295,13.4169540492976,-12.3952960804061,338.267260760318
738279.50653624767437577248,13.4169540492976,-12.3952960804061,338.291879024628
738279.50653633812908083200,13.4292631814529,-12.4076052125614,338.501134271269
738279.50653642846737056971,13.4415723136082,-12.3706778160955,338.476516006958
738279.50653651892207562923,13.4538814457635,-12.3583686839401,338.427279478337
738279.50653660937678068876,13.4292631814529,-12.3829869482508,338.476516006958
738279.50653669983148574829,13.4661905779188,-12.3460595517848,338.476516006958
738279.50653679028619080782,13.4784997100742,-12.3214412874742,338.501134271269
738279.50653688074089586735,13.4784997100742,-12.3214412874742,338.402661214026
738279.50653697119560092688,13.4538814457635,-12.3583686839401,338.451897742648
738279.50653706165030598640,13.4169540492976,-12.3829869482508,338.451897742648
738279.50653715210501104593,13.4292631814529,-12.3583686839401,338.488825139114
738279.50653724255971610546,13.4292631814529,-12.3583686839401,338.402661214026
738279.50653733301442116499,13.4415723136082,-12.3706778160955,338.451897742648
738279.50653742346912622452,13.4169540492976,-12.3952960804061,338.513443403424
738279.50653751380741596222,13.4169540492976,-12.3952960804061,338.378042949716
738279.50653760426212102175,13.3923357849869,-12.4445326090274,338.464206874803
738279.50653769471682608128,13.4046449171422,-12.4445326090274,338.476516006958
738279.50653778517153114080,13.3923357849869,-12.4199143447167,338.439588610492
738279.50653787562623620033,13.4046449171422,-12.4076052125614,338.451897742648
738279.50653796608094125986,13.4046449171422,-12.4199143447167,338.488825139114
738279.50653805653564631939,13.3923357849869,-12.4445326090274,338.451897742648
738279.50653814699035137892,13.4292631814529,-12.3952960804061,338.402661214026
738279.50653823744505643845,13.4046449171422,-12.4076052125614,338.476516006958
738279.50653832789976149797,13.4169540492976,-12.4199143447167,338.390352081871
738279.50653841835446655750,13.4046449171422,-12.4322234768721,338.402661214026
738279.50653850880917161703,13.4415723136082,-12.4322234768721,338.451897742648
738279.50653859926387667656,13.4661905779188,-12.3337504196295,338.476516006958
738279.50653868960216641426,13.5523545030061,-12.0875677765231,338.476516006958
738279.50653878005687147379,13.8108462782678,-11.5459659616891,338.525752535579
738279.50653887051157653332,13.8354645425784,-11.1151463362529,338.574989064201
738279.50653896096628159285,13.6139001637827,-11.4967294330678,338.501134271269
738279.50653905142098665237,13.4661905779188,-11.8783125298827,338.353424685405
738279.50653914187569171190,13.2692444634337,-12.469150873338,338.464206874803
738279.50653923233039677143,13.355408388521,-12.4199143447167,338.451897742648
738279.50653932278510183096,13.4292631814529,-12.3337504196295,338.378042949716
738279.50653941323980689049,13.4538814457635,-12.3460595517848,338.316497288939
738279.50653950369451195002,13.4538814457635,-12.3706778160955,338.328806421094
738279.50653959414921700954,13.4538814457635,-12.3460595517848,338.36573381756
738279.50653968460392206907,13.4661905779188,-12.3460595517848,338.254951628162
738279.50653977494221180677,13.4538814457635,-12.3706778160955,338.218024231697
738279.50653986539691686630,13.4415723136082,-12.3706778160955,338.304188156784
738279.50653995585162192583,13.4784997100742,-12.3337504196295,338.390352081871
738279.50654004630632698536,13.4908088422295,-12.3214412874742,338.353424685405
738279.50654013676103204489,13.4784997100742,-12.3337504196295,338.390352081871
738279.50654022721573710442,13.4908088422295,-12.3337504196295,338.427279478337
738279.50654031767044216394,13.4908088422295,-12.2968230231635,338.451897742648
738279.50654040812514722347,13.5031179743848,-12.2968230231635,338.476516006958
738279.50654049857985228300,13.5031179743848,-12.2968230231635,338.439588610492
738279.50654058903455734253,13.5154271065401,-12.2722047588529,338.390352081871
738279.50654067948926240206,13.5154271065401,-12.2722047588529,338.34111555325
738279.50654076994396746159,13.5277362386954,-12.2475864945423,338.414970346182
738279.50654086028225719929,13.5523545030061,-12.235277362387,338.451897742648
738279.50654095073696225882,13.5523545030061,-12.2106590980763,338.451897742648
738279.50654104119166731834,13.5646636351614,-12.1860408337657,338.353424685405
738279.50654113164637237787,13.5646636351614,-12.198349965921,338.476516006958
738279.50654122210107743740,13.5523545030061,-12.2106590980763,338.439588610492
738279.50654131255578249693,13.6139001637827,-12.1368043051444,338.464206874803
738279.50654140301048755646,13.6139001637827,-12.1244951729891,338.390352081871
738279.50654149346519261599,13.6015910316273,-12.1121860408338,338.402661214026
738279.50654158391989767551,13.6508275602486,-12.0506403800572,338.476516006958
738279.50654167437460273504,13.6385184280933,-12.0629495122125,338.439588610492
738279.50654176482930779457,13.6508275602486,-12.0629495122125,338.427279478337
738279.50654185528401285410,13.6385184280933,-12.0506403800572,338.439588610492
738279.50654194573871791363,13.6385184280933,-12.0506403800572,338.34111555325
738279.50654203607700765133,13.626209295938,-12.0752586443678,338.36573381756
738279.50654212653171271086,13.6139001637827,-12.0998769086784,338.304188156784
738279.50654221698641777039,13.5646636351614,-12.161422569455,338.328806421094
738279.50654230744112282991,13.5400453708508,-12.2106590980763,338.402661214026
738279.50654239789582788944,13.5031179743848,-12.2722047588529,338.427279478337
738279.50654248835053294897,13.4908088422295,-12.2968230231635,338.427279478337
738279.50654257880523800850,13.4661905779188,-12.3337504196295,338.291879024628
738279.50654266925994306803,13.4538814457635,-12.3460595517848,338.36573381756
738279.50654275971464812756,13.4415723136082,-12.3460595517848,338.353424685405
738279.50654285016935318708,13.4415723136082,-12.3706778160955,338.390352081871
738279.50654294062405824661,13.4292631814529,-12.3952960804061,338.353424685405
738279.50654303107876330614,13.4169540492976,-12.4076052125614,338.34111555325
738279.50654312141705304384,13.4415723136082,-12.3706778160955,338.328806421094
738279.50654321187175810337,13.4169540492976,-12.3952960804061,338.304188156784
738279.50654330232646316290,13.4292631814529,-12.3829869482508,338.193405967386
738279.50654339278116822243,13.4046449171422,-12.3952960804061,338.402661214026
738279.50654348323587328196,13.4046449171422,-12.4322234768721,338.34111555325
738279.50654357369057834148,13.3923357849869,-12.4322234768721,338.390352081871
738279.50654366414528340101,13.4292631814529,-12.3829869482508,338.464206874803
738279.50654375459998846054,13.4169540492976,-12.3952960804061,338.390352081871
738279.50654384505469352007,13.4046449171422,-12.3952960804061,338.378042949716
738279.50654393550939857960,13.4046449171422,-12.4076052125614,338.390352081871
738279.50654402596410363913,13.4292631814529,-12.3952960804061,338.414970346182
738279.50654411641880869865,13.4046449171422,-12.4076052125614,338.402661214026
738279.50654420687351375818,13.4046449171422,-12.4076052125614,338.451897742648
738279.50654429721180349588,13.3923357849869,-12.4076052125614,338.36573381756
738279.50654438766650855541,13.4169540492976,-12.4076052125614,338.402661214026
738279.50654447812121361494,13.3923357849869,-12.4322234768721,338.390352081871
738279.50654456857591867447,13.4292631814529,-12.3829869482508,338.427279478337
738279.50654465903062373400,13.4046449171422,-12.4076052125614,338.414970346182
738279.50654474948532879353,13.3923357849869,-12.4076052125614,338.451897742648
738279.50654483994003385305,13.4046449171422,-12.4076052125614,338.378042949716
738279.50654493039473891258,13.4046449171422,-12.4199143447167,338.390352081871
738279.50654502084944397211,13.3923357849869,-12.4322234768721,338.464206874803
738279.50654511130414903164,13.4169540492976,-12.4199143447167,338.439588610492
738279.50654520175885409117,13.4046449171422,-12.4199143447167,338.402661214026
738279.50654529221355915070,13.4046449171422,-12.4322234768721,338.451897742648
738279.50654538255184888840,13.3923357849869,-12.4445326090274,338.464206874803
738279.50654547300655394793,13.4169540492976,-12.3952960804061,338.464206874803
738279.50654556346125900745,13.4046449171422,-12.4199143447167,338.414970346182
738279.50654565391596406698,13.4046449171422,-12.4199143447167,338.464206874803
738279.50654574437066912651,13.3923357849869,-12.4322234768721,338.439588610492
738279.50654583482537418604,13.4169540492976,-12.4076052125614,338.427279478337
738279.50654592528007924557,13.3923357849869,-12.4322234768721,338.464206874803
738279.50654601573478430510,13.4046449171422,-12.4199143447167,338.464206874803
738279.50654610618948936462,13.3923357849869,-12.4322234768721,338.427279478337
738279.50654619664419442415,13.4169540492976,-12.4199143447167,338.451897742648
738279.50654628709889948368,13.4169540492976,-12.4199143447167,338.464206874803
738279.50654637755360454321,13.4046449171422,-12.4199143447167,338.451897742648
738279.50654646800830960274,13.3923357849869,-12.4568417411827,338.390352081871
738279.50654655834659934044,13.4292631814529,-12.3952960804061,338.451897742648
738279.50654664880130439997,13.4169540492976,-12.4199143447167,338.439588610492
738279.50654673925600945950,13.4046449171422,-12.4199143447167,338.402661214026
738279.50654682971071451902,13.4169540492976,-12.4199143447167,338.254951628162
738279.50654692016541957855,13.4046449171422,-12.4445326090274,338.34111555325
738279.50654701062012463808,13.4292631814529,-12.4076052125614,338.34111555325
738279.50654710107482969761,13.4292631814529,-12.4076052125614,338.390352081871
738279.50654719152953475714,13.4292631814529,-12.4076052125614,338.378042949716
738279.50654728198423981667,13.4169540492976,-12.4076052125614,338.451897742648
738279.50654737243894487619,13.4292631814529,-12.4076052125614,338.36573381756
738279.50654746289364993572,13.4292631814529,-12.3952960804061,338.390352081871
738279.50654755334835499525,13.4292631814529,-12.4076052125614,338.427279478337
738279.50654764368664473295,13.4169540492976,-12.4199143447167,338.451897742648
738279.50654773414134979248,13.4169540492976,-12.4322234768721,338.476516006958
738279.50654782459605485201,13.4169540492976,-12.4322234768721,338.439588610492
738279.50654791505075991154,13.4169540492976,-12.4322234768721,338.439588610492
738279.50654800550546497107,13.4169540492976,-12.4199143447167,338.414970346182
738279.50654809596017003059,13.4169540492976,-12.4199143447167,338.427279478337
738279.50654818641487509012,13.3923357849869,-12.4445326090274,338.353424685405
738279.50654827686958014965,13.4046449171422,-12.4445326090274,338.36573381756
738279.50654836732428520918,13.4292631814529,-12.4199143447167,338.353424685405
738279.50654845777899026871,13.4169540492976,-12.4322234768721,338.427279478337
738279.50654854823369532824,13.4169540492976,-12.4322234768721,338.402661214026
738279.50654863868840038776,13.3923357849869,-12.4199143447167,338.414970346182
738279.50654872914310544729,13.4169540492976,-12.4199143447167,338.451897742648
738279.50654881948139518499,13.4169540492976,-12.4322234768721,338.451897742648
738279.50654890993610024452,13.4169540492976,-12.4199143447167,338.402661214026
738279.50654900039080530405,13.4046449171422,-12.4322234768721,338.402661214026
738279.50654909084551036358,13.4046449171422,-12.4322234768721,338.414970346182
738279.50654918130021542311,13.4046449171422,-12.4445326090274,338.414970346182
738279.50654927175492048264,13.4046449171422,-12.4322234768721,338.451897742648
738279.50654936220962554216,13.4046449171422,-12.4322234768721,338.451897742648
738279.50654945266433060169,13.3923357849869,-12.4322234768721,338.476516006958
738279.50654954311903566122,13.4046449171422,-12.4322234768721,338.451897742648
738279.50654963357374072075,13.4046449171422,-12.4322234768721,338.464206874803
738279.50654972402844578028,13.4046449171422,-12.4445326090274,338.451897742648
738279.50654981448315083981,13.3923357849869,-12.4445326090274,338.378042949716
738279.50654990482144057751,13.3923357849869,-12.4322234768721,338.464206874803
738279.50654999527614563704,13.3923357849869,-12.4445326090274,338.464206874803
738279.50655008573085069656,13.3923357849869,-12.4568417411827,338.451897742648
738279.50655017618555575609,13.3800266528316,-12.4445326090274,338.451897742648
738279.50655026664026081562,13.4169540492976,-12.4199143447167,338.267260760318
738279.50655035709496587515,13.4292631814529,-12.4199143447167,338.402661214026
738279.50655044754967093468,13.4415723136082,-12.3952960804061,338.378042949716
738279.50655053800437599421,13.4415723136082,-12.3829869482508,338.451897742648
738279.50655062845908105373,13.4661905779188,-12.3583686839401,338.451897742648
738279.50655071891378611326,13.4292631814529,-12.4076052125614,338.451897742648
738279.50655080936849117279,13.4169540492976,-12.4076052125614,338.439588610492
738279.50655089982319623232,13.4046449171422,-12.4076052125614,338.488825139114
738279.50655099016148597002,13.4046449171422,-12.3952960804061,338.427279478337
738279.50655108061619102955,13.3923357849869,-12.4199143447167,338.316497288939
738279.50655117107089608908,13.3677175206763,-12.4568417411827,338.36573381756
738279.50655126152560114861,13.3677175206763,-12.4568417411827,338.353424685405
738279.50655135198030620813,13.355408388521,-12.4814600054933,338.414970346182
738279.50655144243501126766,13.3800266528316,-12.469150873338,338.390352081871
738279.50655153288971632719,13.3800266528316,-12.469150873338,338.414970346182
738279.50655162334442138672,13.3800266528316,-12.469150873338,338.378042949716
738279.50655171379912644625,13.3800266528316,-12.4568417411827,338.427279478337
738279.50655180425383150578,13.3800266528316,-12.469150873338,338.439588610492
738279.50655189470853656530,13.3677175206763,-12.4814600054933,338.34111555325
738279.50655198516324162483,13.3800266528316,-12.469150873338,338.378042949716
738279.50655207561794668436,13.3800266528316,-12.4814600054933,338.414970346182
738279.50655216595623642206,13.3800266528316,-12.4568417411827,338.451897742648
738279.50655225641094148159,13.3923357849869,-12.4814600054933,338.402661214026
738279.50655234686564654112,13.4046449171422,-12.4568417411827,338.36573381756
738279.50655243732035160065,13.4292631814529,-12.3091321553189,338.501134271269
738279.50655252777505666018,13.6015910316273,-11.927549058504,338.464206874803
738279.50655261822976171970,13.7985371461124,-11.3736381115146,338.414970346182
