time_dn,ecg_projection_ll_ra_mV,ecg_projection_la_ra_mV,ecg_projection_vx_rl_mV
738279.50120277865789830685,13.7493006174912,-12.4568417411827,338.808862575152
738279.50120286911260336637,13.7616097496465,-12.4568417411827,338.833480839462
738279.50120295956730842590,13.7739188818018,-12.469150873338,338.808862575152
738279.50120305002201348543,13.7739188818018,-12.4814600054933,338.784244310841
738279.50120314036030322313,13.7862280139571,-12.4814600054933,338.808862575152
738279.50120323081500828266,13.7985371461124,-12.469150873338,338.685771253599
738279.50120332126971334219,13.7985371461124,-12.469150873338,338.648843857133
738279.50120341172441840172,13.7985371461124,-12.4568417411827,338.73500778222
738279.50120350217912346125,13.7985371461124,-12.4568417411827,338.796553442997
738279.50120359263382852077,13.7985371461124,-12.4445326090274,338.784244310841
738279.50120368308853358030,13.8108462782678,-12.4445326090274,338.698080385754
738279.50120377342682331800,13.8108462782678,-12.4322234768721,338.636534724977
738279.50120386388152837753,13.8231554104231,-12.4199143447167,338.710389517909
738279.50120395433623343706,13.8231554104231,-12.4199143447167,338.685771253599
738279.50120404479093849659,13.8354645425784,-12.3952960804061,338.73500778222
738279.50120413524564355612,13.8477736747337,-12.3829869482508,338.710389517909
738279.50120422570034861565,13.860082806889,-12.3583686839401,338.759626046531
738279.50120431615505367517,13.860082806889,-12.3583686839401,338.685771253599
738279.50120440649334341288,13.860082806889,-12.3337504196295,338.747316914375
738279.50120449694804847240,13.8723919390444,-12.3214412874742,338.759626046531
738279.50120458740275353193,13.897010203355,-12.2845138910082,338.73500778222
738279.50120467785745859146,13.9093193355103,-12.2598956266976,338.73500778222
738279.50120476831216365099,13.9216284676656,-12.235277362387,338.759626046531
738279.50120485876686871052,13.9462467319763,-12.2106590980763,338.747316914375
738279.50120494910515844822,13.9462467319763,-12.1860408337657,338.759626046531
738279.50120503955986350775,13.9708649962869,-12.161422569455,338.73500778222
738279.50120513001456856728,13.9708649962869,-12.1491134372997,338.722698650065
738279.50120522046927362680,13.9708649962869,-12.1491134372997,338.73500778222
738279.50120531092397868633,13.9708649962869,-12.1491134372997,338.759626046531
738279.50120540137868374586,13.9708649962869,-12.161422569455,338.722698650065
738279.50120549183338880539,13.9585558641316,-12.1860408337657,338.771935178686
738279.50120558217167854309,13.933937599821,-12.235277362387,338.796553442997
738279.50120567262638360262,13.897010203355,-12.2845138910082,338.636534724977
738279.50120576308108866215,13.8847010711997,-12.3337504196295,338.722698650065
738279.50120585353579372168,13.8477736747337,-12.3829869482508,338.759626046531
738279.50120594399049878120,13.8231554104231,-12.4199143447167,338.710389517909
738279.50120603444520384073,13.7985371461124,-12.4445326090274,338.722698650065
738279.50120612489990890026,13.7985371461124,-12.469150873338,338.698080385754
738279.50120621523819863796,13.7862280139571,-12.4814600054933,338.698080385754
738279.50120630569290369749,13.7739188818018,-12.506078269804,338.710389517909
738279.50120639614760875702,13.7739188818018,-12.506078269804,338.698080385754
738279.50120648660231381655,13.7739188818018,-12.506078269804,338.73500778222
738279.50120657705701887608,13.7739188818018,-12.5183874019593,338.722698650065
738279.50120666751172393560,13.7616097496465,-12.5306965341146,338.698080385754
738279.50120675785001367331,13.7739188818018,-12.5183874019593,338.636534724977
738279.50120684830471873283,13.7739188818018,-12.506078269804,338.648843857133
738279.50120693875942379236,13.7739188818018,-12.506078269804,338.759626046531
738279.50120702921412885189,13.7739188818018,-12.506078269804,338.796553442997
738279.50120711966883391142,13.7739188818018,-12.5183874019593,338.833480839462
738279.50120721012353897095,13.7739188818018,-12.5183874019593,338.710389517909
738279.50120730057824403048,13.7862280139571,-12.506078269804,338.808862575152
738279.50120739091653376818,13.7739188818018,-12.506078269804,338.821171707307
738279.50120748137123882771,13.7862280139571,-12.506078269804,338.796553442997
738279.50120757182594388723,13.7739188818018,-12.506078269804,338.771935178686
738279.50120766228064894676,13.7862280139571,-12.5183874019593,338.845789971618
738279.50120775273535400629,13.7739188818018,-12.5183874019593,338.759626046531
738279.50120784319005906582,13.7739188818018,-12.5183874019593,338.784244310841
738279.50120793352834880352,13.7739188818018,-12.5183874019593,338.821171707307
738279.50120802398305386305,13.7739188818018,-12.5183874019593,338.845789971618
738279.50120811443775892258,13.7739188818018,-12.5306965341146,338.784244310841
738279.50120820489246398211,13.7739188818018,-12.5306965341146,338.796553442997
738279.50120829534716904163,13.7739188818018,-12.5430056662699,338.833480839462
738279.50120838580187410116,13.7739188818018,-12.5306965341146,338.808862575152
738279.50120847625657916069,13.7739188818018,-12.5430056662699,338.73500778222
738279.50120856659486889839,13.7739188818018,-12.5430056662699,338.808862575152
738279.50120865704957395792,13.7739188818018,-12.5430056662699,338.821171707307
738279.50120874750427901745,13.7616097496465,-12.5553147984252,338.747316914375
738279.50120883795898407698,13.7739188818018,-12.5430056662699,338.784244310841
738279.50120892841368913651,13.7739188818018,-12.5430056662699,338.858099103773
738279.50120901886839419603,13.7739188818018,-12.5430056662699,338.685771253599
738279.50120910932309925556,13.7739188818018,-12.5553147984252,338.648843857133
738279.50120919966138899326,13.7616097496465,-12.5553147984252,338.710389517909
738279.50120929011609405279,13.7616097496465,-12.5553147984252,338.73500778222
738279.50120938057079911232,13.7616097496465,-12.5553147984252,338.710389517909
738279.50120947102550417185,13.7616097496465,-12.5676239305806,338.73500778222
738279.50120956148020923138,13.7616097496465,-12.5676239305806,338.759626046531
738279.50120965193491429090,13.7616097496465,-12.5553147984252,338.771935178686
738279.50120974227320402861,13.7616097496465,-12.5553147984252,338.833480839462
738279.50120983272790908813,13.7616097496465,-12.5676239305806,338.784244310841
738279.50120992318261414766,13.7493006174912,-12.5553147984252,338.796553442997
738279.50121001363731920719,13.7616097496465,-12.5553147984252,338.771935178686
738279.50121010409202426672,13.7493006174912,-12.5553147984252,338.722698650065
738279.50121019454672932625,13.7493006174912,-12.5676239305806,338.759626046531
738279.50121028500143438578,13.7616097496465,-12.5553147984252,338.698080385754
738279.50121037533972412348,13.7616097496465,-12.5676239305806,338.611916460667
738279.50121046579442918301,13.7616097496465,-12.5553147984252,338.73500778222
738279.50121055624913424253,13.7616097496465,-12.5676239305806,338.808862575152
738279.50121064670383930206,13.7616097496465,-12.5553147984252,338.796553442997
738279.50121073715854436159,13.7616097496465,-12.5676239305806,338.784244310841
738279.50121082761324942112,13.7616097496465,-12.5553147984252,338.722698650065
738279.50121091806795448065,13.7493006174912,-12.5676239305806,338.759626046531
738279.50121100840624421835,13.7616097496465,-12.5676239305806,338.784244310841
738279.50121109886094927788,13.7616097496465,-12.5676239305806,338.796553442997
738279.50121118931565433741,13.7616097496465,-12.5799330627359,338.784244310841
738279.50121127977035939693,13.7616097496465,-12.5676239305806,338.784244310841
738279.50121137022506445646,13.7616097496465,-12.5676239305806,338.845789971618
738279.50121146067976951599,13.7616097496465,-12.5676239305806,338.784244310841
738279.50121155101805925369,13.7616097496465,-12.5553147984252,338.784244310841
738279.50121164147276431322,13.7739188818018,-12.5553147984252,338.73500778222
738279.50121173192746937275,13.7862280139571,-12.5306965341146,338.808862575152
738279.50121182238217443228,13.7985371461124,-12.5306965341146,338.845789971618
738279.50121191283687949181,13.7985371461124,-12.5183874019593,338.759626046531
738279.50121200329158455133,13.8108462782678,-12.506078269804,338.722698650065
738279.50121209374628961086,13.8231554104231,-12.4937691376487,338.784244310841
738279.50121218408457934856,13.8231554104231,-12.506078269804,338.821171707307
738279.50121227453928440809,13.7985371461124,-12.5306965341146,338.722698650065
738279.50121236499398946762,13.7985371461124,-12.5306965341146,338.808862575152
738279.50121245544869452715,13.7862280139571,-12.5183874019593,338.845789971618
738279.50121254590339958668,13.7862280139571,-12.5183874019593,338.747316914375
738279.50121263635810464621,13.7616097496465,-12.5553147984252,338.784244310841
738279.50121272681280970573,13.7616097496465,-12.5553147984252,338.685771253599
738279.50121281715109944344,13.7369914853359,-12.5922421948912,338.710389517909
738279.50121290760580450296,13.7493006174912,-12.5922421948912,338.73500778222
738279.50121299806050956249,13.7493006174912,-12.6045513270465,338.747316914375
738279.50121308851521462202,13.7493006174912,-12.5922421948912,338.710389517909
738279.50121317896991968155,13.7493006174912,-12.5799330627359,338.747316914375
738279.50121326942462474108,13.7493006174912,-12.5922421948912,338.722698650065
738279.50121335976291447878,13.7493006174912,-12.5922421948912,338.722698650065
738279.50121345021761953831,13.7493006174912,-12.5922421948912,338.673462121443
738279.50121354067232459784,13.7493006174912,-12.5922421948912,338.685771253599
738279.50121363112702965736,13.7616097496465,-12.5922421948912,338.710389517909
738279.50121372158173471689,13.7616097496465,-12.6168604592018,338.685771253599
738279.50121381203643977642,13.7739188818018,-12.6045513270465,338.661152989288
738279.50121390249114483595,13.8108462782678,-12.5183874019593,338.538061667735
738279.50121399282943457365,13.8723919390444,-12.2845138910082,338.784244310841
738279.50121408328413963318,14.1185745821507,-11.7921486047955,338.73500778222
738279.50121417373884469271,14.1801202429273,-11.2997833185827,338.845789971618
738279.50121426419354975224,13.9831741284422,-11.5582750938444,338.73500778222
738279.50121435464825481176,13.7123732210252,-12.2598956266976,338.759626046531
738279.50121444510295987129,13.589281899472,-12.7153335164444,338.821171707307
738279.50121453544124960899,13.7246823531805,-12.5306965341146,338.722698650065
738279.50121462589595466852,13.7862280139571,-12.4814600054933,338.796553442997
738279.50121471635065972805,13.7985371461124,-12.506078269804,338.73500778222
738279.50121480680536478758,13.7985371461124,-12.5183874019593,338.73500778222
738279.50121489726006984711,13.7985371461124,-12.5183874019593,338.759626046531
738279.50121498771477490664,13.8108462782678,-12.5183874019593,338.73500778222
738279.50121507816947996616,13.7985371461124,-12.5306965341146,338.710389517909
738279.50121516850776970387,13.7985371461124,-12.5183874019593,338.747316914375
738279.50121525896247476339,13.8108462782678,-12.5183874019593,338.759626046531
738279.50121534941717982292,13.8108462782678,-12.506078269804,338.784244310841
738279.50121543987188488245,13.8231554104231,-12.4937691376487,338.784244310841
738279.50121553032658994198,13.8231554104231,-12.4937691376487,338.685771253599
738279.50121562078129500151,13.8231554104231,-12.4814600054933,338.808862575152
738279.50121571123600006104,13.8231554104231,-12.469150873338,338.808862575152
738279.50121580157428979874,13.8354645425784,-12.4568417411827,338.796553442997
738279.50121589202899485826,13.8477736747337,-12.4445326090274,338.710389517909
738279.50121598248369991779,13.8477736747337,-12.4445326090274,338.759626046531
738279.50121607293840497732,13.8723919390444,-12.4199143447167,338.771935178686
738279.50121616339311003685,13.8723919390444,-12.4076052125614,338.698080385754
738279.50121625384781509638,13.8847010711997,-12.3952960804061,338.796553442997
738279.50121634418610483408,13.897010203355,-12.3706778160955,338.771935178686
738279.50121643464080989361,13.9093193355103,-12.3583686839401,338.698080385754
738279.50121652509551495314,13.9216284676656,-12.3214412874742,338.759626046531
738279.50121661555022001266,13.933937599821,-12.2968230231635,338.808862575152
738279.50121670600492507219,13.9462467319763,-12.2598956266976,338.796553442997
738279.50121679645963013172,13.9585558641316,-12.2475864945423,338.73500778222
738279.50121688691433519125,13.9708649962869,-12.235277362387,338.685771253599
738279.50121697725262492895,13.9831741284422,-12.2106590980763,338.661152989288
738279.50121706770732998848,13.9954832605976,-12.2106590980763,338.636534724977
738279.50121715816203504801,14.0077923927529,-12.198349965921,338.661152989288
738279.50121724861674010754,13.9708649962869,-12.235277362387,338.599607328511
738279.50121733907144516706,13.9585558641316,-12.2598956266976,338.427279478337
738279.50121742952615022659,13.933937599821,-12.2968230231635,338.562679932045
738279.50121751998085528612,13.9216284676656,-12.3460595517848,338.648843857133
738279.50121761031914502382,13.8847010711997,-12.3952960804061,338.673462121443
738279.50121770077385008335,13.8723919390444,-12.4076052125614,338.698080385754
738279.50121779122855514288,13.8477736747337,-12.4568417411827,338.685771253599
738279.50121788168326020241,13.8354645425784,-12.4814600054933,338.698080385754
738279.50121797213796526194,13.8108462782678,-12.506078269804,338.722698650065
738279.50121806259267032146,13.7985371461124,-12.5183874019593,338.759626046531
738279.50121815293096005917,13.7862280139571,-12.5430056662699,338.784244310841
738279.50121824338566511869,13.7862280139571,-12.5430056662699,338.673462121443
738279.50121833384037017822,13.7739188818018,-12.5553147984252,338.747316914375
738279.50121842429507523775,13.7985371461124,-12.5183874019593,338.808862575152
738279.50121851474978029728,13.7862280139571,-12.5430056662699,338.808862575152
738279.50121860520448535681,13.7739188818018,-12.5430056662699,338.661152989288
738279.50121869565919041634,13.7862280139571,-12.5553147984252,338.73500778222
738279.50121878599748015404,13.7985371461124,-12.5306965341146,338.771935178686
738279.50121887645218521357,13.7985371461124,-12.5430056662699,338.73500778222
738279.50121896690689027309,13.7862280139571,-12.5430056662699,338.685771253599
738279.50121905736159533262,13.7985371461124,-12.5430056662699,338.73500778222
738279.50121914781630039215,13.7862280139571,-12.5430056662699,338.710389517909
738279.50121923827100545168,13.7985371461124,-12.5430056662699,338.685771253599
738279.50121932872571051121,13.7985371461124,-12.5306965341146,338.722698650065
738279.50121941906400024891,13.8108462782678,-12.5183874019593,338.759626046531
738279.50121950951870530844,13.7862280139571,-12.5430056662699,338.784244310841
738279.50121959997341036797,13.7862280139571,-12.5430056662699,338.771935178686
738279.50121969042811542749,13.7985371461124,-12.5183874019593,338.722698650065
738279.50121978088282048702,13.7862280139571,-12.5430056662699,338.784244310841
738279.50121987133752554655,13.7985371461124,-12.5430056662699,338.808862575152
738279.50121996167581528425,13.7985371461124,-12.5430056662699,338.759626046531
738279.50122005213052034378,13.7862280139571,-12.5553147984252,338.73500778222
738279.50122014258522540331,13.7985371461124,-12.5430056662699,338.759626046531
738279.50122023303993046284,13.7985371461124,-12.5430056662699,338.784244310841
738279.50122032349463552237,13.7739188818018,-12.5553147984252,338.698080385754
738279.50122041394934058189,13.7985371461124,-12.5430056662699,338.784244310841
738279.50122050440404564142,13.7739188818018,-12.5676239305806,338.821171707307
738279.50122059474233537912,13.7862280139571,-12.5553147984252,338.747316914375
738279.50122068519704043865,13.7862280139571,-12.5553147984252,338.771935178686
738279.50122077565174549818,13.7739188818018,-12.5676239305806,338.796553442997
738279.50122086610645055771,13.7862280139571,-12.5553147984252,338.661152989288
738279.50122095656115561724,13.7862280139571,-12.5676239305806,338.673462121443
738279.50122104701586067677,13.7862280139571,-12.5676239305806,338.747316914375
738279.50122113735415041447,13.7739188818018,-12.5676239305806,338.747316914375
738279.50122122780885547400,13.7862280139571,-12.5553147984252,338.698080385754
738279.50122131826356053352,13.7739188818018,-12.5799330627359,338.648843857133
738279.50122140871826559305,13.7862280139571,-12.5676239305806,338.648843857133
738279.50122149917297065258,13.7985371461124,-12.5553147984252,338.673462121443
738279.50122158962767571211,13.7862280139571,-12.5676239305806,338.710389517909
738279.50122168008238077164,13.7862280139571,-12.5676239305806,338.747316914375
738279.50122177042067050934,13.7739188818018,-12.5676239305806,338.771935178686
738279.50122186087537556887,13.7862280139571,-12.5676239305806,338.759626046531
738279.50122195133008062840,13.7862280139571,-12.5676239305806,338.771935178686
738279.50122204178478568792,13.7862280139571,-12.5553147984252,338.796553442997
738279.50122213223949074745,13.7739188818018,-12.5676239305806,338.710389517909
738279.50122222269419580698,13.7739188818018,-12.5799330627359,338.784244310841
738279.50122231314890086651,13.7739188818018,-12.5676239305806,338.808862575152
738279.50122240348719060421,13.7985371461124,-12.5553147984252,338.796553442997
738279.50122249394189566374,13.7739188818018,-12.5799330627359,338.747316914375
738279.50122258439660072327,13.7739188818018,-12.5676239305806,338.698080385754
738279.50122267485130578279,13.7739188818018,-12.5676239305806,338.73500778222
738279.50122276530601084232,13.7739188818018,-12.5676239305806,338.661152989288
738279.50122285576071590185,13.7739188818018,-12.5676239305806,338.710389517909
738279.50122294609900563955,13.7739188818018,-12.5676239305806,338.685771253599
738279.50122303655371069908,13.7739188818018,-12.5676239305806,338.710389517909
738279.50122312700841575861,13.7616097496465,-12.5799330627359,338.698080385754
738279.50122321746312081814,13.7862280139571,-12.5676239305806,338.747316914375
738279.50122330791782587767,13.7862280139571,-12.5676239305806,338.759626046531
738279.50122339837253093719,13.7739188818018,-12.5676239305806,338.784244310841
738279.50122348882723599672,13.7739188818018,-12.5676239305806,338.673462121443
738279.50122357916552573442,13.7862280139571,-12.5676239305806,338.73500778222
738279.50122366962023079395,13.7739188818018,-12.5676239305806,338.771935178686
738279.50122376007493585348,13.7739188818018,-12.5676239305806,338.698080385754
738279.50122385052964091301,13.7739188818018,-12.5676239305806,338.784244310841
738279.50122394098434597254,13.7739188818018,-12.5799330627359,338.784244310841
738279.50122403143905103207,13.7862280139571,-12.5676239305806,338.808862575152
738279.50122412189375609159,13.7985371461124,-12.5430056662699,338.796553442997
738279.50122421223204582930,13.7739188818018,-12.5676239305806,338.833480839462
738279.50122430268675088882,13.8108462782678,-12.5306965341146,338.784244310841
738279.50122439314145594835,13.8108462782678,-12.5306965341146,338.759626046531
738279.50122448359616100788,13.8108462782678,-12.5183874019593,338.821171707307
738279.50122457405086606741,13.8354645425784,-12.4937691376487,338.833480839462
738279.50122466450557112694,13.8354645425784,-12.4937691376487,338.698080385754
738279.50122475484386086464,13.7862280139571,-12.5430056662699,338.784244310841
738279.50122484529856592417,13.8108462782678,-12.5183874019593,338.833480839462
738279.50122493575327098370,13.7862280139571,-12.5306965341146,338.685771253599
738279.50122502620797604322,13.7862280139571,-12.5306965341146,338.784244310841
738279.50122511666268110275,13.7862280139571,-12.5553147984252,338.808862575152
738279.50122520711738616228,13.7739188818018,-12.5799330627359,338.771935178686
738279.50122529757209122181,13.7616097496465,-12.5799330627359,338.673462121443
738279.50122538791038095951,13.7616097496465,-12.5922421948912,338.685771253599
738279.50122547836508601904,13.7616097496465,-12.5922421948912,338.624225592822
738279.50122556881979107857,13.7493006174912,-12.6168604592018,338.648843857133
738279.50122565927449613810,13.7616097496465,-12.5922421948912,338.636534724977
738279.50122574972920119762,13.7616097496465,-12.5922421948912,338.722698650065
738279.50122584018390625715,13.7616097496465,-12.5922421948912,338.710389517909
738279.50122593063861131668,13.7616097496465,-12.5922421948912,338.673462121443
738279.50122602097690105438,13.7739188818018,-12.5676239305806,338.685771253599
738279.50122611143160611391,13.7739188818018,-12.5922421948912,338.747316914375
738279.50122620188631117344,13.7739188818018,-12.5799330627359,338.685771253599
738279.50122629234101623297,13.7862280139571,-12.6168604592018,338.685771253599
738279.50122638279572129250,13.8231554104231,-12.5183874019593,338.771935178686
738279.50122647325042635202,13.897010203355,-12.2722047588529,338.845789971618
738279.50122656358871608973,14.1431928464614,-11.7675303404848,338.759626046531
738279.50122665404342114925,14.1924293750827,-11.2874741864274,338.73500778222
738279.50122674449812620878,13.9708649962869,-11.5828933581551,338.673462121443
738279.50122683495283126831,13.7246823531805,-12.2845138910082,338.722698650065
738279.50122692540753632784,13.6139001637827,-12.7153335164444,338.796553442997
738279.50122701586224138737,13.7616097496465,-12.5183874019593,338.808862575152
738279.50122710631694644690,13.8108462782678,-12.4814600054933,338.845789971618
738279.50122719665523618460,13.8231554104231,-12.4814600054933,338.722698650065
738279.50122728710994124413,13.8231554104231,-12.506078269804,338.73500778222
738279.50122737756464630365,13.8231554104231,-12.5183874019593,338.698080385754
738279.50122746801935136318,13.8231554104231,-12.5183874019593,338.73500778222
738279.50122755847405642271,13.8231554104231,-12.5183874019593,338.73500778222
738279.50122764892876148224,13.8231554104231,-12.5183874019593,338.722698650065
738279.50122773926705121994,13.8354645425784,-12.506078269804,338.722698650065
738279.50122782972175627947,13.8354645425784,-12.506078269804,338.771935178686
738279.50122792017646133900,13.8354645425784,-12.506078269804,338.673462121443
738279.50122801063116639853,13.8477736747337,-12.4937691376487,338.611916460667
738279.50122810108587145805,13.8354645425784,-12.4937691376487,338.747316914375
738279.50122819154057651758,13.8477736747337,-12.4568417411827,338.784244310841
738279.50122828199528157711,13.8477736747337,-12.4568417411827,338.722698650065
738279.50122837233357131481,13.860082806889,-12.4568417411827,338.784244310841
738279.50122846278827637434,13.860082806889,-12.4322234768721,338.771935178686
738279.50122855324298143387,13.8723919390444,-12.4199143447167,338.673462121443
738279.50122864369768649340,13.8847010711997,-12.4076052125614,338.784244310841
738279.50122873415239155293,13.9093193355103,-12.3829869482508,338.808862575152
738279.50122882460709661245,13.9093193355103,-12.3706778160955,338.722698650065
738279.50122891506180167198,13.9216284676656,-12.3460595517848,338.759626046531
738279.50122900540009140968,13.9216284676656,-12.3214412874742,338.771935178686
738279.50122909585479646921,13.9462467319763,-12.3214412874742,338.771935178686
738279.50122918630950152874,13.9585558641316,-12.2845138910082,338.759626046531
738279.50122927676420658827,13.9708649962869,-12.2598956266976,338.722698650065
738279.50122936721891164780,13.9831741284422,-12.235277362387,338.784244310841
738279.50122945767361670732,13.9831741284422,-12.235277362387,338.808862575152
738279.50122954801190644503,13.9954832605976,-12.2229682302316,338.722698650065
738279.50122963846661150455,13.9954832605976,-12.2106590980763,338.759626046531
738279.50122972892131656408,13.9954832605976,-12.2229682302316,338.747316914375
738279.50122981937602162361,13.9831741284422,-12.2475864945423,338.747316914375
738279.50122990983072668314,13.9585558641316,-12.2722047588529,338.710389517909
738279.50123000028543174267,13.9216284676656,-12.3214412874742,338.796553442997
738279.50123009074013680220,13.9093193355103,-12.3460595517848,338.624225592822
738279.50123018107842653990,13.8723919390444,-12.4076052125614,338.624225592822
738279.50123027153313159943,13.860082806889,-12.4199143447167,338.624225592822
738279.50123036198783665895,13.8354645425784,-12.4814600054933,338.685771253599
738279.50123045244254171848,13.8231554104231,-12.4937691376487,338.685771253599
738279.50123054289724677801,13.8108462782678,-12.5183874019593,338.685771253599
738279.50123063335195183754,13.7985371461124,-12.5306965341146,338.722698650065
738279.50123072380665689707,13.7985371461124,-12.5306965341146,338.771935178686
738279.50123081414494663477,13.8108462782678,-12.5306965341146,338.821171707307
738279.50123090459965169430,13.7985371461124,-12.5306965341146,338.722698650065
738279.50123099505435675383,13.7862280139571,-12.5306965341146,338.808862575152
738279.50123108550906181335,13.7985371461124,-12.5306965341146,338.784244310841
738279.50123117596376687288,13.7862280139571,-12.5430056662699,338.722698650065
738279.50123126641847193241,13.7862280139571,-12.5430056662699,338.685771253599
738279.50123135675676167011,13.7862280139571,-12.5306965341146,338.685771253599
738279.50123144721146672964,13.7985371461124,-12.5183874019593,338.648843857133
738279.50123153766617178917,13.7985371461124,-12.5306965341146,338.599607328511
738279.50123162812087684870,13.7985371461124,-12.5183874019593,338.759626046531
738279.50123171857558190823,13.7862280139571,-12.5306965341146,338.698080385754
738279.50123180903028696775,13.7985371461124,-12.5183874019593,338.747316914375
738279.50123189948499202728,13.8108462782678,-12.5306965341146,338.747316914375
738279.50123198982328176498,13.8108462782678,-12.5306965341146,338.784244310841
738279.50123208027798682451,13.7985371461124,-12.5306965341146,338.771935178686
738279.50123217073269188404,13.7985371461124,-12.5306965341146,338.698080385754
738279.50123226118739694357,13.7985371461124,-12.5306965341146,338.747316914375
738279.50123235164210200310,13.7862280139571,-12.5306965341146,338.771935178686
738279.50123244209680706263,13.7985371461124,-12.5306965341146,338.796553442997
738279.50123253255151212215,13.7985371461124,-12.5430056662699,338.771935178686
738279.50123262288980185986,13.7985371461124,-12.5553147984252,338.771935178686
738279.50123271334450691938,13.7862280139571,-12.5430056662699,338.784244310841
738279.50123280379921197891,13.7862280139571,-12.5553147984252,338.759626046531
738279.50123289425391703844,13.7985371461124,-12.5430056662699,338.771935178686
738279.50123298470862209797,13.7985371461124,-12.5306965341146,338.784244310841
738279.50123307516332715750,13.7862280139571,-12.5430056662699,338.759626046531
738279.50123316550161689520,13.7862280139571,-12.5430056662699,338.759626046531
738279.50123325595632195473,13.7862280139571,-12.5553147984252,338.673462121443
738279.50123334641102701426,13.7985371461124,-12.5553147984252,338.636534724977
738279.50123343686573207378,13.7862280139571,-12.5553147984252,338.685771253599
738279.50123352732043713331,13.7862280139571,-12.5553147984252,338.673462121443
738279.50123361777514219284,13.7739188818018,-12.5430056662699,338.722698650065
738279.50123370822984725237,13.7862280139571,-12.5430056662699,338.722698650065
738279.50123379856813699007,13.7862280139571,-12.5553147984252,338.710389517909
738279.50123388902284204960,13.7862280139571,-12.5553147984252,338.698080385754
738279.50123397947754710913,13.7862280139571,-12.5553147984252,338.710389517909
738279.50123406993225216866,13.7862280139571,-12.5430056662699,338.722698650065
738279.50123416038695722818,13.7739188818018,-12.5430056662699,338.747316914375
738279.50123425084166228771,13.7862280139571,-12.5430056662699,338.771935178686
738279.50123434117995202541,13.7862280139571,-12.5553147984252,338.821171707307
738279.50123443163465708494,13.7739188818018,-12.5553147984252,338.796553442997
738279.50123452208936214447,13.7862280139571,-12.5553147984252,338.710389517909
738279.50123461254406720400,13.7739188818018,-12.5553147984252,338.722698650065
738279.50123470299877226353,13.7862280139571,-12.5553147984252,338.759626046531
738279.50123479345347732306,13.7739188818018,-12.5430056662699,338.73500778222
738279.50123488390818238258,13.7862280139571,-12.5306965341146,338.73500778222
738279.50123497424647212029,13.7862280139571,-12.5430056662699,338.747316914375
738279.50123506470117717981,13.7739188818018,-12.5553147984252,338.624225592822
738279.50123515515588223934,13.7739188818018,-12.5430056662699,338.759626046531
738279.50123524561058729887,13.7739188818018,-12.5553147984252,338.747316914375
738279.50123533606529235840,13.7862280139571,-12.5430056662699,338.722698650065
738279.50123542651999741793,13.7739188818018,-12.5553147984252,338.747316914375
738279.50123551697470247746,13.7739188818018,-12.5430056662699,338.698080385754
738279.50123560731299221516,13.7862280139571,-12.5430056662699,338.710389517909
738279.50123569776769727468,13.7739188818018,-12.5553147984252,338.73500778222
738279.50123578822240233421,13.7739188818018,-12.5430056662699,338.698080385754
738279.50123587867710739374,13.7862280139571,-12.5306965341146,338.759626046531
738279.50123596913181245327,13.7862280139571,-12.5306965341146,338.784244310841
738279.50123605958651751280,13.7862280139571,-12.5183874019593,338.808862575152
738279.50123614992480725050,13.7985371461124,-12.5183874019593,338.73500778222
738279.50123624037951231003,13.8108462782678,-12.4937691376487,338.722698650065
738279.50123633083421736956,13.8108462782678,-12.4937691376487,338.771935178686
738279.50123642128892242908,13.8354645425784,-12.4568417411827,338.808862575152
738279.50123651174362748861,13.8354645425784,-12.469150873338,338.796553442997
738279.50123660219833254814,13.8231554104231,-12.4937691376487,338.796553442997
738279.50123669265303760767,13.7985371461124,-12.506078269804,338.747316914375
738279.50123678299132734537,13.7985371461124,-12.506078269804,338.845789971618
738279.50123687344603240490,13.7985371461124,-12.4937691376487,338.858099103773
738279.50123696390073746443,13.7985371461124,-12.506078269804,338.821171707307
738279.50123705435544252396,13.7862280139571,-12.5306965341146,338.784244310841
738279.50123714481014758348,13.7616097496465,-12.5430056662699,338.821171707307
738279.50123723526485264301,13.7616097496465,-12.5553147984252,338.808862575152
738279.50123732571955770254,13.7616097496465,-12.5676239305806,338.784244310841
738279.50123741605784744024,13.7616097496465,-12.5676239305806,338.821171707307
738279.50123750651255249977,13.7616097496465,-12.5553147984252,338.784244310841
738279.50123759696725755930,13.7493006174912,-12.5553147984252,338.808862575152
738279.50123768742196261883,13.7493006174912,-12.5676239305806,338.784244310841
738279.50123777787666767836,13.7616097496465,-12.5553147984252,338.784244310841
738279.50123786833137273788,13.7616097496465,-12.5553147984252,338.858099103773
738279.50123795866966247559,13.7616097496465,-12.5553147984252,338.759626046531
738279.50123804912436753511,13.7616097496465,-12.5553147984252,338.821171707307
738279.50123813957907259464,13.7739188818018,-12.5799330627359,338.808862575152
738279.50123823003377765417,13.7862280139571,-12.5306965341146,338.845789971618
738279.50123832048848271370,13.8354645425784,-12.3337504196295,338.710389517909
738279.50123841094318777323,14.0447197892188,-11.927549058504,338.685771253599
738279.50123850139789283276,14.1924293750827,-11.3613289793593,338.574989064201
738279.50123859173618257046,14.0939563178401,-11.312092450738,338.624225592822
738279.50123868219088762999,13.897010203355,-11.7059846797082,338.685771253599
738279.50123877264559268951,13.6631366924039,-12.3829869482508,338.784244310841
738279.50123886310029774904,13.626209295938,-12.6537878556678,338.73500778222
738279.50123895355500280857,13.7493006174912,-12.4814600054933,338.784244310841
738279.50123904400970786810,13.7739188818018,-12.4568417411827,338.821171707307
738279.50123913446441292763,13.7862280139571,-12.469150873338,338.759626046531
738279.50123922480270266533,13.7985371461124,-12.4814600054933,338.784244310841
738279.50123931525740772486,13.7985371461124,-12.4814600054933,338.722698650065
738279.50123940571211278439,13.7985371461124,-12.469150873338,338.710389517909
738279.50123949616681784391,13.7985371461124,-12.469150873338,338.771935178686
738279.50123958662152290344,13.8108462782678,-12.469150873338,338.710389517909
738279.50123967707622796297,13.8108462782678,-12.469150873338,338.73500778222
738279.50123976741451770067,13.8108462782678,-12.4568417411827,338.747316914375
738279.50123985786922276020,13.8108462782678,-12.4568417411827,338.771935178686
738279.50123994832392781973,13.8231554104231,-12.4445326090274,338.759626046531
738279.50124003877863287926,13.8231554104231,-12.4322234768721,338.759626046531
738279.50124012923333793879,13.8354645425784,-12.4076052125614,338.759626046531
738279.50124021968804299831,13.8354645425784,-12.4076052125614,338.759626046531
738279.50124031014274805784,13.8477736747337,-12.3952960804061,338.759626046531
738279.50124040048103779554,13.860082806889,-12.3706778160955,338.747316914375
738279.50124049093574285507,13.8847010711997,-12.3460595517848,338.784244310841
738279.50124058139044791460,13.8847010711997,-12.3460595517848,338.833480839462
738279.50124067184515297413,13.897010203355,-12.3214412874742,338.784244310841
738279.50124076229985803366,13.897010203355,-12.3091321553189,338.698080385754
738279.50124085275456309319,13.9093193355103,-12.2722047588529,338.784244310841
738279.50124094309285283089,13.933937599821,-12.235277362387,338.796553442997
738279.50124103354755789042,13.9462467319763,-12.2229682302316,338.821171707307
738279.50124112400226294994,13.9585558641316,-12.198349965921,338.784244310841
738279.50124121445696800947,13.9708649962869,-12.1737317016104,338.808862575152
738279.50124130491167306900,13.9708649962869,-12.161422569455,338.784244310841
738279.50124139536637812853,13.9708649962869,-12.1491134372997,338.759626046531
738279.50124148582108318806,13.9708649962869,-12.1368043051444,338.808862575152
738279.50124157615937292576,13.9585558641316,-12.161422569455,338.808862575152
738279.50124166661407798529,13.9585558641316,-12.1737317016104,338.73500778222
738279.50124175706878304482,13.933937599821,-12.2229682302316,338.771935178686
738279.50124184752348810434,13.9216284676656,-12.2722047588529,338.784244310841
738279.50124193797819316387,13.8847010711997,-12.3214412874742,338.710389517909
738279.50124202843289822340,13.860082806889,-12.3706778160955,338.574989064201
738279.50124211888760328293,13.8354645425784,-12.4076052125614,338.673462121443
738279.50124220922589302063,13.8231554104231,-12.4445326090274,338.784244310841
738279.50124229968059808016,13.7985371461124,-12.4568417411827,338.747316914375
738279.50124239013530313969,13.7862280139571,-12.4814600054933,338.821171707307
738279.50124248059000819921,13.7739188818018,-12.4937691376487,338.796553442997
738279.50124257104471325874,13.7616097496465,-12.4937691376487,338.784244310841
738279.50124266149941831827,13.7616097496465,-12.506078269804,338.771935178686
738279.50124275183770805597,13.7493006174912,-12.5183874019593,338.796553442997
738279.50124284229241311550,13.7493006174912,-12.506078269804,338.710389517909
738279.50124293274711817503,13.7493006174912,-12.5183874019593,338.636534724977
738279.50124302320182323456,13.7616097496465,-12.5183874019593,338.710389517909
738279.50124311365652829409,13.7616097496465,-12.5183874019593,338.710389517909
738279.50124320411123335361,13.7616097496465,-12.506078269804,338.698080385754
738279.50124329456593841314,13.7616097496465,-12.5183874019593,338.710389517909
738279.50124338490422815084,13.7616097496465,-12.506078269804,338.771935178686
738279.50124347535893321037,13.7616097496465,-12.5183874019593,338.685771253599
738279.50124356581363826990,13.7616097496465,-12.506078269804,338.661152989288
738279.50124365626834332943,13.7616097496465,-12.5183874019593,338.722698650065
738279.50124374672304838896,13.7739188818018,-12.5183874019593,338.722698650065
738279.50124383717775344849,13.7616097496465,-12.5183874019593,338.771935178686
738279.50124392763245850801,13.7739188818018,-12.506078269804,338.808862575152
738279.50124401797074824572,13.7739188818018,-12.5183874019593,338.808862575152
738279.50124410842545330524,13.7739188818018,-12.5183874019593,338.747316914375
738279.50124419888015836477,13.7616097496465,-12.5183874019593,338.661152989288
738279.50124428933486342430,13.7616097496465,-12.5306965341146,338.685771253599
738279.50124437978956848383,13.7616097496465,-12.5430056662699,338.722698650065
738279.50124447024427354336,13.7616097496465,-12.5430056662699,338.747316914375
738279.50124456058256328106,13.7616097496465,-12.5306965341146,338.747316914375
738279.50124465103726834059,13.7493006174912,-12.5430056662699,338.73500778222
738279.50124474149197340012,13.7493006174912,-12.5553147984252,338.771935178686
738279.50124483194667845964,13.7493006174912,-12.5553147984252,338.759626046531
738279.50124492240138351917,13.7493006174912,-12.5553147984252,338.747316914375
738279.50124501285608857870,13.7369914853359,-12.5430056662699,338.698080385754
738279.50124510331079363823,13.7493006174912,-12.5553147984252,338.796553442997
738279.50124519364908337593,13.7369914853359,-12.5553147984252,338.784244310841
738279.50124528410378843546,13.7246823531805,-12.5553147984252,338.771935178686
738279.50124537455849349499,13.7246823531805,-12.5676239305806,338.771935178686
738279.50124546501319855452,13.7246823531805,-12.5676239305806,338.796553442997
738279.50124555546790361404,13.7246823531805,-12.5676239305806,338.661152989288
738279.50124564592260867357,13.7246823531805,-12.5676239305806,338.624225592822
738279.50124573637731373310,13.7246823531805,-12.5676239305806,338.796553442997
738279.50124582671560347080,13.7246823531805,-12.5676239305806,338.722698650065
738279.50124591717030853033,13.7246823531805,-12.5676239305806,338.673462121443
738279.50124600762501358986,13.7246823531805,-12.5676239305806,338.722698650065
738279.50124609807971864939,13.7246823531805,-12.5676239305806,338.710389517909
738279.50124618853442370892,13.7246823531805,-12.5676239305806,338.710389517909
738279.50124627898912876844,13.7246823531805,-12.5676239305806,338.73500778222
738279.50124636932741850615,13.7123732210252,-12.5676239305806,338.73500778222
738279.50124645978212356567,13.7123732210252,-12.5799330627359,338.661152989288
738279.50124655023682862520,13.7246823531805,-12.5676239305806,338.747316914375
738279.50124664069153368473,13.7123732210252,-12.5676239305806,338.73500778222
738279.50124673114623874426,13.7123732210252,-12.5676239305806,338.796553442997
738279.50124682160094380379,13.7123732210252,-12.5676239305806,338.685771253599
738279.50124691205564886332,13.7246823531805,-12.5676239305806,338.747316914375
738279.50124700239393860102,13.7246823531805,-12.5553147984252,338.784244310841
738279.50124709284864366055,13.7369914853359,-12.5430056662699,338.808862575152
738279.50124718330334872007,13.7369914853359,-12.5306965341146,338.710389517909
738279.50124727375805377960,13.7616097496465,-12.5183874019593,338.759626046531
738279.50124736421275883913,13.7493006174912,-12.5183874019593,338.796553442997
738279.50124745466746389866,13.7739188818018,-12.4814600054933,338.759626046531
738279.50124754500575363636,13.7739188818018,-12.4937691376487,338.73500778222
738279.50124763546045869589,13.7616097496465,-12.5183874019593,338.784244310841
738279.50124772591516375542,13.7369914853359,-12.5306965341146,338.771935178686
738279.50124781636986881495,13.7369914853359,-12.5183874019593,338.722698650065
738279.50124790682457387447,13.7369914853359,-12.5183874019593,338.796553442997
738279.50124799727927893400,13.7369914853359,-12.5306965341146,338.784244310841
738279.50124808773398399353,13.7123732210252,-12.5676239305806,338.808862575152
738279.50124817807227373123,13.7123732210252,-12.5799330627359,338.821171707307
738279.50124826852697879076,13.7123732210252,-12.5799330627359,338.747316914375
738279.50124835898168385029,13.7123732210252,-12.5922421948912,338.759626046531
738279.50124844943638890982,13.7123732210252,-12.5799330627359,338.685771253599
738279.50124853989109396935,13.7123732210252,-12.5922421948912,338.73500778222
738279.50124863034579902887,13.7123732210252,-12.5799330627359,338.771935178686
738279.50124872080050408840,13.7000640888699,-12.5922421948912,338.796553442997
738279.50124881113879382610,13.7123732210252,-12.5799330627359,338.722698650065
738279.50124890159349888563,13.7123732210252,-12.5799330627359,338.759626046531
738279.50124899204820394516,13.7246823531805,-12.5676239305806,338.771935178686
738279.50124908250290900469,13.7123732210252,-12.5799330627359,338.599607328511
738279.50124917295761406422,13.7246823531805,-12.6045513270465,338.624225592822
738279.50124926341231912374,13.7493006174912,-12.5553147984252,338.73500778222
738279.50124935375060886145,13.8108462782678,-12.3337504196295,338.882717368084
738279.50124944420531392097,14.0077923927529,-11.9152399263487,338.821171707307
738279.50124953466001898050,14.1431928464614,-11.3736381115146,338.833480839462
738279.50124962511472404003,14.0324106570635,-11.3613289793593,338.771935178686
738279.50124971556942909956,13.7246823531805,-12.0875677765231,338.784244310841
738279.50124980602413415909,13.5400453708508,-12.6907152521338,338.870408235928
738279.50124989647883921862,13.6508275602486,-12.5676239305806,338.895026500239
738279.50124998681712895632,13.7369914853359,-12.469150873338,338.833480839462
738279.50125007727183401585,13.7493006174912,-12.469150873338,338.845789971618
738279.50125016772653907537,13.7616097496465,-12.4814600054933,338.73500778222
738279.50125025818124413490,13.7616097496465,-12.506078269804,338.759626046531
738279.50125034863594919443,13.7616097496465,-12.4937691376487,338.796553442997
738279.50125043909065425396,13.7616097496465,-12.4937691376487,338.796553442997
738279.50125052954535931349,13.7739188818018,-12.4814600054933,338.710389517909
738279.50125061988364905119,13.7739188818018,-12.4814600054933,338.784244310841
738279.50125071033835411072,13.7739188818018,-12.4937691376487,338.710389517909
738279.50125080079305917025,13.7862280139571,-12.469150873338,338.661152989288
738279.50125089124776422977,13.7862280139571,-12.469150873338,338.722698650065
738279.50125098170246928930,13.7862280139571,-12.4445326090274,338.685771253599
738279.50125107215717434883,13.7985371461124,-12.4445326090274,338.661152989288
738279.50125116249546408653,13.7985371461124,-12.4445326090274,338.685771253599
738279.50125125295016914606,13.8108462782678,-12.4199143447167,338.685771253599
738279.50125134340487420559,13.8231554104231,-12.4076052125614,338.710389517909
738279.50125143385957926512,13.8354645425784,-12.3829869482508,338.771935178686
738279.50125152431428432465,13.8354645425784,-12.3706778160955,338.698080385754
738279.50125161476898938417,13.8354645425784,-12.3706778160955,338.722698650065
738279.50125170522369444370,13.8477736747337,-12.3460595517848,338.784244310841
738279.50125179556198418140,13.8723919390444,-12.3091321553189,338.771935178686
738279.50125188601668924093,13.8847010711997,-12.2968230231635,338.73500778222
738279.50125197647139430046,13.8847010711997,-12.2722047588529,338.673462121443
738279.50125206692609935999,13.9093193355103,-12.2475864945423,338.759626046531
738279.50125215738080441952,13.9216284676656,-12.2229682302316,338.722698650065
738279.50125224783550947905,13.9462467319763,-12.1860408337657,338.771935178686
738279.50125233829021453857,13.933937599821,-12.1860408337657,338.722698650065
738279.50125242862850427628,13.9462467319763,-12.1737317016104,338.747316914375
738279.50125251908320933580,13.9585558641316,-12.161422569455,338.73500778222
738279.50125260953791439533,13.9462467319763,-12.1860408337657,338.685771253599
738279.50125269999261945486,13.9216284676656,-12.2106590980763,338.673462121443
738279.50125279044732451439,13.9093193355103,-12.235277362387,338.759626046531
738279.50125288090202957392,13.8847010711997,-12.2845138910082,338.673462121443
738279.50125297124031931162,13.8477736747337,-12.3460595517848,338.710389517909
738279.50125306169502437115,13.8231554104231,-12.3706778160955,338.698080385754
738279.50125315214972943068,13.7862280139571,-12.4322234768721,338.771935178686
738279.50125324260443449020,13.7862280139571,-12.4568417411827,338.73500778222
738279.50125333305913954973,13.7616097496465,-12.4814600054933,338.759626046531
738279.50125342351384460926,13.7493006174912,-12.4937691376487,338.759626046531
738279.50125351396854966879,13.7369914853359,-12.506078269804,338.73500778222
738279.50125360430683940649,13.7369914853359,-12.5183874019593,338.833480839462
738279.50125369476154446602,13.7369914853359,-12.5183874019593,338.808862575152
738279.50125378521624952555,13.7369914853359,-12.5306965341146,338.771935178686
738279.50125387567095458508,13.7246823531805,-12.5306965341146,338.784244310841
738279.50125396612565964460,13.7246823531805,-12.5183874019593,338.858099103773
738279.50125405658036470413,13.7369914853359,-12.5306965341146,338.821171707307
738279.50125414691865444183,13.7246823531805,-12.5183874019593,338.796553442997
738279.50125423737335950136,13.7369914853359,-12.5183874019593,338.845789971618
738279.50125432782806456089,13.7246823531805,-12.5183874019593,338.808862575152
738279.50125441828276962042,13.7369914853359,-12.5183874019593,338.784244310841
738279.50125450873747467995,13.7246823531805,-12.5183874019593,338.821171707307
738279.50125459919217973948,13.7369914853359,-12.506078269804,338.845789971618
738279.50125468964688479900,13.7369914853359,-12.506078269804,338.759626046531
738279.50125477998517453671,13.7493006174912,-12.4937691376487,338.821171707307
738279.50125487043987959623,13.7369914853359,-12.5183874019593,338.796553442997
738279.50125496089458465576,13.7493006174912,-12.506078269804,338.771935178686
738279.50125505134928971529,13.7369914853359,-12.5183874019593,338.821171707307
738279.50125514180399477482,13.7369914853359,-12.5183874019593,338.833480839462
738279.50125523225869983435,13.7246823531805,-12.5183874019593,338.833480839462
738279.50125532271340489388,13.7369914853359,-12.506078269804,338.821171707307
738279.50125541305169463158,13.7369914853359,-12.5183874019593,338.833480839462
738279.50125550350639969110,13.7246823531805,-12.5183874019593,338.710389517909
738279.50125559396110475063,13.7246823531805,-12.5306965341146,338.722698650065
738279.50125568441580981016,13.7246823531805,-12.5306965341146,338.698080385754
738279.50125577487051486969,13.7246823531805,-12.5306965341146,338.698080385754
738279.50125586532521992922,13.7246823531805,-12.5306965341146,338.710389517909
738279.50125595566350966692,13.7246823531805,-12.5183874019593,338.710389517909
738279.50125604611821472645,13.7246823531805,-12.5306965341146,338.771935178686
738279.50125613657291978598,13.7123732210252,-12.5306965341146,338.710389517909
738279.50125622702762484550,13.7246823531805,-12.5430056662699,338.636534724977
738279.50125631748232990503,13.7246823531805,-12.5306965341146,338.73500778222
738279.50125640793703496456,13.7123732210252,-12.5430056662699,338.759626046531
738279.50125649839174002409,13.7123732210252,-12.5306965341146,338.710389517909
738279.50125658873002976179,13.7123732210252,-12.5306965341146,338.73500778222
738279.50125667918473482132,13.7123732210252,-12.5430056662699,338.722698650065
738279.50125676963943988085,13.7123732210252,-12.5430056662699,338.73500778222
738279.50125686009414494038,13.7123732210252,-12.5306965341146,338.722698650065
738279.50125695054884999990,13.7123732210252,-12.5430056662699,338.73500778222
738279.50125704100355505943,13.7123732210252,-12.5430056662699,338.784244310841
738279.50125713145826011896,13.7123732210252,-12.5430056662699,338.784244310841
738279.50125722179654985666,13.7123732210252,-12.5430056662699,338.710389517909
738279.50125731225125491619,13.7123732210252,-12.5306965341146,338.759626046531
738279.50125740270595997572,13.7123732210252,-12.5430056662699,338.771935178686
738279.50125749316066503525,13.7123732210252,-12.5553147984252,338.821171707307
738279.50125758361537009478,13.7000640888699,-12.5553147984252,338.784244310841
738279.50125767407007515430,13.7123732210252,-12.5430056662699,338.784244310841
738279.50125776440836489201,13.7000640888699,-12.5430056662699,338.747316914375
738279.50125785486306995153,13.7123732210252,-12.5430056662699,338.821171707307
738279.50125794531777501106,13.7123732210252,-12.5430056662699,338.845789971618
738279.50125803577248007059,13.7000640888699,-12.5430056662699,338.833480839462
738279.50125812622718513012,13.7123732210252,-12.5430056662699,338.858099103773
738279.50125821668189018965,13.7000640888699,-12.5430056662699,338.833480839462
738279.50125830713659524918,13.7000640888699,-12.5430056662699,338.833480839462
738279.50125839747488498688,13.7000640888699,-12.5430056662699,338.821171707307
738279.50125848792959004641,13.7000640888699,-12.5430056662699,338.833480839462
738279.50125857838429510593,13.7000640888699,-12.5430056662699,338.833480839462
738279.50125866883900016546,13.7000640888699,-12.5430056662699,338.784244310841
738279.50125875929370522499,13.7000640888699,-12.5430056662699,338.845789971618
738279.50125884974841028452,13.7123732210252,-12.5430056662699,338.821171707307
738279.50125894020311534405,13.7000640888699,-12.5553147984252,338.845789971618
738279.50125903054140508175,13.7000640888699,-12.5430056662699,338.821171707307
738279.50125912099611014128,13.7000640888699,-12.5430056662699,338.808862575152
738279.50125921145081520081,13.7123732210252,-12.5430056662699,338.821171707307
738279.50125930190552026033,13.7123732210252,-12.5306965341146,338.771935178686
738279.50125939236022531986,13.7246823531805,-12.5183874019593,338.845789971618
738279.50125948281493037939,13.7246823531805,-12.5183874019593,338.858099103773
738279.50125957315322011709,13.7369914853359,-12.4937691376487,338.747316914375
738279.50125966360792517662,13.7369914853359,-12.4937691376487,338.771935178686
738279.50125975406263023615,13.7369914853359,-12.4814600054933,338.636534724977
738279.50125984451733529568,13.7616097496465,-12.4568417411827,338.673462121443
738279.50125993497204035521,13.7493006174912,-12.4814600054933,338.771935178686
738279.50126002542674541473,13.7369914853359,-12.4937691376487,338.698080385754
738279.50126011588145047426,13.7246823531805,-12.506078269804,338.784244310841
738279.50126020621974021196,13.7123732210252,-12.4937691376487,338.796553442997
738279.50126029667444527149,13.7123732210252,-12.5183874019593,338.73500778222
738279.50126038712915033102,13.7000640888699,-12.5306965341146,338.759626046531
738279.50126047758385539055,13.6877549567146,-12.5553147984252,338.747316914375
738279.50126056803856045008,13.6877549567146,-12.5553147984252,338.710389517909
738279.50126065849326550961,13.6754458245593,-12.5676239305806,338.710389517909
738279.50126074883155524731,13.6877549567146,-12.5676239305806,338.698080385754
738279.50126083928626030684,13.6754458245593,-12.5676239305806,338.722698650065
738279.50126092974096536636,13.6877549567146,-12.5676239305806,338.722698650065
738279.50126102019567042589,13.6754458245593,-12.5676239305806,338.722698650065
738279.50126111065037548542,13.6877549567146,-12.5676239305806,338.808862575152
738279.50126120110508054495,13.6877549567146,-12.5676239305806,338.808862575152
738279.50126129155978560448,13.6877549567146,-12.5676239305806,338.796553442997
738279.50126138189807534218,13.6877549567146,-12.5676239305806,338.784244310841
738279.50126147235278040171,13.6877549567146,-12.5799330627359,338.833480839462
738279.50126156280748546124,13.7000640888699,-12.5922421948912,338.821171707307
738279.50126165326219052076,13.7123732210252,-12.5553147984252,338.710389517909
738279.50126174371689558029,13.7739188818018,-12.3460595517848,338.821171707307
738279.50126183417160063982,13.9585558641316,-11.9398581906593,338.808862575152
738279.50126192462630569935,14.1062654499954,-11.3982563758253,338.845789971618
738279.50126201496459543705,13.9708649962869,-11.3367107150487,338.858099103773
738279.50126210541930049658,13.7000640888699,-12.0383312479019,338.821171707307
738279.50126219587400555611,13.5154271065401,-12.6414787235125,338.759626046531
738279.50126228632871061563,13.6139001637827,-12.5553147984252,338.895026500239
738279.50126237678341567516,13.7000640888699,-12.469150873338,338.870408235928
738279.50126246723812073469,13.7246823531805,-12.469150873338,338.858099103773
738279.50126255757641047239,13.7246823531805,-12.4937691376487,338.784244310841
738279.50126264803111553192,13.7246823531805,-12.506078269804,338.858099103773
738279.50126273848582059145,13.7246823531805,-12.506078269804,338.808862575152
738279.50126282894052565098,13.7246823531805,-12.506078269804,338.722698650065
738279.50126291939523071051,13.7369914853359,-12.4814600054933,338.808862575152
738279.50126300984993577003,13.7369914853359,-12.4814600054933,338.845789971618
738279.50126310030464082956,13.7369914853359,-12.4814600054933,338.73500778222
738279.50126319064293056726,13.7493006174912,-12.469150873338,338.587298196356
738279.50126328109763562679,13.7493006174912,-12.469150873338,338.722698650065
738279.50126337155234068632,13.7493006174912,-12.4568417411827,338.796553442997
738279.50126346200704574585,13.7616097496465,-12.4568417411827,338.833480839462
738279.50126355246175080538,13.7739188818018,-12.4445326090274,338.747316914375
738279.50126364291645586491,13.7739188818018,-12.4322234768721,338.821171707307
738279.50126373337116092443,13.7739188818018,-12.4322234768721,338.833480839462
738279.50126382370945066214,13.7862280139571,-12.4076052125614,338.710389517909
738279.50126391416415572166,13.7985371461124,-12.3952960804061,338.771935178686
738279.50126400461886078119,13.8108462782678,-12.3706778160955,338.673462121443
738279.50126409507356584072,13.8231554104231,-12.3583686839401,338.698080385754
738279.50126418552827090025,13.8354645425784,-12.3337504196295,338.710389517909
738279.50126427598297595978,13.8477736747337,-12.2968230231635,338.710389517909
738279.50126436632126569748,13.860082806889,-12.2968230231635,338.698080385754
738279.50126445677597075701,13.8723919390444,-12.2598956266976,338.722698650065
738279.50126454723067581654,13.8847010711997,-12.2229682302316,338.771935178686
738279.50126463768538087606,13.897010203355,-12.2106590980763,338.685771253599
738279.50126472814008593559,13.9093193355103,-12.2106590980763,338.808862575152
738279.50126481859479099512,13.9093193355103,-12.198349965921,338.796553442997
738279.50126490904949605465,13.897010203355,-12.198349965921,338.722698650065
738279.50126499938778579235,13.9093193355103,-12.198349965921,338.661152989288
738279.50126508984249085188,13.8847010711997,-12.235277362387,338.698080385754
738279.50126518029719591141,13.860082806889,-12.2722047588529,338.698080385754
738279.50126527075190097094,13.8354645425784,-12.3214412874742,338.73500778222
738279.50126536120660603046,13.8108462782678,-12.3583686839401,338.722698650065
738279.50126545166131108999,13.7985371461124,-12.3829869482508,338.722698650065
738279.50126554211601614952,13.7739188818018,-12.4199143447167,338.759626046531
738279.50126563245430588722,13.7616097496465,-12.4568417411827,338.73500778222
738279.50126572290901094675,13.7369914853359,-12.4814600054933,338.73500778222
738279.50126581336371600628,13.7246823531805,-12.506078269804,338.747316914375
738279.50126590381842106581,13.7246823531805,-12.506078269804,338.784244310841
738279.50126599427312612534,13.7123732210252,-12.506078269804,338.784244310841
738279.50126608472783118486,13.7123732210252,-12.5183874019593,338.784244310841
738279.50126617506612092257,13.7123732210252,-12.5183874019593,338.808862575152
738279.50126626552082598209,13.7000640888699,-12.5306965341146,338.833480839462
738279.50126635597553104162,13.7000640888699,-12.5306965341146,338.845789971618
738279.50126644643023610115,13.7000640888699,-12.5183874019593,338.747316914375
738279.50126653688494116068,13.7123732210252,-12.5306965341146,338.796553442997
738279.50126662733964622021,13.7123732210252,-12.5306965341146,338.833480839462
738279.50126671779435127974,13.7123732210252,-12.506078269804,338.562679932045
738279.50126680813264101744,13.7123732210252,-12.5306965341146,338.73500778222
738279.50126689858734607697,13.7246823531805,-12.5183874019593,338.821171707307
738279.50126698904205113649,13.7123732210252,-12.5306965341146,338.771935178686
738279.50126707949675619602,13.7123732210252,-12.5183874019593,338.784244310841
738279.50126716995146125555,13.7246823531805,-12.5183874019593,338.833480839462
738279.50126726040616631508,13.7246823531805,-12.5306965341146,338.796553442997
738279.50126735074445605278,13.7123732210252,-12.5306965341146,338.722698650065
738279.50126744119916111231,13.7123732210252,-12.5183874019593,338.821171707307
738279.50126753165386617184,13.7123732210252,-12.5306965341146,338.796553442997
738279.50126762210857123137,13.7123732210252,-12.5306965341146,338.747316914375
738279.50126771256327629089,13.7123732210252,-12.5430056662699,338.747316914375
738279.50126780301798135042,13.7123732210252,-12.5430056662699,338.808862575152
738279.50126789347268640995,13.7123732210252,-12.5306965341146,338.833480839462
738279.50126798381097614765,13.7000640888699,-12.5430056662699,338.73500778222
738279.50126807426568120718,13.7000640888699,-12.5430056662699,338.747316914375
738279.50126816472038626671,13.6877549567146,-12.5553147984252,338.796553442997
738279.50126825517509132624,13.7000640888699,-12.5553147984252,338.698080385754
738279.50126834562979638577,13.6877549567146,-12.5553147984252,338.710389517909
738279.50126843608450144529,13.7000640888699,-12.5553147984252,338.710389517909
738279.50126852653920650482,13.6877549567146,-12.5553147984252,338.796553442997
738279.50126861687749624252,13.6877549567146,-12.5553147984252,338.747316914375
738279.50126870733220130205,13.6877549567146,-12.5676239305806,338.771935178686
738279.50126879778690636158,13.6877549567146,-12.5553147984252,338.698080385754
738279.50126888824161142111,13.6877549567146,-12.5553147984252,338.73500778222
738279.50126897869631648064,13.6877549567146,-12.5553147984252,338.73500778222
738279.50126906915102154016,13.6754458245593,-12.5676239305806,338.73500778222
738279.50126915948931127787,13.6754458245593,-12.5799330627359,338.771935178686
738279.50126924994401633739,13.6877549567146,-12.5676239305806,338.73500778222
738279.50126934039872139692,13.6754458245593,-12.5799330627359,338.747316914375
738279.50126943085342645645,13.6877549567146,-12.5799330627359,338.771935178686
738279.50126952130813151598,13.6754458245593,-12.5676239305806,338.759626046531
738279.50126961176283657551,13.6877549567146,-12.5799330627359,338.759626046531
738279.50126970221754163504,13.6877549567146,-12.5922421948912,338.796553442997
738279.50126979255583137274,13.6754458245593,-12.5799330627359,338.73500778222
738279.50126988301053643227,13.6754458245593,-12.5799330627359,338.747316914375
738279.50126997346524149179,13.6754458245593,-12.5676239305806,338.759626046531
738279.50127006391994655132,13.6754458245593,-12.5799330627359,338.808862575152
738279.50127015437465161085,13.6631366924039,-12.5799330627359,338.771935178686
738279.50127024482935667038,13.6631366924039,-12.5922421948912,338.587298196356
738279.50127033528406172991,13.6631366924039,-12.5799330627359,338.648843857133
738279.50127042562235146761,13.6754458245593,-12.5922421948912,338.722698650065
738279.50127051607705652714,13.6631366924039,-12.5799330627359,338.771935178686
738279.50127060653176158667,13.6631366924039,-12.6045513270465,338.808862575152
738279.50127069698646664619,13.6508275602486,-12.6045513270465,338.722698650065
738279.50127078744117170572,13.6631366924039,-12.5922421948912,338.771935178686
738279.50127087789587676525,13.6508275602486,-12.6045513270465,338.833480839462
738279.50127096823416650295,13.6631366924039,-12.5922421948912,338.833480839462
738279.50127105868887156248,13.6508275602486,-12.5922421948912,338.784244310841
738279.50127114914357662201,13.6631366924039,-12.5922421948912,338.796553442997
738279.50127123959828168154,13.6508275602486,-12.5922421948912,338.833480839462
738279.50127133005298674107,13.6508275602486,-12.6045513270465,338.808862575152
738279.50127142050769180059,13.6508275602486,-12.6045513270465,338.771935178686
738279.50127151096239686012,13.6508275602486,-12.6045513270465,338.821171707307
738279.50127160130068659782,13.6508275602486,-12.6045513270465,338.858099103773
738279.50127169175539165735,13.6508275602486,-12.6045513270465,338.710389517909
738279.50127178221009671688,13.6631366924039,-12.6045513270465,338.771935178686
738279.50127187266480177641,13.6631366924039,-12.6168604592018,338.722698650065
738279.50127196311950683594,13.6631366924039,-12.6045513270465,338.722698650065
738279.50127205357421189547,13.6508275602486,-12.6045513270465,338.784244310841
738279.50127214402891695499,13.6508275602486,-12.6045513270465,338.759626046531
738279.50127223436720669270,13.6508275602486,-12.6045513270465,338.784244310841
738279.50127232482191175222,13.6631366924039,-12.5922421948912,338.784244310841
738279.50127241527661681175,13.6631366924039,-12.5922421948912,338.796553442997
738279.50127250573132187128,13.6877549567146,-12.5676239305806,338.73500778222
738279.50127259618602693081,13.6877549567146,-12.5553147984252,338.759626046531
738279.50127268664073199034,13.6877549567146,-12.5553147984252,338.784244310841
738279.50127277697902172804,13.7000640888699,-12.5306965341146,338.784244310841
738279.50127286743372678757,13.7246823531805,-12.5306965341146,338.771935178686
738279.50127295788843184710,13.7000640888699,-12.5430056662699,338.759626046531
738279.50127304834313690662,13.6877549567146,-12.5553147984252,338.698080385754
738279.50127313879784196615,13.6877549567146,-12.5553147984252,338.759626046531
738279.50127322925254702568,13.6754458245593,-12.5676239305806,338.722698650065
738279.50127331970725208521,13.6754458245593,-12.5676239305806,338.771935178686
738279.50127341004554182291,13.6631366924039,-12.5799330627359,338.722698650065
738279.50127350050024688244,13.6631366924039,-12.5922421948912,338.722698650065
738279.50127359095495194197,13.6508275602486,-12.6168604592018,338.771935178686
738279.50127368140965700150,13.6385184280933,-12.6168604592018,338.845789971618
738279.50127377186436206102,13.626209295938,-12.6168604592018,338.648843857133
738279.50127386231906712055,13.6385184280933,-12.6414787235125,338.587298196356
738279.50127395265735685825,13.6385184280933,-12.6291695913572,338.710389517909
738279.50127404311206191778,13.6508275602486,-12.6168604592018,338.722698650065
738279.50127413356676697731,13.6508275602486,-12.6291695913572,338.747316914375
738279.50127422402147203684,13.6508275602486,-12.6168604592018,338.73500778222
738279.50127431447617709637,13.6508275602486,-12.6168604592018,338.747316914375
738279.50127440493088215590,13.6508275602486,-12.6168604592018,338.784244310841
738279.50127449538558721542,13.6508275602486,-12.6168604592018,338.784244310841
738279.50127458572387695312,13.6508275602486,-12.6537878556678,338.771935178686
738279.50127467617858201265,13.6754458245593,-12.5799330627359,338.771935178686
738279.50127476663328707218,13.7369914853359,-12.3460595517848,338.870408235928
738279.50127485708799213171,13.9708649962869,-11.8536942655721,338.821171707307
738279.50127494754269719124,14.0447197892188,-11.5705842259997,338.833480839462
738279.50127503799740225077,14.0324106570635,-11.2382376578061,338.808862575152
738279.50127512845210731030,13.7246823531805,-11.8783125298827,338.747316914375
738279.50127521879039704800,13.5154271065401,-12.5553147984252,338.833480839462
738279.50127530924510210752,13.5400453708508,-12.6784061199784,338.882717368084
738279.50127539969980716705,13.6508275602486,-12.5306965341146,338.821171707307
738279.50127549015451222658,13.6754458245593,-12.5306965341146,338.858099103773
738279.50127558060921728611,13.7000640888699,-12.5306965341146,338.808862575152
738279.50127567106392234564,13.6877549567146,-12.5430056662699,338.796553442997
738279.50127576140221208334,13.6877549567146,-12.5553147984252,338.784244310841
738279.50127585185691714287,13.6877549567146,-12.5553147984252,338.845789971618
738279.50127594231162220240,13.7000640888699,-12.5553147984252,338.808862575152
738279.50127603276632726192,13.7123732210252,-12.5430056662699,338.722698650065
738279.50127612322103232145,13.7123732210252,-12.5306965341146,338.821171707307
738279.50127621367573738098,13.7123732210252,-12.5183874019593,338.796553442997
738279.50127630413044244051,13.7123732210252,-12.5183874019593,338.698080385754
738279.50127639446873217821,13.7123732210252,-12.5183874019593,338.661152989288
738279.50127648492343723774,13.7246823531805,-12.506078269804,338.784244310841
738279.50127657537814229727,13.7493006174912,-12.469150873338,338.784244310841
738279.50127666583284735680,13.7493006174912,-12.469150873338,338.73500778222
738279.50127675628755241632,13.7739188818018,-12.4322234768721,338.624225592822
738279.50127684674225747585,13.7616097496465,-12.4445326090274,338.73500778222
738279.50127693719696253538,13.7739188818018,-12.4199143447167,338.759626046531
738279.50127702753525227308,13.7862280139571,-12.4076052125614,338.796553442997
738279.50127711798995733261,13.7862280139571,-12.3829869482508,338.710389517909
738279.50127720844466239214,13.8231554104231,-12.3460595517848,338.747316914375
738279.50127729889936745167,13.8354645425784,-12.3337504196295,338.685771253599
738279.50127738935407251120,13.8477736747337,-12.3091321553189,338.624225592822
738279.50127747980877757072,13.8477736747337,-12.2845138910082,338.698080385754
738279.50127757014706730843,13.8723919390444,-12.2475864945423,338.698080385754
738279.50127766060177236795,13.8847010711997,-12.2229682302316,338.759626046531
738279.50127775105647742748,13.9093193355103,-12.198349965921,338.685771253599
738279.50127784151118248701,13.897010203355,-12.1860408337657,338.73500778222
738279.50127793196588754654,13.9093193355103,-12.1860408337657,338.73500778222
738279.50127802242059260607,13.897010203355,-12.198349965921,338.796553442997
738279.50127811287529766560,13.8847010711997,-12.235277362387,338.759626046531
738279.50127820321358740330,13.8723919390444,-12.2722047588529,338.673462121443
738279.50127829366829246283,13.860082806889,-12.2968230231635,338.698080385754
738279.50127838412299752235,13.7985371461124,-12.3829869482508,338.673462121443
738279.50127847457770258188,13.7862280139571,-12.4199143447167,338.685771253599
738279.50127856503240764141,13.7862280139571,-12.4445326090274,338.698080385754
738279.50127865548711270094,13.7739188818018,-12.469150873338,338.698080385754
738279.50127874594181776047,13.7493006174912,-12.4937691376487,338.698080385754
738279.50127883628010749817,13.7493006174912,-12.506078269804,338.73500778222
738279.50127892673481255770,13.7369914853359,-12.5183874019593,338.73500778222
738279.50127901718951761723,13.7246823531805,-12.5306965341146,338.796553442997
738279.50127910764422267675,13.7246823531805,-12.5430056662699,338.796553442997
738279.50127919809892773628,13.7246823531805,-12.5430056662699,338.833480839462
738279.50127928855363279581,13.7369914853359,-12.5306965341146,338.747316914375
738279.50127937889192253351,13.7246823531805,-12.5430056662699,338.808862575152
738279.50127946934662759304,13.7493006174912,-12.5183874019593,338.821171707307
738279.50127955980133265257,13.7369914853359,-12.5183874019593,338.771935178686
738279.50127965025603771210,13.7369914853359,-12.5183874019593,338.784244310841
738279.50127974071074277163,13.7493006174912,-12.5183874019593,338.808862575152
738279.50127983116544783115,13.7493006174912,-12.5183874019593,338.808862575152
738279.50127992162015289068,13.7616097496465,-12.5183874019593,338.73500778222
738279.50128001195844262838,13.7616097496465,-12.506078269804,338.808862575152
738279.50128010241314768791,13.7616097496465,-12.506078269804,338.821171707307
738279.50128019286785274744,13.7616097496465,-12.506078269804,338.747316914375
738279.50128028332255780697,13.7616097496465,-12.506078269804,338.808862575152
738279.50128037377726286650,13.7493006174912,-12.5183874019593,338.808862575152
738279.50128046423196792603,13.7493006174912,-12.5183874019593,338.722698650065
738279.50128055457025766373,13.7616097496465,-12.5183874019593,338.759626046531
738279.50128064502496272326,13.7616097496465,-12.5183874019593,338.796553442997
738279.50128073547966778278,13.7369914853359,-12.5306965341146,338.821171707307
738279.50128082593437284231,13.7616097496465,-12.5306965341146,338.722698650065
738279.50128091638907790184,13.7493006174912,-12.5430056662699,338.648843857133
738279.50128100684378296137,13.7616097496465,-12.5306965341146,338.821171707307
738279.50128109729848802090,13.7369914853359,-12.5306965341146,338.833480839462
738279.50128118763677775860,13.7493006174912,-12.5430056662699,338.747316914375
738279.50128127809148281813,13.7616097496465,-12.5306965341146,338.673462121443
738279.50128136854618787766,13.7616097496465,-12.5183874019593,338.673462121443
738279.50128145900089293718,13.7493006174912,-12.5553147984252,338.698080385754
738279.50128154945559799671,13.7369914853359,-12.5553147984252,338.661152989288
738279.50128163991030305624,13.7369914853359,-12.5553147984252,338.722698650065
738279.50128173036500811577,13.7369914853359,-12.5553147984252,338.771935178686
738279.50128182070329785347,13.7369914853359,-12.5553147984252,338.771935178686
738279.50128191115800291300,13.7616097496465,-12.5306965341146,338.698080385754
738279.50128200161270797253,13.7369914853359,-12.5553147984252,338.771935178686
738279.50128209206741303205,13.7369914853359,-12.5553147984252,338.808862575152
738279.50128218252211809158,13.7493006174912,-12.5430056662699,338.722698650065
738279.50128227297682315111,13.7493006174912,-12.5430056662699,338.784244310841
738279.50128236331511288881,13.7369914853359,-12.5553147984252,338.771935178686
738279.50128245376981794834,13.7369914853359,-12.5553147984252,338.821171707307
738279.50128254422452300787,13.7493006174912,-12.5676239305806,338.710389517909
738279.50128263467922806740,13.7493006174912,-12.5430056662699,338.796553442997
738279.50128272513393312693,13.7493006174912,-12.5430056662699,338.722698650065
738279.50128281558863818645,13.7493006174912,-12.5553147984252,338.673462121443
738279.50128290604334324598,13.7493006174912,-12.5553147984252,338.636534724977
738279.50128299638163298368,13.7493006174912,-12.5430056662699,338.698080385754
738279.50128308683633804321,13.7616097496465,-12.5553147984252,338.698080385754
738279.50128317729104310274,13.7493006174912,-12.5553147984252,338.73500778222
738279.50128326774574816227,13.7616097496465,-12.5430056662699,338.710389517909
738279.50128335820045322180,13.7493006174912,-12.5553147984252,338.722698650065
738279.50128344865515828133,13.7616097496465,-12.5306965341146,338.73500778222
738279.50128353910986334085,13.7616097496465,-12.5553147984252,338.771935178686
738279.50128362944815307856,13.7493006174912,-12.5553147984252,338.771935178686
738279.50128371990285813808,13.7616097496465,-12.5430056662699,338.833480839462
738279.50128381035756319761,13.7369914853359,-12.5430056662699,338.784244310841
738279.50128390081226825714,13.7493006174912,-12.5553147984252,338.784244310841
738279.50128399126697331667,13.7369914853359,-12.5553147984252,338.808862575152
738279.50128408172167837620,13.7369914853359,-12.5553147984252,338.808862575152
738279.50128417205996811390,13.7369914853359,-12.5676239305806,338.771935178686
738279.50128426251467317343,13.7369914853359,-12.5553147984252,338.796553442997
738279.50128435296937823296,13.7369914853359,-12.5553147984252,338.587298196356
738279.50128444342408329248,13.7616097496465,-12.5306965341146,338.648843857133
738279.50128453387878835201,13.7616097496465,-12.5306965341146,338.784244310841
738279.50128462433349341154,13.7616097496465,-12.5306965341146,338.833480839462
738279.50128471478819847107,13.7616097496465,-12.5306965341146,338.833480839462
738279.50128480512648820877,13.7616097496465,-12.5183874019593,338.73500778222
738279.50128489558119326830,13.7616097496465,-12.506078269804,338.685771253599
738279.50128498603589832783,13.7862280139571,-12.4814600054933,338.698080385754
738279.50128507649060338736,13.7739188818018,-12.506078269804,338.73500778222
738279.50128516694530844688,13.7493006174912,-12.5183874019593,338.747316914375
738279.50128525740001350641,13.7493006174912,-12.5306965341146,338.73500778222
738279.50128534785471856594,13.7369914853359,-12.5183874019593,338.796553442997
738279.50128543819300830364,13.7493006174912,-12.5183874019593,338.759626046531
738279.50128552864771336317,13.7123732210252,-12.5553147984252,338.771935178686
738279.50128561910241842270,13.7123732210252,-12.5799330627359,338.808862575152
738279.50128570955712348223,13.7123732210252,-12.5922421948912,338.73500778222
738279.50128580001182854176,13.7000640888699,-12.6045513270465,338.747316914375
738279.50128589046653360128,13.7000640888699,-12.6168604592018,338.796553442997
738279.50128598080482333899,13.6877549567146,-12.6168604592018,338.771935178686
738279.50128607125952839851,13.7000640888699,-12.6045513270465,338.685771253599
738279.50128616171423345804,13.7000640888699,-12.6045513270465,338.73500778222
738279.50128625216893851757,13.7000640888699,-12.6045513270465,338.759626046531
738279.50128634262364357710,13.7123732210252,-12.5922421948912,338.759626046531
738279.50128643307834863663,13.7123732210252,-12.5922421948912,338.808862575152
738279.50128652353305369616,13.7000640888699,-12.6045513270465,338.685771253599
738279.50128661387134343386,13.7123732210252,-12.6045513270465,338.710389517909
738279.50128670432604849339,13.7123732210252,-12.6414787235125,338.722698650065
738279.50128679478075355291,13.7246823531805,-12.6168604592018,338.722698650065
738279.50128688523545861244,13.7739188818018,-12.4199143447167,338.833480839462
738279.50128697569016367197,13.9585558641316,-12.0137129835912,338.808862575152
738279.50128706614486873150,14.1185745821507,-11.4474929044465,338.759626046531
738279.50128715648315846920,14.0324106570635,-11.3244015828934,338.784244310841
738279.50128724693786352873,13.7369914853359,-12.0260221157465,338.698080385754
738279.50128733739256858826,13.5523545030061,-12.6414787235125,338.759626046531
738279.50128742784727364779,13.626209295938,-12.6291695913572,338.882717368084
738279.50128751830197870731,13.7246823531805,-12.506078269804,338.833480839462
738279.50128760875668376684,13.7493006174912,-12.506078269804,338.759626046531
738279.50128769921138882637,13.7493006174912,-12.5183874019593,338.710389517909
738279.50128778954967856407,13.7369914853359,-12.5430056662699,338.685771253599
738279.50128788000438362360,13.7493006174912,-12.5430056662699,338.464206874803
738279.50128797045908868313,13.7493006174912,-12.5430056662699,338.611916460667
738279.50128806091379374266,13.7493006174912,-12.5430056662699,338.771935178686
738279.50128815136849880219,13.7616097496465,-12.5306965341146,338.747316914375
738279.50128824182320386171,13.7616097496465,-12.5306965341146,338.759626046531
738279.50128833227790892124,13.7616097496465,-12.5183874019593,338.771935178686
738279.50128842261619865894,13.7739188818018,-12.506078269804,338.784244310841
738279.50128851307090371847,13.7739188818018,-12.506078269804,338.771935178686
738279.50128860352560877800,13.7739188818018,-12.506078269804,338.73500778222
738279.50128869398031383753,13.7739188818018,-12.4937691376487,338.784244310841
738279.50128878443501889706,13.7862280139571,-12.4814600054933,338.771935178686
738279.50128887488972395658,13.7862280139571,-12.469150873338,338.747316914375
738279.50128896522801369429,13.7985371461124,-12.4568417411827,338.771935178686
738279.50128905568271875381,13.7985371461124,-12.4445326090274,338.673462121443
738279.50128914613742381334,13.8231554104231,-12.4199143447167,338.698080385754
738279.50128923659212887287,13.8231554104231,-12.4076052125614,338.685771253599
738279.50128932704683393240,13.8477736747337,-12.3829869482508,338.722698650065
738279.50128941750153899193,13.8477736747337,-12.3583686839401,338.685771253599
738279.50128950795624405146,13.8723919390444,-12.3214412874742,338.685771253599
738279.50128959829453378916,13.897010203355,-12.2845138910082,338.710389517909
738279.50128968874923884869,13.9093193355103,-12.2722047588529,338.73500778222
738279.50128977920394390821,13.9093193355103,-12.2598956266976,338.759626046531
738279.50128986965864896774,13.9216284676656,-12.235277362387,338.673462121443
738279.50128996011335402727,13.9216284676656,-12.235277362387,338.710389517909
738279.50129005056805908680,13.9216284676656,-12.235277362387,338.698080385754
738279.50129014102276414633,13.9093193355103,-12.2475864945423,338.685771253599
738279.50129023136105388403,13.9093193355103,-12.2598956266976,338.661152989288
738279.50129032181575894356,13.8847010711997,-12.3091321553189,338.685771253599
738279.50129041227046400309,13.860082806889,-12.3460595517848,338.685771253599
738279.50129050272516906261,13.8354645425784,-12.3829869482508,338.685771253599
738279.50129059317987412214,13.7985371461124,-12.4445326090274,338.771935178686
738279.50129068363457918167,13.7862280139571,-12.469150873338,338.661152989288
738279.50129077397286891937,13.7616097496465,-12.506078269804,338.710389517909
738279.50129086442757397890,13.7493006174912,-12.5306965341146,338.698080385754
738279.50129095488227903843,13.7369914853359,-12.5430056662699,338.722698650065
738279.50129104533698409796,13.7369914853359,-12.5553147984252,338.722698650065
738279.50129113579168915749,13.7123732210252,-12.5799330627359,338.747316914375
738279.50129122624639421701,13.7246823531805,-12.5553147984252,338.747316914375
738279.50129131670109927654,13.7123732210252,-12.5799330627359,338.759626046531
738279.50129140703938901424,13.7123732210252,-12.5922421948912,338.562679932045
738279.50129149749409407377,13.7123732210252,-12.5922421948912,338.648843857133
738279.50129158794879913330,13.7123732210252,-12.5799330627359,338.796553442997
738279.50129167840350419283,13.7123732210252,-12.5799330627359,338.698080385754
738279.50129176885820925236,13.7123732210252,-12.5799330627359,338.747316914375
738279.50129185931291431189,13.7123732210252,-12.5799330627359,338.771935178686
738279.50129194976761937141,13.7123732210252,-12.5799330627359,338.821171707307
738279.50129204010590910912,13.7123732210252,-12.5799330627359,338.808862575152
738279.50129213056061416864,13.7123732210252,-12.5799330627359,338.759626046531
738279.50129222101531922817,13.7123732210252,-12.5799330627359,338.796553442997
738279.50129231147002428770,13.7123732210252,-12.5799330627359,338.759626046531
738279.50129240192472934723,13.7123732210252,-12.5799330627359,338.784244310841
738279.50129249237943440676,13.7123732210252,-12.5799330627359,338.73500778222
738279.50129258271772414446,13.7123732210252,-12.5676239305806,338.759626046531
738279.50129267317242920399,13.7123732210252,-12.5922421948912,338.673462121443
738279.50129276362713426352,13.7246823531805,-12.5799330627359,338.636534724977
738279.50129285408183932304,13.7123732210252,-12.5799330627359,338.685771253599
738279.50129294453654438257,13.7000640888699,-12.5922421948912,338.673462121443
738279.50129303499124944210,13.7123732210252,-12.5922421948912,338.648843857133
738279.50129312544595450163,13.7000640888699,-12.5922421948912,338.747316914375
738279.50129321578424423933,13.7000640888699,-12.6045513270465,338.759626046531
738279.50129330623894929886,13.7000640888699,-12.6045513270465,338.673462121443
738279.50129339669365435839,13.7000640888699,-12.5922421948912,338.710389517909
738279.50129348714835941792,13.7000640888699,-12.6045513270465,338.759626046531
738279.50129357760306447744,13.6877549567146,-12.6045513270465,338.698080385754
738279.50129366805776953697,13.6877549567146,-12.6168604592018,338.710389517909
738279.50129375839605927467,13.7000640888699,-12.6045513270465,338.73500778222
738279.50129384885076433420,13.7000640888699,-12.6168604592018,338.73500778222
738279.50129393930546939373,13.6877549567146,-12.6045513270465,338.784244310841
738279.50129402976017445326,13.6877549567146,-12.6045513270465,338.771935178686
738279.50129412021487951279,13.6877549567146,-12.6045513270465,338.685771253599
738279.50129421066958457232,13.6877549567146,-12.6168604592018,338.698080385754
738279.50129430112428963184,13.6877549567146,-12.6168604592018,338.73500778222
738279.50129439146257936954,13.6877549567146,-12.6045513270465,338.759626046531
738279.50129448191728442907,13.6877549567146,-12.6045513270465,338.698080385754
738279.50129457237198948860,13.6877549567146,-12.6168604592018,338.747316914375
738279.50129466282669454813,13.6877549567146,-12.6168604592018,338.771935178686
738279.50129475328139960766,13.6877549567146,-12.6168604592018,338.759626046531
738279.50129484373610466719,13.6877549567146,-12.6168604592018,338.784244310841
738279.50129493419080972672,13.6877549567146,-12.6045513270465,338.648843857133
738279.50129502452909946442,13.6877549567146,-12.6168604592018,338.562679932045
738279.50129511498380452394,13.6877549567146,-12.6291695913572,338.771935178686
738279.50129520543850958347,13.6877549567146,-12.6168604592018,338.73500778222
738279.50129529589321464300,13.6877549567146,-12.6168604592018,338.722698650065
738279.50129538634791970253,13.6877549567146,-12.6168604592018,338.747316914375
738279.50129547680262476206,13.6877549567146,-12.6168604592018,338.722698650065
738279.50129556714091449976,13.6877549567146,-12.6168604592018,338.759626046531
738279.50129565759561955929,13.6877549567146,-12.6045513270465,338.796553442997
738279.50129574805032461882,13.6877549567146,-12.6168604592018,338.808862575152
738279.50129583850502967834,13.6877549567146,-12.6168604592018,338.796553442997
738279.50129592895973473787,13.6877549567146,-12.6168604592018,338.771935178686
738279.50129601941443979740,13.6877549567146,-12.6168604592018,338.747316914375
738279.50129610986914485693,13.6877549567146,-12.6168604592018,338.796553442997
738279.50129620020743459463,13.6877549567146,-12.6168604592018,338.784244310841
738279.50129629066213965416,13.6877549567146,-12.6168604592018,338.796553442997
738279.50129638111684471369,13.6877549567146,-12.6168604592018,338.771935178686
738279.50129647157154977322,13.6877549567146,-12.6045513270465,338.808862575152
738279.50129656202625483274,13.6877549567146,-12.6168604592018,338.808862575152
738279.50129665248095989227,13.7000640888699,-12.6045513270465,338.759626046531
738279.50129674293566495180,13.6877549567146,-12.6168604592018,338.784244310841
738279.50129683327395468950,13.7000640888699,-12.6045513270465,338.821171707307
738279.50129692372865974903,13.6877549567146,-12.6045513270465,338.784244310841
738279.50129701418336480856,13.6877549567146,-12.6045513270465,338.73500778222
738279.50129710463806986809,13.7000640888699,-12.6045513270465,338.784244310841
738279.50129719509277492762,13.7000640888699,-12.6045513270465,338.698080385754
738279.50129728554747998714,13.6877549567146,-12.6045513270465,338.685771253599
738279.50129737588576972485,13.6877549567146,-12.5922421948912,338.698080385754
738279.50129746634047478437,13.7000640888699,-12.5922421948912,338.673462121443
738279.50129755679517984390,13.7123732210252,-12.5922421948912,338.673462121443
738279.50129764724988490343,13.7246823531805,-12.5676239305806,338.698080385754
738279.50129773770458996296,13.7369914853359,-12.5553147984252,338.73500778222
738279.50129782815929502249,13.7493006174912,-12.5430056662699,338.73500778222
738279.50129791861400008202,13.7369914853359,-12.5430056662699,338.73500778222
738279.50129800895228981972,13.7616097496465,-12.506078269804,338.722698650065
738279.50129809940699487925,13.7493006174912,-12.5183874019593,338.784244310841
738279.50129818986169993877,13.7493006174912,-12.5430056662699,338.808862575152
738279.50129828031640499830,13.7123732210252,-12.5553147984252,338.747316914375
738279.50129837077111005783,13.7246823531805,-12.5306965341146,338.821171707307
738279.50129846122581511736,13.7123732210252,-12.5430056662699,338.73500778222
738279.50129855168052017689,13.7123732210252,-12.5553147984252,338.673462121443
738279.50129864201880991459,13.7000640888699,-12.5922421948912,338.771935178686
738279.50129873247351497412,13.7000640888699,-12.5922421948912,338.796553442997
738279.50129882292822003365,13.6877549567146,-12.6045513270465,338.796553442997
738279.50129891338292509317,13.6877549567146,-12.6168604592018,338.722698650065
738279.50129900383763015270,13.6877549567146,-12.6168604592018,338.784244310841
738279.50129909429233521223,13.6877549567146,-12.6045513270465,338.722698650065
738279.50129918463062494993,13.6877549567146,-12.6045513270465,338.698080385754
738279.50129927508533000946,13.6877549567146,-12.6045513270465,338.759626046531
738279.50129936554003506899,13.6877549567146,-12.6045513270465,338.747316914375
738279.50129945599474012852,13.6877549567146,-12.6168604592018,338.771935178686
738279.50129954644944518805,13.7000640888699,-12.6045513270465,338.747316914375
738279.50129963690415024757,13.6877549567146,-12.6045513270465,338.722698650065
738279.50129972735885530710,13.7000640888699,-12.6291695913572,338.698080385754
738279.50129981769714504480,13.7123732210252,-12.6291695913572,338.722698650065
738279.50129990815185010433,13.7493006174912,-12.5183874019593,338.796553442997
738279.50129999860655516386,13.8354645425784,-12.235277362387,338.845789971618
738279.50130008906126022339,14.0693380535295,-11.7059846797082,338.796553442997
738279.50130017951596528292,14.0816471856848,-11.2628559221168,338.91964476455
738279.50130026997067034245,13.8231554104231,-11.6813664153976,338.747316914375
738279.50130036030896008015,13.6015910316273,-12.3706778160955,338.73500778222
738279.50130045076366513968,13.5400453708508,-12.7030243842891,338.870408235928
738279.50130054121837019920,13.6877549567146,-12.5183874019593,338.895026500239
738279.50130063167307525873,13.7123732210252,-12.506078269804,338.747316914375
738279.50130072212778031826,13.7369914853359,-12.5183874019593,338.808862575152
738279.50130081258248537779,13.7369914853359,-12.5306965341146,338.784244310841
738279.50130090303719043732,13.7369914853359,-12.5430056662699,338.747316914375
738279.50130099337548017502,13.7369914853359,-12.5430056662699,338.771935178686
738279.50130108383018523455,13.7369914853359,-12.5306965341146,338.845789971618
738279.50130117428489029408,13.7369914853359,-12.5306965341146,338.808862575152
738279.50130126473959535360,13.7493006174912,-12.5183874019593,338.73500778222
738279.50130135519430041313,13.7493006174912,-12.5183874019593,338.808862575152
738279.50130144564900547266,13.7493006174912,-12.506078269804,338.784244310841
738279.50130153610371053219,13.7616097496465,-12.4937691376487,338.771935178686
738279.50130162644200026989,13.7616097496465,-12.4814600054933,338.796553442997
738279.50130171689670532942,13.7739188818018,-12.469150873338,338.821171707307
738279.50130180735141038895,13.7739188818018,-12.469150873338,338.833480839462
738279.50130189780611544847,13.7739188818018,-12.4568417411827,338.747316914375
738279.50130198826082050800,13.7739188818018,-12.4445326090274,338.710389517909
738279.50130207871552556753,13.7985371461124,-12.4199143447167,338.636534724977
738279.50130216905381530523,13.7985371461124,-12.4076052125614,338.710389517909
738279.50130225950852036476,13.8108462782678,-12.3829869482508,338.771935178686
738279.50130234996322542429,13.8231554104231,-12.3706778160955,338.808862575152
738279.50130244041793048382,13.8354645425784,-12.3337504196295,338.73500778222
738279.50130253087263554335,13.8477736747337,-12.3214412874742,338.784244310841
738279.50130262132734060287,13.8723919390444,-12.2722047588529,338.771935178686
738279.50130271178204566240,13.8723919390444,-12.2598956266976,338.796553442997
738279.50130280212033540010,13.897010203355,-12.235277362387,338.759626046531
738279.50130289257504045963,13.9093193355103,-12.2106590980763,338.808862575152
738279.50130298302974551916,13.9093193355103,-12.2106590980763,338.808862575152
738279.50130307348445057869,13.9216284676656,-12.2106590980763,338.821171707307
738279.50130316393915563822,13.9093193355103,-12.198349965921,338.710389517909
738279.50130325439386069775,13.897010203355,-12.235277362387,338.759626046531
738279.50130334484856575727,13.8847010711997,-12.2475864945423,338.796553442997
738279.50130343518685549498,13.8477736747337,-12.3091321553189,338.747316914375
738279.50130352564156055450,13.8231554104231,-12.3460595517848,338.796553442997
738279.50130361609626561403,13.8231554104231,-12.3583686839401,338.722698650065
738279.50130370655097067356,13.7862280139571,-12.4199143447167,338.722698650065
738279.50130379700567573309,13.7616097496465,-12.4445326090274,338.771935178686
738279.50130388746038079262,13.7493006174912,-12.4814600054933,338.771935178686
738279.50130397779867053032,13.7369914853359,-12.4937691376487,338.821171707307
738279.50130406825337558985,13.7246823531805,-12.506078269804,338.796553442997
738279.50130415870808064938,13.7246823531805,-12.506078269804,338.771935178686
738279.50130424916278570890,13.7123732210252,-12.5306965341146,338.858099103773
738279.50130433961749076843,13.7123732210252,-12.5306965341146,338.858099103773
738279.50130443007219582796,13.7000640888699,-12.5306965341146,338.747316914375
738279.50130452052690088749,13.7123732210252,-12.5430056662699,338.821171707307
738279.50130461086519062519,13.7000640888699,-12.5430056662699,338.845789971618
738279.50130470131989568472,13.7000640888699,-12.5183874019593,338.784244310841
738279.50130479177460074425,13.7000640888699,-12.5306965341146,338.808862575152
738279.50130488222930580378,13.7123732210252,-12.5183874019593,338.747316914375
738279.50130497268401086330,13.7123732210252,-12.5306965341146,338.722698650065
738279.50130506313871592283,13.7123732210252,-12.5306965341146,338.722698650065
738279.50130515359342098236,13.7123732210252,-12.5306965341146,338.73500778222
738279.50130524393171072006,13.7123732210252,-12.5306965341146,338.747316914375
738279.50130533438641577959,13.7123732210252,-12.5183874019593,338.73500778222
738279.50130542484112083912,13.7123732210252,-12.5183874019593,338.796553442997
738279.50130551529582589865,13.7123732210252,-12.5183874019593,338.833480839462
738279.50130560575053095818,13.7000640888699,-12.5306965341146,338.636534724977
738279.50130569620523601770,13.7123732210252,-12.5183874019593,338.796553442997
738279.50130578654352575541,13.7123732210252,-12.5306965341146,338.771935178686
738279.50130587699823081493,13.7123732210252,-12.5183874019593,338.784244310841
738279.50130596745293587446,13.7246823531805,-12.5183874019593,338.784244310841
738279.50130605790764093399,13.7123732210252,-12.5306965341146,338.722698650065
738279.50130614836234599352,13.7000640888699,-12.5306965341146,338.710389517909
738279.50130623881705105305,13.7123732210252,-12.5306965341146,338.784244310841
738279.50130632927175611258,13.6877549567146,-12.5553147984252,338.771935178686
738279.50130641961004585028,13.7123732210252,-12.5306965341146,338.73500778222
738279.50130651006475090981,13.7123732210252,-12.5306965341146,338.722698650065
738279.50130660051945596933,13.7123732210252,-12.5306965341146,338.796553442997
738279.50130669097416102886,13.7000640888699,-12.5430056662699,338.73500778222
738279.50130678142886608839,13.7000640888699,-12.5553147984252,338.722698650065
738279.50130687188357114792,13.7000640888699,-12.5306965341146,338.73500778222
738279.50130696222186088562,13.7000640888699,-12.5306965341146,338.73500778222
738279.50130705267656594515,13.7000640888699,-12.5306965341146,338.759626046531
738279.50130714313127100468,13.6877549567146,-12.5306965341146,338.722698650065
738279.50130723358597606421,13.7123732210252,-12.5306965341146,338.808862575152
738279.50130732404068112373,13.7000640888699,-12.5430056662699,338.784244310841
738279.50130741449538618326,13.7000640888699,-12.5306965341146,338.747316914375
738279.50130750495009124279,13.7000640888699,-12.5430056662699,338.784244310841
738279.50130759528838098049,13.7000640888699,-12.5306965341146,338.796553442997
738279.50130768574308604002,13.7000640888699,-12.5430056662699,338.845789971618
738279.50130777619779109955,13.7000640888699,-12.5306965341146,338.821171707307
738279.50130786665249615908,13.7000640888699,-12.5430056662699,338.722698650065
738279.50130795710720121861,13.6877549567146,-12.5430056662699,338.771935178686
738279.50130804756190627813,13.6877549567146,-12.5306965341146,338.771935178686
738279.50130813801661133766,13.7000640888699,-12.5306965341146,338.784244310841
738279.50130822835490107536,13.7000640888699,-12.5306965341146,338.771935178686
738279.50130831880960613489,13.6877549567146,-12.5430056662699,338.771935178686
738279.50130840926431119442,13.6877549567146,-12.5430056662699,338.784244310841
738279.50130849971901625395,13.6754458245593,-12.5430056662699,338.73500778222
738279.50130859017372131348,13.6877549567146,-12.5306965341146,338.784244310841
738279.50130868062842637300,13.6877549567146,-12.5306965341146,338.747316914375
738279.50130877096671611071,13.6877549567146,-12.5430056662699,338.698080385754
738279.50130886142142117023,13.6877549567146,-12.5430056662699,338.73500778222
738279.50130895187612622976,13.6877549567146,-12.5430056662699,338.747316914375
738279.50130904233083128929,13.6754458245593,-12.5553147984252,338.55037079989
738279.50130913278553634882,13.6877549567146,-12.5430056662699,338.661152989288
738279.50130922324024140835,13.6877549567146,-12.5430056662699,338.833480839462
738279.50130931369494646788,13.6877549567146,-12.5430056662699,338.821171707307
738279.50130940403323620558,13.6877549567146,-12.5430056662699,338.808862575152
738279.50130949448794126511,13.6877549567146,-12.5553147984252,338.796553442997
738279.50130958494264632463,13.6877549567146,-12.5430056662699,338.870408235928
738279.50130967539735138416,13.6754458245593,-12.5553147984252,338.833480839462
738279.50130976585205644369,13.7000640888699,-12.5306965341146,338.759626046531
738279.50130985630676150322,13.6754458245593,-12.5430056662699,338.821171707307
738279.50130994676146656275,13.6754458245593,-12.5430056662699,338.833480839462
738279.50131003709975630045,13.6754458245593,-12.5430056662699,338.73500778222
738279.50131012755446135998,13.6877549567146,-12.5430056662699,338.796553442997
738279.50131021800916641951,13.6754458245593,-12.5553147984252,338.747316914375
738279.50131030846387147903,13.6877549567146,-12.5430056662699,338.73500778222
738279.50131039891857653856,13.6877549567146,-12.5306965341146,338.796553442997
738279.50131048937328159809,13.6877549567146,-12.5430056662699,338.833480839462
738279.50131057971157133579,13.6877549567146,-12.5430056662699,338.858099103773
738279.50131067016627639532,13.7000640888699,-12.5183874019593,338.845789971618
738279.50131076062098145485,13.7000640888699,-12.5183874019593,338.747316914375
738279.50131085107568651438,13.7000640888699,-12.506078269804,338.747316914375
738279.50131094153039157391,13.7123732210252,-12.4814600054933,338.784244310841
738279.50131103198509663343,13.7123732210252,-12.4814600054933,338.796553442997
738279.50131112243980169296,13.7493006174912,-12.4445326090274,338.833480839462
738279.50131121277809143066,13.7369914853359,-12.469150873338,338.833480839462
738279.50131130323279649019,13.7246823531805,-12.4814600054933,338.722698650065
738279.50131139368750154972,13.7123732210252,-12.4937691376487,338.784244310841
738279.50131148414220660925,13.7000640888699,-12.4937691376487,338.808862575152
738279.50131157459691166878,13.7000640888699,-12.4937691376487,338.796553442997
738279.50131166505161672831,13.7000640888699,-12.506078269804,338.821171707307
738279.50131175550632178783,13.6754458245593,-12.5306965341146,338.845789971618
738279.50131184584461152554,13.6631366924039,-12.5553147984252,338.821171707307
738279.50131193629931658506,13.6631366924039,-12.5553147984252,338.808862575152
738279.50131202675402164459,13.6631366924039,-12.5553147984252,338.710389517909
738279.50131211720872670412,13.6631366924039,-12.5676239305806,338.808862575152
738279.50131220766343176365,13.6631366924039,-12.5553147984252,338.771935178686
738279.50131229811813682318,13.6508275602486,-12.5676239305806,338.784244310841
738279.50131238845642656088,13.6631366924039,-12.5553147984252,338.808862575152
738279.50131247891113162041,13.6631366924039,-12.5553147984252,338.771935178686
738279.50131256936583667994,13.6508275602486,-12.5553147984252,338.587298196356
738279.50131265982054173946,13.6631366924039,-12.5553147984252,338.673462121443
738279.50131275027524679899,13.6631366924039,-12.5553147984252,338.759626046531
738279.50131284072995185852,13.6754458245593,-12.5922421948912,338.796553442997
738279.50131293118465691805,13.6754458245593,-12.5676239305806,338.808862575152
738279.50131302152294665575,13.7246823531805,-12.3829869482508,338.882717368084
738279.50131311197765171528,13.7739188818018,-12.235277362387,338.895026500239
738279.50131320243235677481,14.0077923927529,-11.7429120761742,338.808862575152
738279.50131329288706183434,14.0693380535295,-11.2136193934955,338.870408235928
738279.50131338334176689386,13.8723919390444,-11.4844203009125,338.710389517909
738279.50131347379647195339,13.6015910316273,-12.198349965921,338.759626046531
738279.50131356413476169109,13.5031179743848,-12.6907152521338,338.771935178686
738279.50131365458946675062,13.6385184280933,-12.506078269804,338.796553442997
738279.50131374504417181015,13.6754458245593,-12.4568417411827,338.858099103773
738279.50131383549887686968,13.7000640888699,-12.469150873338,338.845789971618
738279.50131392595358192921,13.7000640888699,-12.469150873338,338.73500778222
738279.50131401640828698874,13.7000640888699,-12.4814600054933,338.845789971618
738279.50131410686299204826,13.7000640888699,-12.4814600054933,338.821171707307
738279.50131419720128178596,13.7000640888699,-12.4937691376487,338.845789971618
738279.50131428765598684549,13.7123732210252,-12.4814600054933,338.722698650065
738279.50131437811069190502,13.7123732210252,-12.4814600054933,338.821171707307
738279.50131446856539696455,13.7123732210252,-12.469150873338,338.833480839462
738279.50131455902010202408,13.7123732210252,-12.4568417411827,338.845789971618
738279.50131464947480708361,13.7246823531805,-12.4445326090274,338.698080385754
738279.50131473992951214314,13.7369914853359,-12.4322234768721,338.710389517909
738279.50131483026780188084,13.7369914853359,-12.4322234768721,338.747316914375
738279.50131492072250694036,13.7493006174912,-12.4076052125614,338.759626046531
738279.50131501117721199989,13.7493006174912,-12.4076052125614,338.771935178686
738279.50131510163191705942,13.7493006174912,-12.3952960804061,338.808862575152
738279.50131519208662211895,13.7616097496465,-12.3829869482508,338.808862575152
738279.50131528254132717848,13.7739188818018,-12.3706778160955,338.845789971618
738279.50131537287961691618,13.7862280139571,-12.3337504196295,338.673462121443
738279.50131546333432197571,13.7985371461124,-12.3337504196295,338.784244310841
738279.50131555378902703524,13.8108462782678,-12.2968230231635,338.771935178686
738279.50131564424373209476,13.8231554104231,-12.2598956266976,338.759626046531
738279.50131573469843715429,13.8477736747337,-12.2229682302316,338.808862575152
738279.50131582515314221382,13.860082806889,-12.198349965921,338.796553442997
738279.50131591560784727335,13.8723919390444,-12.1737317016104,338.759626046531
738279.50131600594613701105,13.8847010711997,-12.161422569455,338.759626046531
738279.50131609640084207058,13.8847010711997,-12.1368043051444,338.648843857133
738279.50131618685554713011,13.8847010711997,-12.1368043051444,338.698080385754
738279.50131627731025218964,13.8723919390444,-12.1491134372997,338.833480839462
738279.50131636776495724916,13.8847010711997,-12.1491134372997,338.722698650065
738279.50131645821966230869,13.8723919390444,-12.1860408337657,338.710389517909
738279.50131654867436736822,13.8354645425784,-12.235277362387,338.771935178686
738279.50131663901265710592,13.7985371461124,-12.2968230231635,338.759626046531
738279.50131672946736216545,13.7616097496465,-12.3460595517848,338.747316914375
738279.50131681992206722498,13.7493006174912,-12.3952960804061,338.722698650065
738279.50131691037677228451,13.7369914853359,-12.4322234768721,338.771935178686
738279.50131700083147734404,13.7246823531805,-12.4445326090274,338.771935178686
738279.50131709128618240356,13.7246823531805,-12.4445326090274,338.771935178686
738279.50131718162447214127,13.6877549567146,-12.4814600054933,338.771935178686
738279.50131727207917720079,13.6877549567146,-12.4814600054933,338.808862575152
738279.50131736253388226032,13.6877549567146,-12.4814600054933,338.771935178686
738279.50131745298858731985,13.6877549567146,-12.4937691376487,338.833480839462
738279.50131754344329237938,13.6877549567146,-12.4937691376487,338.845789971618
738279.50131763389799743891,13.6877549567146,-12.4937691376487,338.845789971618
738279.50131772435270249844,13.6877549567146,-12.4814600054933,338.784244310841
738279.50131781469099223614,13.6754458245593,-12.4937691376487,338.821171707307
738279.50131790514569729567,13.6754458245593,-12.4937691376487,338.821171707307
738279.50131799560040235519,13.7123732210252,-12.469150873338,338.710389517909
738279.50131808605510741472,13.6754458245593,-12.4937691376487,338.747316914375
738279.50131817650981247425,13.6877549567146,-12.4814600054933,338.747316914375
738279.50131826696451753378,13.6877549567146,-12.469150873338,338.710389517909
738279.50131835741922259331,13.6877549567146,-12.469150873338,338.747316914375
738279.50131844775751233101,13.7123732210252,-12.4568417411827,338.808862575152
738279.50131853821221739054,13.6877549567146,-12.4814600054933,338.796553442997
738279.50131862866692245007,13.7123732210252,-12.469150873338,338.808862575152
738279.50131871912162750959,13.7123732210252,-12.469150873338,338.858099103773
738279.50131880957633256912,13.7123732210252,-12.4814600054933,338.821171707307
738279.50131890003103762865,13.7123732210252,-12.469150873338,338.722698650065
738279.50131899036932736635,13.7000640888699,-12.4814600054933,338.808862575152
738279.50131908082403242588,13.7123732210252,-12.4568417411827,338.858099103773
738279.50131917127873748541,13.7123732210252,-12.4814600054933,338.796553442997
738279.50131926173344254494,13.7123732210252,-12.469150873338,338.821171707307
738279.50131935218814760447,13.7123732210252,-12.4814600054933,338.833480839462
738279.50131944264285266399,13.7000640888699,-12.4937691376487,338.833480839462
738279.50131953309755772352,13.7246823531805,-12.469150873338,338.759626046531
738279.50131962343584746122,13.7123732210252,-12.469150873338,338.636534724977
738279.50131971389055252075,13.7000640888699,-12.4814600054933,338.636534724977
738279.50131980434525758028,13.6754458245593,-12.506078269804,338.722698650065
738279.50131989479996263981,13.6631366924039,-12.5306965341146,338.759626046531
738279.50131998525466769934,13.7123732210252,-12.506078269804,338.821171707307
738279.50132007570937275887,13.6877549567146,-12.506078269804,338.771935178686
738279.50132016604766249657,13.7000640888699,-12.4937691376487,338.771935178686
738279.50132025650236755610,13.7000640888699,-12.4937691376487,338.796553442997
738279.50132034695707261562,13.7246823531805,-12.469150873338,338.808862575152
738279.50132043741177767515,13.6877549567146,-12.506078269804,338.833480839462
738279.50132052786648273468,13.6877549567146,-12.506078269804,338.784244310841
738279.50132061832118779421,13.7000640888699,-12.506078269804,338.821171707307
738279.50132070877589285374,13.7000640888699,-12.4814600054933,338.808862575152
738279.50132079911418259144,13.7000640888699,-12.4937691376487,338.808862575152
738279.50132088956888765097,13.7123732210252,-12.4814600054933,338.796553442997
738279.50132098002359271049,13.6877549567146,-12.506078269804,338.771935178686
738279.50132107047829777002,13.7123732210252,-12.4814600054933,338.833480839462
738279.50132116093300282955,13.6877549567146,-12.506078269804,338.882717368084
738279.50132125138770788908,13.6877549567146,-12.5183874019593,338.784244310841
738279.50132134184241294861,13.7123732210252,-12.4814600054933,338.747316914375
738279.50132143218070268631,13.7000640888699,-12.4814600054933,338.759626046531
738279.50132152263540774584,13.7000640888699,-12.506078269804,338.808862575152
738279.50132161309011280537,13.7123732210252,-12.4814600054933,338.796553442997
738279.50132170354481786489,13.7000640888699,-12.4937691376487,338.833480839462
738279.50132179399952292442,13.7369914853359,-12.4445326090274,338.870408235928
738279.50132188445422798395,13.6631366924039,-12.5183874019593,338.759626046531
738279.50132197479251772165,13.6877549567146,-12.506078269804,338.821171707307
738279.50132206524722278118,13.6877549567146,-12.4937691376487,338.845789971618
738279.50132215570192784071,13.7000640888699,-12.4937691376487,338.821171707307
738279.50132224615663290024,13.7123732210252,-12.4814600054933,338.796553442997
738279.50132233661133795977,13.7246823531805,-12.469150873338,338.821171707307
738279.50132242706604301929,13.6877549567146,-12.506078269804,338.821171707307
738279.50132251752074807882,13.7000640888699,-12.506078269804,338.747316914375
738279.50132260785903781652,13.7123732210252,-12.469150873338,338.833480839462
738279.50132269831374287605,13.7246823531805,-12.469150873338,338.833480839462
738279.50132278876844793558,13.6754458245593,-12.5183874019593,338.845789971618
738279.50132287922315299511,13.7123732210252,-12.4814600054933,338.796553442997
738279.50132296967785805464,13.7123732210252,-12.469150873338,338.833480839462
738279.50132306013256311417,13.6754458245593,-12.506078269804,338.747316914375
738279.50132315058726817369,13.6754458245593,-12.5183874019593,338.771935178686
738279.50132324092555791140,13.7000640888699,-12.506078269804,338.722698650065
738279.50132333138026297092,13.7000640888699,-12.4814600054933,338.710389517909
738279.50132342183496803045,13.7123732210252,-12.469150873338,338.759626046531
738279.50132351228967308998,13.7246823531805,-12.4568417411827,338.710389517909
738279.50132360274437814951,13.7246823531805,-12.469150873338,338.722698650065
738279.50132369319908320904,13.7369914853359,-12.4322234768721,338.808862575152
738279.50132378353737294674,13.7369914853359,-12.4199143447167,338.784244310841
738279.50132387399207800627,13.7369914853359,-12.4322234768721,338.771935178686
738279.50132396444678306580,13.7369914853359,-12.4445326090274,338.759626046531
738279.50132405490148812532,13.7246823531805,-12.4445326090274,338.796553442997
738279.50132414535619318485,13.7123732210252,-12.4445326090274,338.833480839462
738279.50132423581089824438,13.7000640888699,-12.4568417411827,338.771935178686
738279.50132432626560330391,13.7123732210252,-12.4568417411827,338.821171707307
738279.50132441660389304161,13.7123732210252,-12.4568417411827,338.833480839462
738279.50132450705859810114,13.7000640888699,-12.469150873338,338.796553442997
738279.50132459751330316067,13.7123732210252,-12.469150873338,338.821171707307
738279.50132468796800822020,13.6508275602486,-12.5306965341146,338.808862575152
738279.50132477842271327972,13.6754458245593,-12.506078269804,338.796553442997
738279.50132486887741833925,13.6877549567146,-12.506078269804,338.796553442997
738279.50132495933212339878,13.6754458245593,-12.5183874019593,338.870408235928
738279.50132504967041313648,13.6877549567146,-12.506078269804,338.73500778222
738279.50132514012511819601,13.6877549567146,-12.4937691376487,338.808862575152
738279.50132523057982325554,13.6754458245593,-12.506078269804,338.796553442997
738279.50132532103452831507,13.6877549567146,-12.506078269804,338.870408235928
738279.50132541148923337460,13.6877549567146,-12.4937691376487,338.858099103773
738279.50132550194393843412,13.6754458245593,-12.5183874019593,338.882717368084
738279.50132559228222817183,13.6754458245593,-12.5430056662699,338.784244310841
738279.50132568273693323135,13.7123732210252,-12.506078269804,338.747316914375
738279.50132577319163829088,13.7739188818018,-12.2968230231635,338.91964476455
738279.50132586364634335041,13.9585558641316,-11.9029307941933,338.870408235928
738279.50132595410104840994,14.1062654499954,-11.3613289793593,338.91964476455
738279.50132604455575346947,14.0201015249082,-11.2013102613402,338.858099103773
738279.50132613501045852900,13.7246823531805,-11.9029307941933,338.784244310841
738279.50132622534874826670,13.5400453708508,-12.5183874019593,338.895026500239
738279.50132631580345332623,13.589281899472,-12.5430056662699,338.968881293171
738279.50132640625815838575,13.7000640888699,-12.4076052125614,338.821171707307
738279.50132649671286344528,13.7246823531805,-12.3952960804061,338.895026500239
738279.50132658716756850481,13.7246823531805,-12.4199143447167,338.907335632394
738279.50132667762227356434,13.7246823531805,-12.4322234768721,338.796553442997
738279.50132676796056330204,13.7369914853359,-12.4322234768721,338.661152989288
738279.50132685841526836157,13.7246823531805,-12.4445326090274,338.845789971618
738279.50132694886997342110,13.7369914853359,-12.4322234768721,338.870408235928
738279.50132703932467848063,13.7369914853359,-12.4322234768721,338.771935178686
738279.50132712977938354015,13.7493006174912,-12.4199143447167,338.833480839462
738279.50132722023408859968,13.7493006174912,-12.4199143447167,338.845789971618
738279.50132731068879365921,13.7493006174912,-12.4076052125614,338.845789971618
738279.50132740102708339691,13.7493006174912,-12.4199143447167,338.784244310841
738279.50132749148178845644,13.7493006174912,-12.3952960804061,338.722698650065
738279.50132758193649351597,13.7616097496465,-12.3829869482508,338.73500778222
738279.50132767239119857550,13.7616097496465,-12.3829869482508,338.771935178686
738279.50132776284590363503,13.7739188818018,-12.3460595517848,338.710389517909
738279.50132785330060869455,13.7616097496465,-12.3583686839401,338.73500778222
738279.50132794375531375408,13.7739188818018,-12.3583686839401,338.747316914375
738279.50132803409360349178,13.7985371461124,-12.3214412874742,338.747316914375
738279.50132812454830855131,13.8108462782678,-12.3091321553189,338.710389517909
738279.50132821500301361084,13.8108462782678,-12.2968230231635,338.722698650065
738279.50132830545771867037,13.8477736747337,-12.2475864945423,338.747316914375
738279.50132839591242372990,13.8354645425784,-12.2475864945423,338.771935178686
738279.50132848636712878942,13.860082806889,-12.2106590980763,338.722698650065
738279.50132857670541852713,13.8723919390444,-12.1860408337657,338.73500778222
738279.50132866716012358665,13.8847010711997,-12.1737317016104,338.747316914375
738279.50132875761482864618,13.897010203355,-12.1491134372997,338.784244310841
738279.50132884806953370571,13.897010203355,-12.161422569455,338.747316914375
738279.50132893852423876524,13.9216284676656,-12.1244951729891,338.821171707307
738279.50132902897894382477,13.9216284676656,-12.1244951729891,338.833480839462
738279.50132911943364888430,13.897010203355,-12.1368043051444,338.710389517909
738279.50132920977193862200,13.8847010711997,-12.1737317016104,338.821171707307
738279.50132930022664368153,13.8477736747337,-12.2229682302316,338.796553442997
738279.50132939068134874105,13.8231554104231,-12.2722047588529,338.808862575152
738279.50132948113605380058,13.7985371461124,-12.3214412874742,338.759626046531
738279.50132957159075886011,13.7616097496465,-12.3583686839401,338.796553442997
738279.50132966204546391964,13.7493006174912,-12.3952960804061,338.821171707307
738279.50132975250016897917,13.7246823531805,-12.4445326090274,338.747316914375
738279.50132984283845871687,13.7123732210252,-12.4445326090274,338.845789971618
738279.50132993329316377640,13.7246823531805,-12.4322234768721,338.845789971618
738279.50133002374786883593,13.7123732210252,-12.4445326090274,338.722698650065
738279.50133011420257389545,13.7000640888699,-12.4568417411827,338.784244310841
738279.50133020465727895498,13.7000640888699,-12.4568417411827,338.611916460667
738279.50133029511198401451,13.7000640888699,-12.4568417411827,338.685771253599
738279.50133038545027375221,13.7000640888699,-12.469150873338,338.845789971618
738279.50133047590497881174,13.7000640888699,-12.469150873338,338.771935178686
738279.50133056635968387127,13.7000640888699,-12.4568417411827,338.845789971618
738279.50133065681438893080,13.7000640888699,-12.469150873338,338.882717368084
738279.50133074726909399033,13.7000640888699,-12.469150873338,338.833480839462
738279.50133083772379904985,13.7000640888699,-12.4568417411827,338.833480839462
738279.50133092817850410938,13.7123732210252,-12.4568417411827,338.845789971618
738279.50133101851679384708,13.7000640888699,-12.469150873338,338.845789971618
738279.50133110897149890661,13.7000640888699,-12.4568417411827,338.771935178686
738279.50133119942620396614,13.7123732210252,-12.4568417411827,338.845789971618
738279.50133128988090902567,13.7000640888699,-12.4568417411827,338.858099103773
738279.50133138033561408520,13.7123732210252,-12.4568417411827,338.747316914375
738279.50133147079031914473,13.7123732210252,-12.4445326090274,338.833480839462
738279.50133156124502420425,13.7123732210252,-12.4568417411827,338.858099103773
738279.50133165158331394196,13.7123732210252,-12.4445326090274,338.821171707307
738279.50133174203801900148,13.7123732210252,-12.4568417411827,338.808862575152
738279.50133183249272406101,13.7123732210252,-12.469150873338,338.821171707307
738279.50133192294742912054,13.7123732210252,-12.469150873338,338.821171707307
738279.50133201340213418007,13.7000640888699,-12.4814600054933,338.759626046531
738279.50133210385683923960,13.7123732210252,-12.4814600054933,338.870408235928
738279.50133219419512897730,13.7123732210252,-12.469150873338,338.833480839462
738279.50133228464983403683,13.7000640888699,-12.469150873338,338.882717368084
738279.50133237510453909636,13.7000640888699,-12.4937691376487,338.771935178686
738279.50133246555924415588,13.6877549567146,-12.4937691376487,338.845789971618
738279.50133255601394921541,13.6877549567146,-12.4814600054933,338.796553442997
738279.50133264646865427494,13.6877549567146,-12.4937691376487,338.73500778222
738279.50133273692335933447,13.6877549567146,-12.4937691376487,338.858099103773
738279.50133282726164907217,13.6754458245593,-12.4937691376487,338.845789971618
738279.50133291771635413170,13.6754458245593,-12.506078269804,338.882717368084
738279.50133300817105919123,13.6754458245593,-12.506078269804,338.796553442997
738279.50133309862576425076,13.6754458245593,-12.506078269804,338.771935178686
738279.50133318908046931028,13.6754458245593,-12.506078269804,338.722698650065
738279.50133327953517436981,13.6754458245593,-12.506078269804,338.673462121443
738279.50133336987346410751,13.6508275602486,-12.5306965341146,338.759626046531
738279.50133346032816916704,13.6877549567146,-12.506078269804,338.821171707307
738279.50133355078287422657,13.6631366924039,-12.5183874019593,338.808862575152
738279.50133364123757928610,13.6754458245593,-12.5183874019593,338.808862575152
738279.50133373169228434563,13.6508275602486,-12.5183874019593,338.611916460667
738279.50133382214698940516,13.6631366924039,-12.5183874019593,338.673462121443
738279.50133391260169446468,13.6631366924039,-12.5183874019593,338.808862575152
738279.50133400293998420238,13.6631366924039,-12.5430056662699,338.821171707307
738279.50133409339468926191,13.6631366924039,-12.5306965341146,338.747316914375
738279.50133418384939432144,13.6631366924039,-12.5306965341146,338.796553442997
738279.50133427430409938097,13.6754458245593,-12.5183874019593,338.796553442997
738279.50133436475880444050,13.6631366924039,-12.5306965341146,338.784244310841
738279.50133445521350950003,13.6631366924039,-12.5306965341146,338.858099103773
738279.50133454566821455956,13.6754458245593,-12.5183874019593,338.858099103773
738279.50133463600650429726,13.7000640888699,-12.4814600054933,338.759626046531
738279.50133472646120935678,13.6754458245593,-12.506078269804,338.821171707307
738279.50133481691591441631,13.6754458245593,-12.4937691376487,338.858099103773
738279.50133490737061947584,13.6754458245593,-12.506078269804,338.845789971618
738279.50133499782532453537,13.7000640888699,-12.4937691376487,338.759626046531
738279.50133508828002959490,13.6754458245593,-12.506078269804,338.833480839462
738279.50133517861831933260,13.6877549567146,-12.4937691376487,338.821171707307
738279.50133526907302439213,13.6754458245593,-12.506078269804,338.747316914375
738279.50133535952772945166,13.6877549567146,-12.506078269804,338.821171707307
738279.50133544998243451118,13.7000640888699,-12.4937691376487,338.821171707307
738279.50133554043713957071,13.7000640888699,-12.4814600054933,338.808862575152
738279.50133563089184463024,13.6877549567146,-12.506078269804,338.796553442997
738279.50133572134654968977,13.7123732210252,-12.4937691376487,338.808862575152
738279.50133581168483942747,13.7000640888699,-12.4814600054933,338.759626046531
738279.50133590213954448700,13.7000640888699,-12.4937691376487,338.808862575152
738279.50133599259424954653,13.7000640888699,-12.4814600054933,338.73500778222
738279.50133608304895460606,13.7000640888699,-12.4814600054933,338.722698650065
738279.50133617350365966558,13.7123732210252,-12.469150873338,338.771935178686
738279.50133626395836472511,13.7123732210252,-12.4814600054933,338.759626046531
738279.50133635441306978464,13.7000640888699,-12.4814600054933,338.821171707307
738279.50133644475135952234,13.7123732210252,-12.469150873338,338.784244310841
738279.50133653520606458187,13.7369914853359,-12.4445326090274,338.747316914375
738279.50133662566076964140,13.7369914853359,-12.4445326090274,338.759626046531
738279.50133671611547470093,13.7246823531805,-12.4445326090274,338.833480839462
738279.50133680657017976046,13.7616097496465,-12.4199143447167,338.845789971618
738279.50133689702488481998,13.7616097496465,-12.4199143447167,338.771935178686
738279.50133698736317455769,13.7739188818018,-12.4076052125614,338.784244310841
738279.50133707781787961721,13.7246823531805,-12.4445326090274,338.796553442997
738279.50133716827258467674,13.7246823531805,-12.4445326090274,338.845789971618
738279.50133725872728973627,13.7246823531805,-12.4199143447167,338.685771253599
738279.50133734918199479580,13.7123732210252,-12.4568417411827,338.698080385754
738279.50133743963669985533,13.7000640888699,-12.469150873338,338.747316914375
738279.50133753009140491486,13.7000640888699,-12.4814600054933,338.784244310841
738279.50133762042969465256,13.6754458245593,-12.506078269804,338.784244310841
738279.50133771088439971209,13.6877549567146,-12.5183874019593,338.796553442997
738279.50133780133910477161,13.7000640888699,-12.506078269804,338.796553442997
738279.50133789179380983114,13.7000640888699,-12.4937691376487,338.784244310841
738279.50133798224851489067,13.6877549567146,-12.506078269804,338.759626046531
738279.50133807270321995020,13.6754458245593,-12.5183874019593,338.796553442997
738279.50133816315792500973,13.7123732210252,-12.506078269804,338.808862575152
738279.50133825349621474743,13.6877549567146,-12.5183874019593,338.771935178686
738279.50133834395091980696,13.6877549567146,-12.506078269804,338.771935178686
738279.50133843440562486649,13.6877549567146,-12.506078269804,338.73500778222
738279.50133852486032992601,13.7246823531805,-12.4937691376487,338.73500778222
738279.50133861531503498554,13.7123732210252,-12.5306965341146,338.73500778222
