time_dn,ecg_projection_ll_ra_mV,ecg_projection_la_ra_mV,ecg_projection_vx_rl_mV
738346.41413243219722062349,4.25895972574033,-1.51402325510422,338.316497288939
738346.41413252265192568302,4.29588712220628,-1.47709585863826,338.328806421094
738346.41413261310663074255,4.3081962543616,-1.45247759432763,338.353424685405
738346.41413270344492048025,4.32050538651692,-1.45247759432763,338.378042949716
738346.41413279389962553978,4.34512365082756,-1.41555019786167,338.36573381756
738346.41413288435433059931,4.39436017944884,-1.36631366924039,338.291879024628
738346.41413297480903565884,4.35743278298288,-1.39093193355103,338.353424685405
738346.41413306526374071836,4.3081962543616,-1.46478672648295,338.378042949716
738346.41413315571844577789,4.3081962543616,-1.45247759432763,338.304188156784
738346.41413324605673551559,4.29588712220628,-1.46478672648295,338.34111555325
738346.41413333651144057512,4.27126885789565,-1.48940499079358,338.353424685405
738346.41413342696614563465,4.25895972574033,-1.5017141229489,338.378042949716
738346.41413351742085069418,4.23434146142969,-1.52633238725954,338.34111555325
738346.41413360787555575371,4.22203232927437,-1.5632597837255,338.390352081871
738346.41413369833026081324,4.23434146142969,-1.55095065157018,338.36573381756
738346.41413378866855055094,4.23434146142969,-1.5632597837255,338.304188156784
738346.41413387912325561047,4.22203232927437,-1.55095065157018,338.36573381756
738346.41413396957796066999,4.22203232927437,-1.55095065157018,338.390352081871
738346.41413406003266572952,4.22203232927437,-1.5632597837255,338.316497288939
738346.41413415048737078905,4.22203232927437,-1.5632597837255,338.353424685405
738346.41413424094207584858,4.23434146142969,-1.55095065157018,338.36573381756
738346.41413433128036558628,4.20972319711905,-1.5632597837255,338.36573381756
738346.41413442173507064581,4.22203232927437,-1.55095065157018,338.304188156784
738346.41413451218977570534,4.18510493280842,-1.57556891588082,338.254951628162
738346.41413460264448076487,4.13586840418714,-1.63711457665741,338.291879024628
738346.41413469309918582439,4.32050538651692,-1.39093193355103,338.242642496007
738346.41413478343747556210,4.77594327626372,-0.775475325785089,338.242642496007
738346.41413487389218062162,5.34216335540839,-0.184636982329783,338.021078117211
738346.41413496434688568115,5.84683777377646,0.283110039572334,337.737968077639
738346.41413505480159074068,5.60065513067009,0.0492365286212755,337.467167170222
738346.41413514525629580021,4.67747021902117,-1.72327850174464,337.504094566688
738346.41413523571100085974,4.08663187556586,-2.43720816675314,337.602567623931
738346.41413532604929059744,4.06201361125523,-2.26488031657867,338.021078117211
738346.41413541650399565697,4.19741406496373,-1.73558763389996,338.131860306609
738346.41413550695870071650,4.33281451867224,-1.41555019786167,338.218024231697
738346.41413559741340577602,4.32050538651692,-1.39093193355103,338.218024231697
738346.41413568786811083555,4.28357799005097,-1.41555019786167,338.254951628162
738346.41413577832281589508,4.28357799005097,-1.40324106570635,338.254951628162
738346.41413586866110563278,4.29588712220628,-1.37862280139571,338.267260760318
738346.41413595911581069231,4.28357799005097,-1.39093193355103,338.254951628162
738346.41413604957051575184,4.28357799005097,-1.36631366924039,338.304188156784
738346.41413614002522081137,4.32050538651692,-1.34169540492976,338.304188156784
738346.41413623047992587090,4.3081962543616,-1.32938627277444,338.353424685405
738346.41413632093463093042,4.3081962543616,-1.32938627277444,338.304188156784
738346.41413641127292066813,4.3081962543616,-1.31707714061912,338.353424685405
738346.41413650172762572765,4.33281451867224,-1.29245887630848,338.34111555325
738346.41413659218233078718,4.34512365082756,-1.26784061199784,338.390352081871
738346.41413668263703584671,4.32050538651692,-1.25553147984252,338.316497288939
738346.41413677309174090624,4.34512365082756,-1.21860408337657,338.328806421094
738346.41413686354644596577,4.35743278298288,-1.21860408337657,338.316497288939
738346.41413695388473570347,4.3697419151382,-1.18167668691061,338.34111555325
738346.41413704433944076300,4.38205104729352,-1.16936755475529,338.328806421094
738346.41413713479414582253,4.39436017944884,-1.15705842259997,338.34111555325
738346.41413722524885088205,4.40666931160415,-1.12013102613402,338.427279478337
738346.41413731570355594158,4.41897844375947,-1.07089449751274,338.402661214026
738346.41413740604184567928,4.41897844375947,-1.0462762332021,338.353424685405
738346.41413749649655073881,4.44359670807011,-1.00934883673615,338.390352081871
738346.41413758695125579834,4.46821497238075,-0.960112308114872,338.451897742648
738346.41413767740596085787,4.49283323669139,-0.898566647338277,338.427279478337
738346.41413776786066591740,4.50514236884671,-0.837020986561683,338.390352081871
738346.41413785831537097692,4.52976063315734,-0.787784457940408,338.439588610492
738346.41413794865366071463,4.55437889746798,-0.726238797163813,338.439588610492
738346.41413803910836577415,4.57899716177862,-0.664693136387219,338.414970346182
738346.41413812956307083368,4.59130629393394,-0.640074872076581,338.427279478337
738346.41413822001777589321,4.61592455824458,-0.603147475610625,338.488825139114
738346.41413831047248095274,4.62823369039989,-0.590838343455306,338.451897742648
738346.41413840092718601227,4.61592455824458,-0.603147475610625,338.402661214026
738346.41413849126547574997,4.57899716177862,-0.713929665008494,338.439588610492
738346.41413858172018080950,4.55437889746798,-0.800093590095726,338.254951628162
738346.41413867217488586903,4.52976063315734,-0.910875779493596,338.279569892473
738346.41413876262959092855,4.48052410453607,-1.03396710104678,338.378042949716
738346.41413885308429598808,4.45590584022543,-1.14474929044465,338.279569892473
738346.41413894353900104761,4.40666931160415,-1.24322234768721,338.254951628162
738346.41413903387729078531,4.40666931160415,-1.26784061199784,338.242642496007
738346.41413912433199584484,4.35743278298288,-1.35400453708508,338.254951628162
738346.41413921478670090437,4.33281451867224,-1.40324106570635,338.181096835231
738346.41413930524140596390,4.3081962543616,-1.42785933001699,338.193405967386
738346.41413939569611102343,4.29588712220628,-1.46478672648295,338.242642496007
738346.41413948603440076113,4.28357799005097,-1.47709585863826,338.242642496007
738346.41413957648910582066,4.28357799005097,-1.46478672648295,338.279569892473
738346.41413966694381088018,4.27126885789565,-1.47709585863826,338.242642496007
738346.41413975739851593971,4.27126885789565,-1.48940499079358,338.279569892473
738346.41413984785322099924,4.28357799005097,-1.5017141229489,338.254951628162
738346.41413993830792605877,4.28357799005097,-1.47709585863826,338.230333363852
738346.41414002864621579647,4.28357799005097,-1.47709585863826,338.242642496007
738346.41414011910092085600,4.28357799005097,-1.47709585863826,338.254951628162
738346.41414020955562591553,4.27126885789565,-1.48940499079358,338.291879024628
738346.41414030001033097506,4.28357799005097,-1.47709585863826,338.291879024628
738346.41414039046503603458,4.28357799005097,-1.47709585863826,338.316497288939
738346.41414048091974109411,4.27126885789565,-1.48940499079358,338.279569892473
738346.41414057125803083181,4.28357799005097,-1.47709585863826,338.291879024628
738346.41414066171273589134,4.25895972574033,-1.48940499079358,338.353424685405
738346.41414075216744095087,4.28357799005097,-1.47709585863826,338.328806421094
738346.41414084262214601040,4.28357799005097,-1.47709585863826,338.230333363852
738346.41414093307685106993,4.27126885789565,-1.48940499079358,338.304188156784
738346.41414102353155612946,4.27126885789565,-1.48940499079358,338.218024231697
738346.41414111386984586716,4.25895972574033,-1.48940499079358,338.316497288939
738346.41414120432455092669,4.25895972574033,-1.51402325510422,338.242642496007
738346.41414129477925598621,4.27126885789565,-1.5017141229489,338.304188156784
738346.41414138523396104574,4.27126885789565,-1.48940499079358,338.291879024628
738346.41414147568866610527,4.25895972574033,-1.51402325510422,338.34111555325
738346.41414156614337116480,4.25895972574033,-1.52633238725954,338.353424685405
738346.41414165648166090250,4.24665059358501,-1.52633238725954,338.316497288939
738346.41414174693636596203,4.24665059358501,-1.51402325510422,338.316497288939
738346.41414183739107102156,4.22203232927437,-1.55095065157018,338.353424685405
738346.41414192784577608109,4.23434146142969,-1.52633238725954,338.390352081871
738346.41414201830048114061,4.23434146142969,-1.53864151941486,338.316497288939
738346.41414210863877087831,4.24665059358501,-1.52633238725954,338.181096835231
738346.41414219909347593784,4.23434146142969,-1.53864151941486,338.230333363852
738346.41414228954818099737,4.23434146142969,-1.55095065157018,338.230333363852
738346.41414238000288605690,4.23434146142969,-1.55095065157018,338.254951628162
738346.41414247045759111643,4.23434146142969,-1.53864151941486,338.242642496007
738346.41414256091229617596,4.22203232927437,-1.52633238725954,338.242642496007
738346.41414265125058591366,4.23434146142969,-1.53864151941486,338.254951628162
738346.41414274170529097319,4.24665059358501,-1.55095065157018,338.316497288939
738346.41414283215999603271,4.22203232927437,-1.55095065157018,338.34111555325
738346.41414292261470109224,4.23434146142969,-1.52633238725954,338.328806421094
738346.41414301306940615177,4.23434146142969,-1.55095065157018,338.34111555325
738346.41414310352411121130,4.24665059358501,-1.53864151941486,338.353424685405
738346.41414319386240094900,4.22203232927437,-1.5632597837255,338.34111555325
738346.41414328431710600853,4.23434146142969,-1.53864151941486,338.353424685405
738346.41414337477181106806,4.20972319711905,-1.5632597837255,338.378042949716
738346.41414346522651612759,4.23434146142969,-1.53864151941486,338.267260760318
738346.41414355568122118711,4.22203232927437,-1.55095065157018,338.242642496007
738346.41414364613592624664,4.23434146142969,-1.55095065157018,338.230333363852
738346.41414373647421598434,4.22203232927437,-1.55095065157018,338.242642496007
738346.41414382692892104387,4.24665059358501,-1.55095065157018,338.254951628162
738346.41414391738362610340,4.23434146142969,-1.55095065157018,338.254951628162
738346.41414400783833116293,4.27126885789565,-1.47709585863826,338.291879024628
738346.41414409829303622246,4.29588712220628,-1.46478672648295,338.279569892473
738346.41414418863132596016,4.29588712220628,-1.45247759432763,338.267260760318
738346.41414427908603101969,4.34512365082756,-1.40324106570635,338.242642496007
738346.41414436954073607922,4.34512365082756,-1.39093193355103,338.279569892473
738346.41414445999544113874,4.3081962543616,-1.44016846217231,338.316497288939
738346.41414455045014619827,4.28357799005097,-1.46478672648295,338.34111555325
738346.41414464090485125780,4.27126885789565,-1.48940499079358,338.353424685405
738346.41414473124314099550,4.25895972574033,-1.47709585863826,338.291879024628
738346.41414482169784605503,4.24665059358501,-1.48940499079358,338.316497288939
738346.41414491215255111456,4.20972319711905,-1.53864151941486,338.328806421094
738346.41414500260725617409,4.19741406496373,-1.5632597837255,338.316497288939
738346.41414509306196123362,4.18510493280842,-1.5632597837255,338.36573381756
738346.41414518351666629314,4.1727958006531,-1.57556891588082,338.316497288939
738346.41414527385495603085,4.18510493280842,-1.58787804803613,338.316497288939
738346.41414536430966109037,4.18510493280842,-1.58787804803613,338.279569892473
738346.41414545476436614990,4.1727958006531,-1.58787804803613,338.316497288939
738346.41414554521907120943,4.1727958006531,-1.58787804803613,338.328806421094
738346.41414563567377626896,4.1727958006531,-1.58787804803613,338.254951628162
738346.41414572612848132849,4.1727958006531,-1.60018718019145,338.230333363852
738346.41414581646677106619,4.1727958006531,-1.60018718019145,338.291879024628
738346.41414590692147612572,4.16048666849778,-1.58787804803613,338.353424685405
738346.41414599737618118525,4.1112501398765,-1.62480544450209,338.36573381756
738346.41414608783088624477,4.06201361125523,-1.68635110527868,338.427279478337
738346.41414617828559130430,4.27126885789565,-1.42785933001699,338.279569892473
738346.41414626862388104200,4.75132501195308,-0.824711854406364,338.254951628162
738346.41414635907858610153,5.32985422325307,-0.258491775261696,337.97184158859
738346.41414644953329116106,5.79760124515519,0.147709585863826,337.676422416862
738346.41414653998799622059,5.51449120558285,-0.184636982329783,337.614876756086
738346.41414663044270128012,5.07136244799137,-1.0462762332021,337.553331095309
738346.41414672089740633965,4.22203232927437,-2.40028077028718,337.664113284707
738346.41414681123569607735,4.02508621478927,-2.26488031657867,338.008768985056
738346.41414690169040113688,4.1727958006531,-1.73558763389996,338.193405967386
738346.41414699214510619640,4.29588712220628,-1.41555019786167,338.304188156784
738346.41414708259981125593,4.25895972574033,-1.45247759432763,338.353424685405
738346.41414717305451631546,4.22203232927437,-1.45247759432763,338.36573381756
738346.41414726350922137499,4.23434146142969,-1.44016846217231,338.218024231697
738346.41414735384751111269,4.23434146142969,-1.44016846217231,338.279569892473
738346.41414744430221617222,4.22203232927437,-1.41555019786167,338.291879024628
738346.41414753475692123175,4.23434146142969,-1.42785933001699,338.316497288939
738346.41414762521162629128,4.20972319711905,-1.41555019786167,338.34111555325
738346.41414771566633135080,4.24665059358501,-1.37862280139571,338.378042949716
738346.41414780612103641033,4.25895972574033,-1.37862280139571,338.390352081871
738346.41414789645932614803,4.25895972574033,-1.35400453708508,338.36573381756
738346.41414798691403120756,4.25895972574033,-1.34169540492976,338.328806421094
738346.41414807736873626709,4.25895972574033,-1.31707714061912,338.378042949716
738346.41414816782344132662,4.27126885789565,-1.3047680084638,338.378042949716
738346.41414825827814638615,4.27126885789565,-1.28014974415316,338.34111555325
738346.41414834873285144567,4.3081962543616,-1.25553147984252,338.378042949716
738346.41414843907114118338,4.3081962543616,-1.23091321553189,338.316497288939
738346.41414852952584624290,4.3081962543616,-1.23091321553189,338.36573381756
738346.41414861998055130243,4.32050538651692,-1.18167668691061,338.353424685405
738346.41414871043525636196,4.33281451867224,-1.15705842259997,338.414970346182
738346.41414880088996142149,4.35743278298288,-1.12013102613402,338.427279478337
738346.41414889122825115919,4.3697419151382,-1.08320362966806,338.328806421094
738346.41414898168295621872,4.38205104729352,-1.0462762332021,338.390352081871
738346.41414907213766127825,4.40666931160415,-0.984730572425509,338.36573381756
738346.41414916259236633778,4.41897844375947,-0.947803175959553,338.291879024628
738346.41414925304707139730,4.45590584022543,-0.861639250872321,338.304188156784
738346.41414934350177645683,4.46821497238075,-0.812402722251045,338.451897742648
738346.41414943384006619453,4.51745150100202,-0.76316619362977,338.390352081871
738346.41414952429477125406,4.52976063315734,-0.701620532853175,338.451897742648
738346.41414961474947631359,4.55437889746798,-0.664693136387219,338.402661214026
738346.41414970520418137312,4.55437889746798,-0.640074872076581,338.390352081871
738346.41414979565888643265,4.55437889746798,-0.627765739921262,338.390352081871
738346.41414988611359149218,4.55437889746798,-0.677002268542538,338.402661214026
738346.41414997645188122988,4.52976063315734,-0.76316619362977,338.439588610492
738346.41415006690658628941,4.49283323669139,-0.861639250872321,338.439588610492
738346.41415015736129134893,4.44359670807011,-0.997039704580828,338.439588610492
738346.41415024781599640846,4.38205104729352,-1.12013102613402,338.378042949716
738346.41415033827070146799,4.35743278298288,-1.20629495122125,338.402661214026
738346.41415042872540652752,4.33281451867224,-1.26784061199784,338.316497288939
738346.41415051906369626522,4.25895972574033,-1.35400453708508,338.242642496007
738346.41415060951840132475,4.27126885789565,-1.37862280139571,338.254951628162
738346.41415069997310638428,4.23434146142969,-1.45247759432763,338.254951628162
738346.41415079042781144381,4.22203232927437,-1.47709585863826,338.254951628162
738346.41415088088251650333,4.20972319711905,-1.48940499079358,338.279569892473
738346.41415097122080624104,4.18510493280842,-1.51402325510422,338.316497288939
738346.41415106167551130056,4.20972319711905,-1.51402325510422,338.328806421094
738346.41415115213021636009,4.18510493280842,-1.52633238725954,338.291879024628
738346.41415124258492141962,4.19741406496373,-1.51402325510422,338.34111555325
738346.41415133303962647915,4.20972319711905,-1.52633238725954,338.34111555325
738346.41415142349433153868,4.19741406496373,-1.52633238725954,338.353424685405
738346.41415151383262127638,4.20972319711905,-1.51402325510422,338.328806421094
738346.41415160428732633591,4.19741406496373,-1.51402325510422,338.316497288939
738346.41415169474203139544,4.18510493280842,-1.53864151941486,338.316497288939
738346.41415178519673645496,4.23434146142969,-1.47709585863826,338.254951628162
738346.41415187565144151449,4.19741406496373,-1.51402325510422,338.328806421094
738346.41415196610614657402,4.19741406496373,-1.5017141229489,338.279569892473
738346.41415205644443631172,4.20972319711905,-1.5017141229489,338.267260760318
738346.41415214689914137125,4.20972319711905,-1.51402325510422,338.242642496007
738346.41415223735384643078,4.19741406496373,-1.51402325510422,338.242642496007
738346.41415232780855149031,4.19741406496373,-1.52633238725954,338.230333363852
738346.41415241826325654984,4.19741406496373,-1.52633238725954,338.242642496007
738346.41415250871796160936,4.20972319711905,-1.52633238725954,338.254951628162
738346.41415259905625134706,4.18510493280842,-1.52633238725954,338.254951628162
738346.41415268951095640659,4.18510493280842,-1.51402325510422,338.205715099541
738346.41415277996566146612,4.19741406496373,-1.52633238725954,338.094932910143
738346.41415287042036652565,4.18510493280842,-1.53864151941486,338.230333363852
738346.41415296087507158518,4.18510493280842,-1.55095065157018,338.267260760318
738346.41415305132977664471,4.18510493280842,-1.55095065157018,338.353424685405
738346.41415314166806638241,4.18510493280842,-1.53864151941486,338.291879024628
738346.41415323212277144194,4.1727958006531,-1.5632597837255,338.316497288939
738346.41415332257747650146,4.18510493280842,-1.53864151941486,338.316497288939
738346.41415341303218156099,4.16048666849778,-1.57556891588082,338.304188156784
738346.41415350348688662052,4.16048666849778,-1.58787804803613,338.291879024628
738346.41415359382517635822,4.18510493280842,-1.53864151941486,338.279569892473
738346.41415368427988141775,4.1727958006531,-1.5632597837255,338.316497288939
738346.41415377473458647728,4.14817753634246,-1.58787804803613,338.304188156784
738346.41415386518929153681,4.16048666849778,-1.5632597837255,338.36573381756
738346.41415395564399659634,4.14817753634246,-1.57556891588082,338.279569892473
738346.41415404609870165586,4.1727958006531,-1.5632597837255,338.316497288939
738346.41415413643699139357,4.14817753634246,-1.57556891588082,338.34111555325
738346.41415422689169645309,4.14817753634246,-1.57556891588082,338.316497288939
738346.41415431734640151262,4.16048666849778,-1.57556891588082,338.378042949716
738346.41415440780110657215,4.16048666849778,-1.5632597837255,338.34111555325
738346.41415449825581163168,4.16048666849778,-1.57556891588082,338.267260760318
738346.41415458871051669121,4.14817753634246,-1.60018718019145,338.34111555325
738346.41415467904880642891,4.16048666849778,-1.57556891588082,338.316497288939
738346.41415476950351148844,4.14817753634246,-1.57556891588082,338.230333363852
738346.41415485995821654797,4.1727958006531,-1.57556891588082,338.242642496007
738346.41415495041292160749,4.16048666849778,-1.58787804803613,338.242642496007
738346.41415504086762666702,4.16048666849778,-1.58787804803613,338.242642496007
738346.41415513132233172655,4.16048666849778,-1.57556891588082,338.230333363852
738346.41415522166062146425,4.14817753634246,-1.60018718019145,338.316497288939
738346.41415531211532652378,4.1727958006531,-1.57556891588082,338.316497288939
738346.41415540257003158331,4.13586840418714,-1.58787804803613,338.316497288939
738346.41415549302473664284,4.14817753634246,-1.58787804803613,338.328806421094
738346.41415558347944170237,4.14817753634246,-1.58787804803613,338.378042949716
738346.41415567381773144007,4.16048666849778,-1.57556891588082,338.304188156784
738346.41415576427243649960,4.16048666849778,-1.60018718019145,338.316497288939
738346.41415585472714155912,4.14817753634246,-1.58787804803613,338.328806421094
738346.41415594518184661865,4.14817753634246,-1.58787804803613,338.353424685405
738346.41415603563655167818,4.1727958006531,-1.57556891588082,338.267260760318
738346.41415612609125673771,4.16048666849778,-1.57556891588082,338.316497288939
738346.41415621642954647541,4.16048666849778,-1.58787804803613,338.242642496007
738346.41415630688425153494,4.16048666849778,-1.57556891588082,338.094932910143
738346.41415639733895659447,4.16048666849778,-1.57556891588082,338.291879024628
738346.41415648779366165400,4.16048666849778,-1.58787804803613,338.267260760318
738346.41415657824836671352,4.16048666849778,-1.58787804803613,338.316497288939
738346.41415666870307177305,4.16048666849778,-1.58787804803613,338.34111555325
738346.41415675904136151075,4.19741406496373,-1.53864151941486,338.267260760318
738346.41415684949606657028,4.22203232927437,-1.51402325510422,338.218024231697
738346.41415693995077162981,4.22203232927437,-1.5017141229489,338.242642496007
738346.41415703040547668934,4.24665059358501,-1.46478672648295,338.279569892473
738346.41415712086018174887,4.28357799005097,-1.44016846217231,338.267260760318
738346.41415721131488680840,4.3081962543616,-1.41555019786167,338.218024231697
738346.41415730165317654610,4.27126885789565,-1.45247759432763,338.291879024628
738346.41415739210788160563,4.22203232927437,-1.5017141229489,338.304188156784
738346.41415748256258666515,4.22203232927437,-1.48940499079358,338.328806421094
738346.41415757301729172468,4.22203232927437,-1.48940499079358,338.328806421094
738346.41415766347199678421,4.18510493280842,-1.53864151941486,338.353424685405
738346.41415775381028652191,4.1727958006531,-1.5632597837255,338.254951628162
738346.41415784426499158144,4.13586840418714,-1.60018718019145,338.34111555325
738346.41415793471969664097,4.13586840418714,-1.60018718019145,338.36573381756
738346.41415802517440170050,4.14817753634246,-1.58787804803613,338.328806421094
738346.41415811562910676003,4.13586840418714,-1.60018718019145,338.267260760318
738346.41415820608381181955,4.13586840418714,-1.60018718019145,338.291879024628
738346.41415829642210155725,4.13586840418714,-1.61249631234677,338.34111555325
738346.41415838687680661678,4.12355927203182,-1.62480544450209,338.304188156784
738346.41415847733151167631,4.14817753634246,-1.60018718019145,338.36573381756
738346.41415856778621673584,4.14817753634246,-1.61249631234677,338.353424685405
738346.41415865824092179537,4.13586840418714,-1.60018718019145,338.36573381756
738346.41415874869562685490,4.12355927203182,-1.61249631234677,338.34111555325
738346.41415883903391659260,4.04970447909991,-1.698660237434,338.378042949716
738346.41415892948862165213,4.13586840418714,-1.60018718019145,338.36573381756
738346.41415901994332671165,4.50514236884671,-1.08320362966806,338.254951628162
738346.41415911039803177118,5.00981678721478,-0.492365286212755,338.193405967386
738346.41415920085273683071,5.57603686635945,0.0369273964659566,337.848750267037
738346.41415929130744189024,5.64989165929136,0.283110039572334,337.737968077639
738346.41415938164573162794,4.91134372997223,-1.1078218939787,337.590258491775
738346.41415947210043668747,4.16048666849778,-2.38797163813186,337.774895474105
738346.41415956255514174700,4.02508621478927,-2.16640725933612,338.033387249367
738346.41415965300984680653,4.20972319711905,-1.63711457665741,338.242642496007
738346.41415974346455186605,4.25895972574033,-1.42785933001699,337.959532456435
738346.41415983391925692558,4.24665059358501,-1.44016846217231,337.984150720745
738346.41415992425754666328,4.22203232927437,-1.46478672648295,338.218024231697
738346.41416001471225172281,4.19741406496373,-1.46478672648295,338.267260760318
738346.41416010516695678234,4.20972319711905,-1.44016846217231,338.316497288939
738346.41416019562166184187,4.19741406496373,-1.45247759432763,338.328806421094
738346.41416028607636690140,4.20972319711905,-1.42785933001699,338.267260760318
738346.41416037641465663910,4.19741406496373,-1.42785933001699,338.279569892473
738346.41416046686936169863,4.20972319711905,-1.42785933001699,338.34111555325
738346.41416055732406675816,4.20972319711905,-1.40324106570635,338.328806421094
738346.41416064777877181768,4.23434146142969,-1.37862280139571,338.316497288939
738346.41416073823347687721,4.23434146142969,-1.37862280139571,338.353424685405
738346.41416082868818193674,4.24665059358501,-1.34169540492976,338.279569892473
738346.41416091902647167444,4.23434146142969,-1.35400453708508,338.353424685405
738346.41416100948117673397,4.27126885789565,-1.29245887630848,338.34111555325
738346.41416109993588179350,4.25895972574033,-1.3047680084638,338.353424685405
738346.41416119039058685303,4.28357799005097,-1.28014974415316,338.36573381756
738346.41416128084529191256,4.28357799005097,-1.25553147984252,338.316497288939
738346.41416137129999697208,4.3081962543616,-1.24322234768721,338.353424685405
738346.41416146163828670979,4.32050538651692,-1.19398581906593,338.316497288939
738346.41416155209299176931,4.32050538651692,-1.15705842259997,338.36573381756
738346.41416164254769682884,4.34512365082756,-1.12013102613402,338.34111555325
738346.41416173300240188837,4.35743278298288,-1.1078218939787,338.36573381756
738346.41416182345710694790,4.3697419151382,-1.0462762332021,338.328806421094
738346.41416191391181200743,4.38205104729352,-1.00934883673615,338.328806421094
738346.41416200425010174513,4.43128757591479,-0.947803175959553,338.328806421094
738346.41416209470480680466,4.44359670807011,-0.886257515182958,338.316497288939
738346.41416218515951186419,4.46821497238075,-0.837020986561683,338.34111555325
738346.41416227561421692371,4.48052410453607,-0.787784457940408,338.34111555325
738346.41416236606892198324,4.51745150100202,-0.750857061474451,338.304188156784
738346.41416245640721172094,4.50514236884671,-0.713929665008494,338.36573381756
738346.41416254686191678047,4.52976063315734,-0.689311400697857,338.353424685405
738346.41416263731662184000,4.52976063315734,-0.701620532853175,338.402661214026
738346.41416272777132689953,4.50514236884671,-0.76316619362977,338.353424685405
738346.41416281822603195906,4.49283323669139,-0.837020986561683,338.451897742648
738346.41416290868073701859,4.44359670807011,-0.935494043804234,338.402661214026
738346.41416299901902675629,4.40666931160415,-1.05858536535742,338.353424685405
738346.41416308947373181581,4.3697419151382,-1.16936755475529,338.390352081871
738346.41416317992843687534,4.33281451867224,-1.25553147984252,338.36573381756
738346.41416327038314193487,4.28357799005097,-1.35400453708508,338.119551174454
738346.41416336083784699440,4.27126885789565,-1.39093193355103,338.242642496007
738346.41416345129255205393,4.23434146142969,-1.45247759432763,338.378042949716
738346.41416354163084179163,4.22203232927437,-1.48940499079358,338.291879024628
738346.41416363208554685116,4.20972319711905,-1.48940499079358,338.230333363852
738346.41416372254025191069,4.22203232927437,-1.48940499079358,338.328806421094
738346.41416381299495697021,4.19741406496373,-1.52633238725954,338.34111555325
738346.41416390344966202974,4.18510493280842,-1.53864151941486,338.254951628162
738346.41416399390436708927,4.19741406496373,-1.52633238725954,338.34111555325
738346.41416408424265682697,4.18510493280842,-1.53864151941486,338.36573381756
738346.41416417469736188650,4.19741406496373,-1.53864151941486,338.328806421094
738346.41416426515206694603,4.20972319711905,-1.52633238725954,338.304188156784
738346.41416435560677200556,4.19741406496373,-1.52633238725954,338.328806421094
738346.41416444606147706509,4.18510493280842,-1.53864151941486,338.328806421094
738346.41416453651618212461,4.18510493280842,-1.52633238725954,338.254951628162
738346.41416462685447186232,4.20972319711905,-1.52633238725954,338.36573381756
738346.41416471730917692184,4.18510493280842,-1.52633238725954,338.254951628162
738346.41416480776388198137,4.18510493280842,-1.53864151941486,338.291879024628
738346.41416489821858704090,4.20972319711905,-1.51402325510422,338.267260760318
738346.41416498867329210043,4.19741406496373,-1.52633238725954,338.254951628162
738346.41416507901158183813,4.19741406496373,-1.53864151941486,338.34111555325
738346.41416516946628689766,4.19741406496373,-1.53864151941486,338.242642496007
738346.41416525992099195719,4.1727958006531,-1.5632597837255,338.242642496007
738346.41416535037569701672,4.18510493280842,-1.57556891588082,338.304188156784
738346.41416544083040207624,4.1727958006531,-1.55095065157018,338.291879024628
738346.41416553128510713577,4.1727958006531,-1.5632597837255,338.242642496007
738346.41416562162339687347,4.1727958006531,-1.55095065157018,338.230333363852
738346.41416571207810193300,4.1727958006531,-1.5632597837255,338.230333363852
738346.41416580253280699253,4.16048666849778,-1.57556891588082,338.230333363852
738346.41416589298751205206,4.16048666849778,-1.58787804803613,338.242642496007
738346.41416598344221711159,4.14817753634246,-1.57556891588082,338.254951628162
738346.41416607389692217112,4.16048666849778,-1.57556891588082,338.279569892473
738346.41416616423521190882,4.14817753634246,-1.58787804803613,338.291879024628
738346.41416625468991696835,4.14817753634246,-1.57556891588082,338.193405967386
738346.41416634514462202787,4.13586840418714,-1.57556891588082,338.304188156784
738346.41416643559932708740,4.12355927203182,-1.60018718019145,338.279569892473
738346.41416652605403214693,4.14817753634246,-1.58787804803613,338.279569892473
738346.41416661650873720646,4.13586840418714,-1.61249631234677,338.316497288939
738346.41416670684702694416,4.13586840418714,-1.61249631234677,338.34111555325
738346.41416679730173200369,4.12355927203182,-1.58787804803613,338.15647857092
738346.41416688775643706322,4.14817753634246,-1.58787804803613,338.15647857092
738346.41416697821114212275,4.14817753634246,-1.60018718019145,338.291879024628
738346.41416706866584718227,4.13586840418714,-1.60018718019145,338.328806421094
738346.41416715900413691998,4.13586840418714,-1.58787804803613,338.36573381756
738346.41416724945884197950,4.14817753634246,-1.58787804803613,338.242642496007
738346.41416733991354703903,4.13586840418714,-1.61249631234677,338.316497288939
738346.41416743036825209856,4.14817753634246,-1.60018718019145,338.328806421094
738346.41416752082295715809,4.14817753634246,-1.58787804803613,338.34111555325
738346.41416761127766221762,4.13586840418714,-1.58787804803613,338.279569892473
738346.41416770161595195532,4.12355927203182,-1.61249631234677,338.36573381756
738346.41416779207065701485,4.14817753634246,-1.60018718019145,338.378042949716
738346.41416788252536207438,4.13586840418714,-1.58787804803613,338.230333363852
738346.41416797298006713390,4.13586840418714,-1.60018718019145,338.316497288939
738346.41416806343477219343,4.14817753634246,-1.58787804803613,338.328806421094
738346.41416815388947725296,4.13586840418714,-1.58787804803613,338.279569892473
738346.41416824422776699066,4.12355927203182,-1.61249631234677,338.34111555325
738346.41416833468247205019,4.14817753634246,-1.58787804803613,338.34111555325
738346.41416842513717710972,4.14817753634246,-1.60018718019145,338.291879024628
738346.41416851559188216925,4.13586840418714,-1.62480544450209,338.267260760318
738346.41416860604658722878,4.14817753634246,-1.57556891588082,338.34111555325
738346.41416869650129228830,4.16048666849778,-1.5632597837255,338.34111555325
738346.41416878683958202600,4.19741406496373,-1.51402325510422,338.254951628162
738346.41416887729428708553,4.20972319711905,-1.51402325510422,338.34111555325
738346.41416896774899214506,4.20972319711905,-1.48940499079358,338.316497288939
738346.41416905820369720459,4.27126885789565,-1.40324106570635,338.254951628162
738346.41416914865840226412,4.25895972574033,-1.44016846217231,338.291879024628
738346.41416923899669200182,4.20972319711905,-1.48940499079358,338.279569892473
738346.41416932945139706135,4.19741406496373,-1.51402325510422,338.254951628162
738346.41416941990610212088,4.20972319711905,-1.47709585863826,338.34111555325
738346.41416951036080718040,4.18510493280842,-1.51402325510422,338.242642496007
738346.41416960081551223993,4.12355927203182,-1.55095065157018,338.279569892473
738346.41416969127021729946,4.13586840418714,-1.55095065157018,338.279569892473
738346.41416978160850703716,4.1112501398765,-1.61249631234677,338.254951628162
738346.41416987206321209669,4.12355927203182,-1.60018718019145,338.267260760318
738346.41416996251791715622,4.12355927203182,-1.60018718019145,338.316497288939
738346.41417005297262221575,4.1112501398765,-1.60018718019145,338.304188156784
738346.41417014342732727528,4.1112501398765,-1.61249631234677,338.316497288939
738346.41417023388203233480,4.12355927203182,-1.58787804803613,338.304188156784
738346.41417032422032207251,4.09894100772118,-1.61249631234677,338.168787703075
738346.41417041467502713203,4.09894100772118,-1.63711457665741,338.168787703075
738346.41417050512973219156,4.12355927203182,-1.58787804803613,338.304188156784
738346.41417059558443725109,4.09894100772118,-1.62480544450209,338.279569892473
738346.41417068603914231062,4.08663187556586,-1.64942370881273,338.328806421094
738346.41417077649384737015,4.02508621478927,-1.67404197312337,338.353424685405
738346.41417086683213710785,4.13586840418714,-1.52633238725954,338.267260760318
738346.41417095728684216738,4.50514236884671,-0.960112308114872,338.218024231697
738346.41417104774154722691,5.05905331583605,-0.332346568193609,338.094932910143
738346.41417113819625228643,5.64989165929136,0.172327850174464,337.947223324279
738346.41417122865095734596,5.77298298084455,0.356964832504247,337.701040681173
738346.41417131910566240549,5.30523595894243,-0.332346568193609,337.602567623931
738346.41417140944395214319,4.38205104729352,-2.1540981271808,337.541021963154
738346.41417149989865720272,3.92661315754672,-2.52337209184037,337.824132002726
738346.41417159035336226225,3.95123142185736,-2.01869767347229,338.058005513677
738346.41417168080806732178,4.19741406496373,-1.52633238725954,338.242642496007
738346.41417177126277238131,4.20972319711905,-1.47709585863826,338.254951628162
738346.41417186160106211901,4.1727958006531,-1.46478672648295,338.316497288939
738346.41417195205576717854,4.16048666849778,-1.46478672648295,338.353424685405
738346.41417204251047223806,4.16048666849778,-1.46478672648295,338.316497288939
738346.41417213296517729759,4.16048666849778,-1.45247759432763,338.353424685405
738346.41417222341988235712,4.1727958006531,-1.45247759432763,338.353424685405
738346.41417231387458741665,4.18510493280842,-1.41555019786167,338.353424685405
738346.41417240421287715435,4.18510493280842,-1.41555019786167,338.291879024628
738346.41417249466758221388,4.1727958006531,-1.40324106570635,338.390352081871
738346.41417258512228727341,4.18510493280842,-1.39093193355103,338.36573381756
738346.41417267557699233294,4.19741406496373,-1.36631366924039,338.378042949716
738346.41417276603169739246,4.19741406496373,-1.34169540492976,338.316497288939
738346.41417285648640245199,4.20972319711905,-1.32938627277444,338.304188156784
738346.41417294682469218969,4.22203232927437,-1.3047680084638,338.267260760318
738346.41417303727939724922,4.22203232927437,-1.29245887630848,338.267260760318
738346.41417312773410230875,4.23434146142969,-1.26784061199784,338.279569892473
738346.41417321818880736828,4.24665059358501,-1.24322234768721,338.316497288939
738346.41417330864351242781,4.24665059358501,-1.24322234768721,338.304188156784
738346.41417339909821748734,4.28357799005097,-1.19398581906593,338.34111555325
738346.41417348943650722504,4.29588712220628,-1.14474929044465,338.328806421094
738346.41417357989121228456,4.29588712220628,-1.13244015828934,338.304188156784
738346.41417367034591734409,4.32050538651692,-1.07089449751274,338.34111555325
738346.41417376080062240362,4.34512365082756,-1.02165796889147,338.414970346182
738346.41417385125532746315,4.33281451867224,-0.984730572425509,338.267260760318
738346.41417394159361720085,4.39436017944884,-0.935494043804234,338.218024231697
738346.41417403204832226038,4.41897844375947,-0.861639250872321,338.36573381756
738346.41417412250302731991,4.43128757591479,-0.800093590095726,338.390352081871
738346.41417421295773237944,4.43128757591479,-0.76316619362977,338.390352081871
738346.41417430341243743896,4.48052410453607,-0.689311400697857,338.402661214026
738346.41417439386714249849,4.48052410453607,-0.677002268542538,338.427279478337
738346.41417448420543223619,4.46821497238075,-0.677002268542538,338.316497288939
738346.41417457466013729572,4.48052410453607,-0.677002268542538,338.353424685405
738346.41417466511484235525,4.45590584022543,-0.750857061474451,338.378042949716
738346.41417475556954741478,4.45590584022543,-0.861639250872321,338.36573381756
738346.41417484602425247431,4.40666931160415,-0.972421440270191,338.328806421094
738346.41417493647895753384,4.38205104729352,-1.07089449751274,338.34111555325
738346.41417502681724727154,4.35743278298288,-1.14474929044465,338.34111555325
738346.41417511727195233107,4.29588712220628,-1.24322234768721,338.353424685405
738346.41417520772665739059,4.25895972574033,-1.32938627277444,338.254951628162
738346.41417529818136245012,4.23434146142969,-1.40324106570635,338.291879024628
738346.41417538863606750965,4.22203232927437,-1.45247759432763,338.291879024628
738346.41417547909077256918,4.1727958006531,-1.48940499079358,338.242642496007
738346.41417556942906230688,4.18510493280842,-1.5017141229489,338.279569892473
738346.41417565988376736641,4.18510493280842,-1.52633238725954,338.230333363852
738346.41417575033847242594,4.16048666849778,-1.53864151941486,338.230333363852
738346.41417584079317748547,4.19741406496373,-1.51402325510422,338.218024231697
738346.41417593124788254499,4.1727958006531,-1.55095065157018,338.205715099541
738346.41417602170258760452,4.1727958006531,-1.53864151941486,338.230333363852
738346.41417611204087734222,4.16048666849778,-1.5632597837255,338.218024231697
738346.41417620249558240175,4.1727958006531,-1.55095065157018,338.316497288939
738346.41417629295028746128,4.1727958006531,-1.53864151941486,338.316497288939
738346.41417638340499252081,4.1727958006531,-1.53864151941486,338.218024231697
738346.41417647385969758034,4.1727958006531,-1.5632597837255,338.291879024628
738346.41417656419798731804,4.1727958006531,-1.52633238725954,338.279569892473
738346.41417665465269237757,4.14817753634246,-1.53864151941486,338.291879024628
738346.41417674510739743710,4.1727958006531,-1.53864151941486,338.304188156784
738346.41417683556210249662,4.1727958006531,-1.53864151941486,338.316497288939
738346.41417692601680755615,4.14817753634246,-1.55095065157018,338.34111555325
738346.41417701647151261568,4.1727958006531,-1.52633238725954,338.328806421094
738346.41417710680980235338,4.16048666849778,-1.5632597837255,338.267260760318
738346.41417719726450741291,4.16048666849778,-1.55095065157018,338.242642496007
738346.41417728771921247244,4.16048666849778,-1.53864151941486,338.242642496007
738346.41417737817391753197,4.13586840418714,-1.57556891588082,338.193405967386
738346.41417746862862259150,4.12355927203182,-1.58787804803613,338.119551174454
738346.41417755908332765102,4.14817753634246,-1.5632597837255,338.218024231697
738346.41417764942161738873,4.14817753634246,-1.58787804803613,338.279569892473
738346.41417773987632244825,4.12355927203182,-1.58787804803613,338.291879024628
738346.41417783033102750778,4.12355927203182,-1.60018718019145,338.267260760318
738346.41417792078573256731,4.13586840418714,-1.5632597837255,338.304188156784
738346.41417801124043762684,4.12355927203182,-1.58787804803613,338.304188156784
738346.41417810169514268637,4.12355927203182,-1.58787804803613,338.267260760318
738346.41417819203343242407,4.12355927203182,-1.58787804803613,338.267260760318
738346.41417828248813748360,4.12355927203182,-1.58787804803613,338.328806421094
738346.41417837294284254313,4.12355927203182,-1.61249631234677,338.291879024628
738346.41417846339754760265,4.12355927203182,-1.60018718019145,338.279569892473
738346.41417855385225266218,4.09894100772118,-1.60018718019145,338.328806421094
738346.41417864419054239988,4.12355927203182,-1.60018718019145,338.328806421094
738346.41417873464524745941,4.1112501398765,-1.61249631234677,338.279569892473
738346.41417882509995251894,4.12355927203182,-1.58787804803613,338.304188156784
738346.41417891555465757847,4.1112501398765,-1.61249631234677,338.328806421094
738346.41417900600936263800,4.13586840418714,-1.60018718019145,338.316497288939
738346.41417909646406769753,4.08663187556586,-1.63711457665741,338.254951628162
738346.41417918680235743523,4.1112501398765,-1.62480544450209,338.316497288939
738346.41417927725706249475,4.1112501398765,-1.61249631234677,338.34111555325
738346.41417936771176755428,4.1112501398765,-1.62480544450209,338.267260760318
738346.41417945816647261381,4.09894100772118,-1.62480544450209,338.230333363852
738346.41417954862117767334,4.09894100772118,-1.61249631234677,338.242642496007
738346.41417963907588273287,4.09894100772118,-1.62480544450209,338.291879024628
738346.41417972941417247057,4.1112501398765,-1.61249631234677,338.267260760318
738346.41417981986887753010,4.09894100772118,-1.61249631234677,338.34111555325
738346.41417991032358258963,4.09894100772118,-1.62480544450209,338.34111555325
738346.41418000077828764915,4.1112501398765,-1.61249631234677,338.291879024628
738346.41418009123299270868,4.1112501398765,-1.61249631234677,338.316497288939
738346.41418018168769776821,4.09894100772118,-1.61249631234677,338.316497288939
738346.41418027202598750591,4.09894100772118,-1.61249631234677,338.279569892473
738346.41418036248069256544,4.09894100772118,-1.61249631234677,338.328806421094
738346.41418045293539762497,4.1112501398765,-1.61249631234677,338.34111555325
738346.41418054339010268450,4.08663187556586,-1.62480544450209,338.254951628162
738346.41418063384480774403,4.08663187556586,-1.62480544450209,338.279569892473
738346.41418072429951280355,4.1112501398765,-1.61249631234677,338.291879024628
738346.41418081463780254126,4.1112501398765,-1.63711457665741,338.291879024628
738346.41418090509250760078,4.09894100772118,-1.61249631234677,338.218024231697
738346.41418099554721266031,4.13586840418714,-1.5632597837255,338.193405967386
738346.41418108600191771984,4.16048666849778,-1.55095065157018,338.353424685405
738346.41418117645662277937,4.1727958006531,-1.53864151941486,338.279569892473
738346.41418126679491251707,4.19741406496373,-1.5017141229489,338.267260760318
738346.41418135724961757660,4.23434146142969,-1.45247759432763,338.131860306609
738346.41418144770432263613,4.23434146142969,-1.46478672648295,338.205715099541
738346.41418153815902769566,4.1727958006531,-1.51402325510422,338.193405967386
738346.41418162861373275518,4.1727958006531,-1.51402325510422,338.230333363852
738346.41418171906843781471,4.16048666849778,-1.52633238725954,338.242642496007
738346.41418180940672755241,4.14817753634246,-1.53864151941486,338.254951628162
738346.41418189986143261194,4.09894100772118,-1.58787804803613,338.230333363852
738346.41418199031613767147,4.08663187556586,-1.62480544450209,338.242642496007
738346.41418208077084273100,4.07432274341055,-1.66173284096805,338.304188156784
738346.41418217122554779053,4.08663187556586,-1.62480544450209,338.279569892473
738346.41418226168025285006,4.07432274341055,-1.63711457665741,338.304188156784
738346.41418235201854258776,4.08663187556586,-1.62480544450209,338.304188156784
738346.41418244247324764729,4.08663187556586,-1.64942370881273,338.267260760318
738346.41418253292795270681,4.07432274341055,-1.64942370881273,338.230333363852
738346.41418262338265776634,4.09894100772118,-1.62480544450209,338.254951628162
738346.41418271383736282587,4.06201361125523,-1.64942370881273,338.291879024628
738346.41418280429206788540,4.06201361125523,-1.66173284096805,338.291879024628
738346.41418289463035762310,4.07432274341055,-1.63711457665741,338.328806421094
738346.41418298508506268263,4.01277708263395,-1.68635110527868,338.267260760318
738346.41418307553976774216,3.98815881832331,-1.74789676605528,338.34111555325
738346.41418316599447280169,4.13586840418714,-1.53864151941486,338.267260760318
738346.41418325644917786121,4.60361542608926,-0.947803175959553,338.168787703075
738346.41418334678746759892,5.13290810876797,-0.344655700348928,338.045696381522
738346.41418343724217265844,5.63758252713604,0.147709585863826,337.725658945484
738346.41418352769687771797,5.4775638091169,0.123091321553189,337.713349813328
738346.41418361815158277750,4.61592455824458,-1.58787804803613,337.565640227465
738346.41418370860628783703,4.00046795047863,-2.42489903459782,337.811822870571
738346.41418379906099289656,4.00046795047863,-2.03100680562761,338.070314645833
738346.41418388939928263426,4.1727958006531,-1.5632597837255,338.193405967386
738346.41418397985398769379,4.19741406496373,-1.47709585863826,338.254951628162
738346.41418407030869275331,4.14817753634246,-1.48940499079358,338.267260760318
738346.41418416076339781284,4.16048666849778,-1.48940499079358,338.304188156784
738346.41418425121810287237,4.13586840418714,-1.48940499079358,338.316497288939
738346.41418434167280793190,4.16048666849778,-1.45247759432763,338.316497288939
738346.41418443201109766960,4.13586840418714,-1.46478672648295,338.304188156784
738346.41418452246580272913,4.13586840418714,-1.47709585863826,338.144169438765
738346.41418461292050778866,4.14817753634246,-1.46478672648295,338.291879024628
738346.41418470337521284819,4.16048666849778,-1.44016846217231,338.328806421094
738346.41418479382991790771,4.16048666849778,-1.41555019786167,338.390352081871
738346.41418488428462296724,4.16048666849778,-1.41555019786167,338.378042949716
738346.41418497462291270494,4.18510493280842,-1.40324106570635,338.279569892473
738346.41418506507761776447,4.1727958006531,-1.37862280139571,338.36573381756
738346.41418515553232282400,4.19741406496373,-1.34169540492976,338.390352081871
738346.41418524598702788353,4.20972319711905,-1.32938627277444,338.353424685405
738346.41418533644173294306,4.20972319711905,-1.31707714061912,338.36573381756
738346.41418542678002268076,4.20972319711905,-1.29245887630848,338.34111555325
738346.41418551723472774029,4.23434146142969,-1.25553147984252,338.36573381756
738346.41418560768943279982,4.23434146142969,-1.25553147984252,338.36573381756
738346.41418569814413785934,4.24665059358501,-1.20629495122125,338.36573381756
738346.41418578859884291887,4.27126885789565,-1.16936755475529,338.427279478337
738346.41418587905354797840,4.28357799005097,-1.14474929044465,338.378042949716
738346.41418596939183771610,4.3081962543616,-1.08320362966806,338.291879024628
738346.41418605984654277563,4.32050538651692,-1.03396710104678,338.328806421094
738346.41418615030124783516,4.34512365082756,-0.972421440270191,338.316497288939
738346.41418624075595289469,4.3697419151382,-0.923184911648915,338.328806421094
738346.41418633121065795422,4.38205104729352,-0.886257515182958,338.34111555325
738346.41418642166536301374,4.41897844375947,-0.812402722251045,338.291879024628
738346.41418651200365275145,4.44359670807011,-0.775475325785089,338.328806421094
738346.41418660245835781097,4.44359670807011,-0.738547929319132,338.328806421094
738346.41418669291306287050,4.46821497238075,-0.701620532853175,338.34111555325
738346.41418678336776793003,4.46821497238075,-0.701620532853175,338.291879024628
738346.41418687382247298956,4.45590584022543,-0.750857061474451,338.279569892473
738346.41418696427717804909,4.44359670807011,-0.787784457940408,338.316497288939
738346.41418705461546778679,4.43128757591479,-0.886257515182958,338.316497288939
738346.41418714507017284632,4.35743278298288,-1.00934883673615,338.34111555325
738346.41418723552487790585,4.34512365082756,-1.12013102613402,338.304188156784
738346.41418732597958296537,4.27126885789565,-1.23091321553189,338.34111555325
738346.41418741643428802490,4.25895972574033,-1.31707714061912,338.378042949716
738346.41418750688899308443,4.20972319711905,-1.37862280139571,338.279569892473
738346.41418759722728282213,4.20972319711905,-1.45247759432763,338.316497288939
738346.41418768768198788166,4.18510493280842,-1.5017141229489,338.267260760318
738346.41418777813669294119,4.16048666849778,-1.48940499079358,338.254951628162
738346.41418786859139800072,4.14817753634246,-1.53864151941486,338.242642496007
738346.41418795904610306025,4.13586840418714,-1.53864151941486,338.082623777988
738346.41418804938439279795,4.13586840418714,-1.5632597837255,338.168787703075
738346.41418813983909785748,4.13586840418714,-1.55095065157018,338.254951628162
738346.41418823029380291700,4.13586840418714,-1.55095065157018,338.254951628162
738346.41418832074850797653,4.12355927203182,-1.58787804803613,338.291879024628
738346.41418841120321303606,4.14817753634246,-1.55095065157018,338.304188156784
738346.41418850165791809559,4.12355927203182,-1.55095065157018,338.230333363852
738346.41418859199620783329,4.13586840418714,-1.55095065157018,338.316497288939
738346.41418868245091289282,4.13586840418714,-1.5632597837255,338.304188156784
738346.41418877290561795235,4.12355927203182,-1.55095065157018,338.230333363852
738346.41418886336032301188,4.16048666849778,-1.53864151941486,338.291879024628
738346.41418895381502807140,4.13586840418714,-1.53864151941486,338.328806421094
738346.41418904426973313093,4.14817753634246,-1.55095065157018,338.316497288939
738346.41418913460802286863,4.13586840418714,-1.5632597837255,338.242642496007
738346.41418922506272792816,4.14817753634246,-1.55095065157018,338.291879024628
738346.41418931551743298769,4.12355927203182,-1.57556891588082,338.291879024628
738346.41418940597213804722,4.13586840418714,-1.5632597837255,338.205715099541
738346.41418949642684310675,4.13586840418714,-1.5632597837255,338.316497288939
738346.41418958688154816628,4.12355927203182,-1.58787804803613,338.304188156784
738346.41418967721983790398,4.1112501398765,-1.57556891588082,338.267260760318
738346.41418976767454296350,4.12355927203182,-1.5632597837255,338.291879024628
738346.41418985812924802303,4.12355927203182,-1.57556891588082,338.316497288939
738346.41418994858395308256,4.12355927203182,-1.60018718019145,338.279569892473
738346.41419003903865814209,4.13586840418714,-1.60018718019145,338.205715099541
738346.41419012937694787979,4.13586840418714,-1.60018718019145,338.316497288939
738346.41419021983165293932,4.1112501398765,-1.58787804803613,338.291879024628
738346.41419031028635799885,4.09894100772118,-1.61249631234677,338.218024231697
738346.41419040074106305838,4.12355927203182,-1.60018718019145,338.291879024628
738346.41419049119576811790,4.1112501398765,-1.60018718019145,338.242642496007
738346.41419058165047317743,4.09894100772118,-1.61249631234677,338.254951628162
738346.41419067198876291513,4.1112501398765,-1.60018718019145,338.254951628162
738346.41419076244346797466,4.1112501398765,-1.61249631234677,338.267260760318
738346.41419085289817303419,4.09894100772118,-1.61249631234677,338.279569892473
738346.41419094335287809372,4.1112501398765,-1.61249631234677,338.218024231697
738346.41419103380758315325,4.09894100772118,-1.61249631234677,338.205715099541
738346.41419112426228821278,4.09894100772118,-1.60018718019145,338.267260760318
738346.41419121460057795048,4.09894100772118,-1.61249631234677,338.254951628162
738346.41419130505528301001,4.09894100772118,-1.61249631234677,338.242642496007
738346.41419139550998806953,4.09894100772118,-1.61249631234677,338.279569892473
738346.41419148596469312906,4.08663187556586,-1.61249631234677,338.094932910143
738346.41419157641939818859,4.08663187556586,-1.62480544450209,338.218024231697
738346.41419166687410324812,4.09894100772118,-1.61249631234677,338.291879024628
738346.41419175721239298582,4.07432274341055,-1.61249631234677,338.230333363852
738346.41419184766709804535,4.08663187556586,-1.61249631234677,338.279569892473
738346.41419193812180310488,4.09894100772118,-1.62480544450209,338.267260760318
738346.41419202857650816441,4.09894100772118,-1.61249631234677,338.254951628162
738346.41419211903121322393,4.09894100772118,-1.61249631234677,338.267260760318
738346.41419220948591828346,4.09894100772118,-1.61249631234677,338.328806421094
738346.41419229982420802116,4.09894100772118,-1.62480544450209,338.267260760318
738346.41419239027891308069,4.08663187556586,-1.60018718019145,338.242642496007
738346.41419248073361814022,4.09894100772118,-1.60018718019145,338.267260760318
738346.41419257118832319975,4.09894100772118,-1.61249631234677,338.353424685405
738346.41419266164302825928,4.09894100772118,-1.62480544450209,338.328806421094
738346.41419275198131799698,4.08663187556586,-1.62480544450209,338.291879024628
738346.41419284243602305651,4.09894100772118,-1.61249631234677,338.291879024628
738346.41419293289072811604,4.09894100772118,-1.61249631234677,338.291879024628
738346.41419302334543317556,4.08663187556586,-1.61249631234677,338.316497288939
738346.41419311380013823509,4.07432274341055,-1.61249631234677,338.279569892473
738346.41419320425484329462,4.12355927203182,-1.5632597837255,338.36573381756
738346.41419329459313303232,4.14817753634246,-1.52633238725954,338.328806421094
738346.41419338504783809185,4.16048666849778,-1.53864151941486,338.279569892473
738346.41419347550254315138,4.14817753634246,-1.51402325510422,338.316497288939
738346.41419356595724821091,4.20972319711905,-1.46478672648295,338.304188156784
738346.41419365641195327044,4.23434146142969,-1.44016846217231,338.267260760318
738346.41419374686665832996,4.19741406496373,-1.48940499079358,338.291879024628
738346.41419383720494806767,4.14817753634246,-1.52633238725954,338.34111555325
738346.41419392765965312719,4.12355927203182,-1.53864151941486,338.328806421094
738346.41419401811435818672,4.16048666849778,-1.51402325510422,338.279569892473
738346.41419410856906324625,4.13586840418714,-1.53864151941486,338.316497288939
738346.41419419902376830578,4.09894100772118,-1.60018718019145,338.316497288939
738346.41419428947847336531,4.07432274341055,-1.62480544450209,338.242642496007
738346.41419437981676310301,4.08663187556586,-1.62480544450209,338.205715099541
738346.41419447027146816254,4.07432274341055,-1.62480544450209,338.218024231697
738346.41419456072617322206,4.07432274341055,-1.61249631234677,338.218024231697
738346.41419465118087828159,4.06201361125523,-1.62480544450209,338.230333363852
738346.41419474163558334112,4.04970447909991,-1.64942370881273,338.242642496007
738346.41419483197387307882,4.08663187556586,-1.61249631234677,338.242642496007
738346.41419492242857813835,4.08663187556586,-1.62480544450209,338.242642496007
738346.41419501288328319788,4.06201361125523,-1.63711457665741,338.131860306609
738346.41419510333798825741,4.06201361125523,-1.63711457665741,338.181096835231
738346.41419519379269331694,4.06201361125523,-1.62480544450209,338.304188156784
738346.41419528424739837646,3.98815881832331,-1.698660237434,338.34111555325
738346.41419537458568811417,4.03739534694459,-1.62480544450209,338.242642496007
738346.41419546504039317369,4.35743278298288,-1.18167668691061,338.267260760318
738346.41419555549509823322,4.88672546566159,-0.504674418368074,338.070314645833
738346.41419564594980329275,5.50218207342753,0.0615456607765943,337.750277209794
738346.41419573640450835228,5.66220079144668,0.406201361125523,337.713349813328
738346.41419582685921341181,5.45294554480626,0.0738547929319132,337.627185888241
738346.41419591719750314951,4.50514236884671,-1.74789676605528,337.491785434533
738346.41419600765220820904,3.95123142185736,-2.51106295968505,337.750277209794
738346.41419609810691326857,3.93892228970204,-2.10486159855953,338.021078117211
738346.41419618856161832809,4.13586840418714,-1.58787804803613,338.168787703075
738346.41419627901632338762,4.18510493280842,-1.44016846217231,338.254951628162
738346.41419636947102844715,4.1727958006531,-1.45247759432763,338.230333363852
738346.41419645980931818485,4.14817753634246,-1.47709585863826,338.279569892473
738346.41419655026402324438,4.12355927203182,-1.47709585863826,338.218024231697
738346.41419664071872830391,4.16048666849778,-1.42785933001699,338.291879024628
738346.41419673117343336344,4.14817753634246,-1.44016846217231,338.304188156784
738346.41419682162813842297,4.12355927203182,-1.45247759432763,338.316497288939
738346.41419691196642816067,4.14817753634246,-1.41555019786167,338.353424685405
738346.41419700242113322020,4.16048666849778,-1.39093193355103,338.328806421094
738346.41419709287583827972,4.16048666849778,-1.39093193355103,338.304188156784
738346.41419718333054333925,4.16048666849778,-1.36631366924039,338.316497288939
738346.41419727378524839878,4.19741406496373,-1.34169540492976,338.36573381756
738346.41419736423995345831,4.19741406496373,-1.32938627277444,338.291879024628
738346.41419745457824319601,4.20972319711905,-1.3047680084638,338.328806421094
738346.41419754503294825554,4.20972319711905,-1.29245887630848,338.316497288939
738346.41419763548765331507,4.22203232927437,-1.26784061199784,338.316497288939
738346.41419772594235837460,4.22203232927437,-1.24322234768721,338.279569892473
738346.41419781639706343412,4.23434146142969,-1.21860408337657,338.316497288939
738346.41419790685176849365,4.24665059358501,-1.20629495122125,338.34111555325
738346.41419799719005823135,4.25895972574033,-1.16936755475529,338.304188156784
738346.41419808764476329088,4.28357799005097,-1.1078218939787,338.279569892473
738346.41419817809946835041,4.29588712220628,-1.08320362966806,338.254951628162
738346.41419826855417340994,4.32050538651692,-1.02165796889147,338.254951628162
738346.41419835900887846947,4.33281451867224,-0.997039704580828,338.267260760318
738346.41419844946358352900,4.35743278298288,-0.923184911648915,338.254951628162
738346.41419853980187326670,4.3697419151382,-0.849330118717002,338.181096835231
738346.41419863025657832623,4.41897844375947,-0.800093590095726,338.218024231697
738346.41419872071128338575,4.41897844375947,-0.76316619362977,338.328806421094
738346.41419881116598844528,4.45590584022543,-0.713929665008494,338.316497288939
738346.41419890162069350481,4.45590584022543,-0.677002268542538,338.390352081871
738346.41419899207539856434,4.48052410453607,-0.664693136387219,338.390352081871
738346.41419908241368830204,4.46821497238075,-0.664693136387219,338.353424685405
738346.41419917286839336157,4.44359670807011,-0.726238797163813,338.353424685405
738346.41419926332309842110,4.43128757591479,-0.812402722251045,338.390352081871
738346.41419935377780348063,4.39436017944884,-0.923184911648915,338.378042949716
738346.41419944423250854015,4.35743278298288,-1.0462762332021,338.291879024628
738346.41419953457079827785,4.33281451867224,-1.1078218939787,338.328806421094
738346.41419962502550333738,4.32050538651692,-1.20629495122125,338.328806421094
738346.41419971548020839691,4.27126885789565,-1.3047680084638,338.218024231697
738346.41419980593491345644,4.22203232927437,-1.37862280139571,338.205715099541
738346.41419989638961851597,4.19741406496373,-1.44016846217231,338.242642496007
738346.41419998684432357550,4.18510493280842,-1.47709585863826,338.218024231697
738346.41420007718261331320,4.16048666849778,-1.5017141229489,338.218024231697
738346.41420016763731837273,4.16048666849778,-1.51402325510422,338.254951628162
738346.41420025809202343225,4.14817753634246,-1.53864151941486,338.254951628162
738346.41420034854672849178,4.14817753634246,-1.52633238725954,338.193405967386
738346.41420043900143355131,4.14817753634246,-1.53864151941486,338.230333363852
738346.41420052945613861084,4.14817753634246,-1.53864151941486,338.254951628162
738346.41420061979442834854,4.13586840418714,-1.55095065157018,338.144169438765
738346.41420071024913340807,4.14817753634246,-1.53864151941486,338.181096835231
738346.41420080070383846760,4.14817753634246,-1.53864151941486,338.168787703075
738346.41420089115854352713,4.14817753634246,-1.53864151941486,338.205715099541
738346.41420098161324858665,4.16048666849778,-1.53864151941486,338.168787703075
738346.41420107206795364618,4.16048666849778,-1.53864151941486,338.168787703075
738346.41420116240624338388,4.16048666849778,-1.52633238725954,338.181096835231
738346.41420125286094844341,4.1727958006531,-1.51402325510422,338.230333363852
738346.41420134331565350294,4.1727958006531,-1.52633238725954,338.230333363852
738346.41420143377035856247,4.16048666849778,-1.52633238725954,338.15647857092
738346.41420152422506362200,4.14817753634246,-1.51402325510422,338.242642496007
738346.41420161456335335970,4.13586840418714,-1.55095065157018,338.291879024628
738346.41420170501805841923,4.14817753634246,-1.53864151941486,338.316497288939
738346.41420179547276347876,4.14817753634246,-1.55095065157018,338.230333363852
738346.41420188592746853828,4.14817753634246,-1.55095065157018,338.304188156784
738346.41420197638217359781,4.13586840418714,-1.5632597837255,338.267260760318
738346.41420206683687865734,4.13586840418714,-1.5632597837255,338.119551174454
738346.41420215717516839504,4.12355927203182,-1.55095065157018,338.15647857092
738346.41420224762987345457,4.12355927203182,-1.5632597837255,338.304188156784
738346.41420233808457851410,4.12355927203182,-1.57556891588082,338.291879024628
738346.41420242853928357363,4.12355927203182,-1.57556891588082,338.254951628162
738346.41420251899398863316,4.12355927203182,-1.57556891588082,338.279569892473
738346.41420260944869369268,4.1112501398765,-1.58787804803613,338.291879024628
738346.41420269978698343039,4.13586840418714,-1.57556891588082,338.181096835231
738346.41420279024168848991,4.1112501398765,-1.58787804803613,338.218024231697
738346.41420288069639354944,4.12355927203182,-1.57556891588082,338.218024231697
738346.41420297115109860897,4.1112501398765,-1.58787804803613,338.218024231697
738346.41420306160580366850,4.1112501398765,-1.60018718019145,338.242642496007
738346.41420315206050872803,4.1112501398765,-1.58787804803613,338.254951628162
738346.41420324239879846573,4.1112501398765,-1.61249631234677,338.218024231697
738346.41420333285350352526,4.1112501398765,-1.60018718019145,338.205715099541
738346.41420342330820858479,4.1112501398765,-1.58787804803613,338.242642496007
738346.41420351376291364431,4.1112501398765,-1.58787804803613,338.254951628162
738346.41420360421761870384,4.09894100772118,-1.58787804803613,338.267260760318
738346.41420369467232376337,4.1112501398765,-1.61249631234677,338.291879024628
738346.41420378501061350107,4.12355927203182,-1.58787804803613,338.254951628162
738346.41420387546531856060,4.09894100772118,-1.61249631234677,338.230333363852
738346.41420396592002362013,4.08663187556586,-1.61249631234677,338.267260760318
738346.41420405637472867966,4.12355927203182,-1.58787804803613,338.291879024628
738346.41420414682943373919,4.08663187556586,-1.61249631234677,338.242642496007
738346.41420423716772347689,4.1112501398765,-1.61249631234677,338.181096835231
738346.41420432762242853642,4.09894100772118,-1.61249631234677,338.242642496007
738346.41420441807713359594,4.1112501398765,-1.60018718019145,338.242642496007
738346.41420450853183865547,4.1112501398765,-1.60018718019145,338.218024231697
738346.41420459898654371500,4.09894100772118,-1.61249631234677,338.205715099541
738346.41420468944124877453,4.09894100772118,-1.60018718019145,338.205715099541
738346.41420477977953851223,4.1112501398765,-1.58787804803613,338.193405967386
738346.41420487023424357176,4.09894100772118,-1.61249631234677,338.15647857092
738346.41420496068894863129,4.1112501398765,-1.61249631234677,338.193405967386
738346.41420505114365369081,4.09894100772118,-1.60018718019145,338.242642496007
738346.41420514159835875034,4.09894100772118,-1.61249631234677,338.254951628162
738346.41420523205306380987,4.09894100772118,-1.61249631234677,338.230333363852
738346.41420532239135354757,4.08663187556586,-1.63711457665741,338.291879024628
738346.41420541284605860710,4.12355927203182,-1.57556891588082,338.36573381756
738346.41420550330076366663,4.13586840418714,-1.55095065157018,338.279569892473
738346.41420559375546872616,4.16048666849778,-1.51402325510422,338.267260760318
738346.41420568421017378569,4.1727958006531,-1.52633238725954,338.144169438765
738346.41420577466487884521,4.19741406496373,-1.48940499079358,338.304188156784
738346.41420586500316858292,4.23434146142969,-1.45247759432763,338.230333363852
738346.41420595545787364244,4.23434146142969,-1.44016846217231,338.328806421094
738346.41420604591257870197,4.18510493280842,-1.48940499079358,338.328806421094
738346.41420613636728376150,4.16048666849778,-1.51402325510422,338.279569892473
738346.41420622682198882103,4.14817753634246,-1.52633238725954,338.316497288939
738346.41420631716027855873,4.14817753634246,-1.55095065157018,338.304188156784
738346.41420640761498361826,4.1112501398765,-1.57556891588082,338.242642496007
738346.41420649806968867779,4.09894100772118,-1.62480544450209,338.328806421094
738346.41420658852439373732,4.08663187556586,-1.61249631234677,338.328806421094
738346.41420667897909879684,4.07432274341055,-1.62480544450209,338.267260760318
738346.41420676943380385637,4.08663187556586,-1.63711457665741,338.291879024628
738346.41420685977209359407,4.09894100772118,-1.63711457665741,338.316497288939
738346.41420695022679865360,4.08663187556586,-1.62480544450209,338.304188156784
738346.41420704068150371313,4.07432274341055,-1.63711457665741,338.279569892473
738346.41420713113620877266,4.08663187556586,-1.63711457665741,338.230333363852
738346.41420722159091383219,4.08663187556586,-1.63711457665741,338.218024231697
738346.41420731204561889172,4.09894100772118,-1.62480544450209,338.242642496007
738346.41420740238390862942,4.08663187556586,-1.63711457665741,338.254951628162
738346.41420749283861368895,4.03739534694459,-1.67404197312337,338.279569892473
738346.41420758329331874847,3.97584968616799,-1.73558763389996,338.304188156784
738346.41420767374802380800,4.1727958006531,-1.47709585863826,338.205715099541
738346.41420776420272886753,4.62823369039989,-0.886257515182958,338.094932910143
738346.41420785465743392706,5.18214463738924,-0.307728303882972,337.947223324279
738346.41420794499572366476,5.66220079144668,0.172327850174464,337.639495020397
738346.41420803545042872429,5.4160181483403,0.0123091321553189,337.565640227465
738346.41420812590513378382,4.54206976531266,-1.71096936958932,337.491785434533
738346.41420821635983884335,4.01277708263395,-2.40028077028718,337.836441134882
738346.41420830681454390287,4.02508621478927,-2.00638854131698,337.996459852901
738346.41420839715283364058,4.20972319711905,-1.51402325510422,338.144169438765
738346.41420848760753870010,4.1727958006531,-1.46478672648295,338.230333363852
738346.41420857806224375963,4.1727958006531,-1.45247759432763,338.254951628162
738346.41420866851694881916,4.16048666849778,-1.48940499079358,338.279569892473
738346.41420875897165387869,4.14817753634246,-1.47709585863826,338.291879024628
738346.41420884942635893822,4.13586840418714,-1.46478672648295,338.279569892473
738346.41420893976464867592,4.13586840418714,-1.46478672648295,338.304188156784
738346.41420903021935373545,4.14817753634246,-1.44016846217231,338.328806421094
738346.41420912067405879498,4.14817753634246,-1.42785933001699,338.230333363852
738346.41420921112876385450,4.16048666849778,-1.42785933001699,338.15647857092
738346.41420930158346891403,4.1727958006531,-1.41555019786167,338.254951628162
738346.41420939203817397356,4.1727958006531,-1.39093193355103,338.279569892473
738346.41420948237646371126,4.18510493280842,-1.37862280139571,338.267260760318
738346.41420957283116877079,4.18510493280842,-1.36631366924039,338.328806421094
738346.41420966328587383032,4.19741406496373,-1.34169540492976,338.328806421094
738346.41420975374057888985,4.20972319711905,-1.31707714061912,338.279569892473
738346.41420984419528394938,4.20972319711905,-1.31707714061912,338.34111555325
738346.41420993464998900890,4.20972319711905,-1.28014974415316,338.36573381756
738346.41421002498827874660,4.24665059358501,-1.23091321553189,338.36573381756
738346.41421011544298380613,4.25895972574033,-1.21860408337657,338.36573381756
738346.41421020589768886566,4.27126885789565,-1.20629495122125,338.36573381756
738346.41421029635239392519,4.29588712220628,-1.14474929044465,338.36573381756
738346.41421038680709898472,4.3081962543616,-1.09551276182338,338.328806421094
738346.41421047726180404425,4.32050538651692,-1.07089449751274,338.353424685405
738346.41421056760009378195,4.34512365082756,-0.997039704580828,338.414970346182
738346.41421065805479884148,4.3697419151382,-0.935494043804234,338.34111555325
738346.41421074850950390100,4.40666931160415,-0.87394838302764,338.390352081871
738346.41421083896420896053,4.41897844375947,-0.824711854406364,338.439588610492
738346.41421092941891402006,4.41897844375947,-0.812402722251045,338.427279478337
738346.41421101975720375776,4.45590584022543,-0.726238797163813,338.378042949716
738346.41421111021190881729,4.45590584022543,-0.701620532853175,338.427279478337
738346.41421120066661387682,4.48052410453607,-0.677002268542538,338.464206874803
738346.41421129112131893635,4.49283323669139,-0.677002268542538,338.378042949716
738346.41421138157602399588,4.46821497238075,-0.713929665008494,338.464206874803
738346.41421147203072905540,4.44359670807011,-0.787784457940408,338.205715099541
738346.41421156236901879311,4.41897844375947,-0.898566647338277,338.304188156784
738346.41421165282372385263,4.38205104729352,-0.997039704580828,338.267260760318
738346.41421174327842891216,4.32050538651692,-1.14474929044465,338.279569892473
738346.41421183373313397169,4.28357799005097,-1.23091321553189,338.291879024628
738346.41421192418783903122,4.25895972574033,-1.32938627277444,338.291879024628
738346.41421201464254409075,4.22203232927437,-1.39093193355103,338.316497288939
738346.41421210498083382845,4.18510493280842,-1.45247759432763,338.230333363852
738346.41421219543553888798,4.18510493280842,-1.48940499079358,338.230333363852
738346.41421228589024394751,4.16048666849778,-1.51402325510422,338.291879024628
738346.41421237634494900703,4.14817753634246,-1.53864151941486,338.291879024628
738346.41421246679965406656,4.14817753634246,-1.53864151941486,338.218024231697
738346.41421255725435912609,4.14817753634246,-1.55095065157018,338.279569892473
738346.41421264759264886379,4.13586840418714,-1.55095065157018,338.094932910143
738346.41421273804735392332,4.13586840418714,-1.55095065157018,338.119551174454
738346.41421282850205898285,4.14817753634246,-1.55095065157018,338.181096835231
738346.41421291895676404238,4.14817753634246,-1.5632597837255,338.291879024628
738346.41421300941146910191,4.14817753634246,-1.5632597837255,338.254951628162
738346.41421309974975883961,4.13586840418714,-1.5632597837255,338.218024231697
738346.41421319020446389914,4.14817753634246,-1.55095065157018,338.267260760318
738346.41421328065916895866,4.16048666849778,-1.55095065157018,338.218024231697
738346.41421337111387401819,4.14817753634246,-1.5632597837255,338.144169438765
738346.41421346156857907772,4.16048666849778,-1.55095065157018,338.181096835231
738346.41421355202328413725,4.14817753634246,-1.55095065157018,338.205715099541
738346.41421364236157387495,4.13586840418714,-1.5632597837255,338.15647857092
738346.41421373281627893448,4.1727958006531,-1.55095065157018,338.205715099541
738346.41421382327098399401,4.16048666849778,-1.5632597837255,338.205715099541
738346.41421391372568905354,4.16048666849778,-1.5632597837255,338.267260760318
738346.41421400418039411306,4.13586840418714,-1.5632597837255,338.205715099541
738346.41421409463509917259,4.13586840418714,-1.57556891588082,338.328806421094
738346.41421418497338891029,4.14817753634246,-1.5632597837255,338.291879024628
738346.41421427542809396982,4.13586840418714,-1.57556891588082,338.279569892473
738346.41421436588279902935,4.13586840418714,-1.58787804803613,338.328806421094
738346.41421445633750408888,4.14817753634246,-1.58787804803613,338.291879024628
738346.41421454679220914841,4.12355927203182,-1.58787804803613,338.267260760318
738346.41421463724691420794,4.13586840418714,-1.58787804803613,338.267260760318
738346.41421472758520394564,4.13586840418714,-1.60018718019145,338.304188156784
738346.41421481803990900517,4.12355927203182,-1.61249631234677,338.279569892473
738346.41421490849461406469,4.13586840418714,-1.60018718019145,338.291879024628
738346.41421499894931912422,4.13586840418714,-1.61249631234677,338.34111555325
738346.41421508940402418375,4.12355927203182,-1.61249631234677,338.328806421094
738346.41421517985872924328,4.1112501398765,-1.60018718019145,338.279569892473
738346.41421527019701898098,4.12355927203182,-1.62480544450209,338.304188156784
738346.41421536065172404051,4.12355927203182,-1.61249631234677,338.304188156784
738346.41421545110642910004,4.1112501398765,-1.63711457665741,338.291879024628
738346.41421554156113415956,4.12355927203182,-1.62480544450209,338.267260760318
738346.41421563201583921909,4.12355927203182,-1.62480544450209,338.254951628162
738346.41421572235412895679,4.12355927203182,-1.62480544450209,338.193405967386
738346.41421581280883401632,4.12355927203182,-1.62480544450209,338.279569892473
738346.41421590326353907585,4.12355927203182,-1.64942370881273,338.242642496007
738346.41421599371824413538,4.12355927203182,-1.62480544450209,338.242642496007
738346.41421608417294919491,4.12355927203182,-1.62480544450209,338.230333363852
738346.41421617462765425444,4.13586840418714,-1.63711457665741,338.058005513677
738346.41421626496594399214,4.12355927203182,-1.62480544450209,338.15647857092
738346.41421635542064905167,4.13586840418714,-1.62480544450209,338.279569892473
738346.41421644587535411119,4.12355927203182,-1.62480544450209,338.279569892473
738346.41421653633005917072,4.12355927203182,-1.62480544450209,338.304188156784
738346.41421662678476423025,4.12355927203182,-1.62480544450209,338.230333363852
738346.41421671723946928978,4.12355927203182,-1.62480544450209,338.304188156784
738346.41421680757775902748,4.12355927203182,-1.62480544450209,338.230333363852
738346.41421689803246408701,4.1112501398765,-1.62480544450209,338.291879024628
738346.41421698848716914654,4.12355927203182,-1.62480544450209,338.328806421094
738346.41421707894187420607,4.1112501398765,-1.61249631234677,338.291879024628
738346.41421716939657926559,4.12355927203182,-1.63711457665741,338.218024231697
738346.41421725985128432512,4.13586840418714,-1.63711457665741,338.193405967386
738346.41421735018957406282,4.12355927203182,-1.61249631234677,338.267260760318
738346.41421744064427912235,4.12355927203182,-1.62480544450209,338.267260760318
738346.41421753109898418188,4.12355927203182,-1.62480544450209,338.242642496007
738346.41421762155368924141,4.12355927203182,-1.61249631234677,338.267260760318
738346.41421771200839430094,4.13586840418714,-1.62480544450209,338.242642496007
738346.41421780234668403864,4.1112501398765,-1.62480544450209,338.242642496007
738346.41421789280138909817,4.13586840418714,-1.60018718019145,338.279569892473
738346.41421798325609415770,4.12355927203182,-1.61249631234677,338.328806421094
738346.41421807371079921722,4.13586840418714,-1.62480544450209,338.316497288939
738346.41421816416550427675,4.13586840418714,-1.61249631234677,338.218024231697
738346.41421825462020933628,4.13586840418714,-1.62480544450209,338.304188156784
738346.41421834495849907398,4.13586840418714,-1.60018718019145,338.304188156784
738346.41421843541320413351,4.12355927203182,-1.60018718019145,338.304188156784
738346.41421852586790919304,4.14817753634246,-1.58787804803613,338.267260760318
738346.41421861632261425257,4.16048666849778,-1.5632597837255,338.316497288939
738346.41421870677731931210,4.19741406496373,-1.53864151941486,338.328806421094
738346.41421879723202437162,4.22203232927437,-1.5017141229489,338.181096835231
738346.41421888757031410933,4.22203232927437,-1.48940499079358,338.230333363852
738346.41421897802501916885,4.24665059358501,-1.47709585863826,338.193405967386
738346.41421906847972422838,4.25895972574033,-1.44016846217231,338.181096835231
738346.41421915893442928791,4.22203232927437,-1.48940499079358,338.218024231697
738346.41421924938913434744,4.20972319711905,-1.5017141229489,338.279569892473
738346.41421933984383940697,4.18510493280842,-1.51402325510422,338.291879024628
738346.41421943018212914467,4.1727958006531,-1.55095065157018,338.279569892473
738346.41421952063683420420,4.13586840418714,-1.58787804803613,338.34111555325
738346.41421961109153926373,4.12355927203182,-1.62480544450209,338.328806421094
738346.41421970154624432325,4.12355927203182,-1.62480544450209,338.082623777988
738346.41421979200094938278,4.12355927203182,-1.61249631234677,338.168787703075
738346.41421988245565444231,4.12355927203182,-1.61249631234677,338.279569892473
738346.41421997279394418001,4.12355927203182,-1.62480544450209,338.230333363852
738346.41422006324864923954,4.1112501398765,-1.64942370881273,338.254951628162
738346.41422015370335429907,4.1112501398765,-1.62480544450209,338.205715099541
738346.41422024415805935860,4.13586840418714,-1.62480544450209,338.218024231697
738346.41422033461276441813,4.12355927203182,-1.62480544450209,338.193405967386
738346.41422042495105415583,4.12355927203182,-1.62480544450209,338.242642496007
738346.41422051540575921535,4.12355927203182,-1.63711457665741,338.267260760318
738346.41422060586046427488,4.07432274341055,-1.67404197312337,338.230333363852
738346.41422069631516933441,4.07432274341055,-1.67404197312337,338.254951628162
738346.41422078676987439394,4.3697419151382,-1.28014974415316,338.193405967386
738346.41422087722457945347,4.84979806919563,-0.627765739921262,338.168787703075
738346.41422096756286919117,5.44063641265094,-0.0492365286212755,337.910295927814
738346.41422105801757425070,5.71143732006795,0.406201361125523,337.737968077639
738346.41422114847227931023,5.18214463738924,-0.455437889746798,337.57794935962
738346.41422123892698436975,4.3081962543616,-2.19102552364676,337.627185888241
738346.41422132938168942928,4.00046795047863,-2.3510442416659,337.910295927814
738346.41422141983639448881,4.08663187556586,-1.84636982329783,338.070314645833
738346.41422151017468422651,4.23434146142969,-1.47709585863826,338.181096835231
738346.41422160062938928604,4.22203232927437,-1.45247759432763,338.205715099541
738346.41422169108409434557,4.19741406496373,-1.47709585863826,338.254951628162
738346.41422178153879940510,4.19741406496373,-1.46478672648295,338.218024231697
738346.41422187199350446463,4.18510493280842,-1.46478672648295,338.242642496007
738346.41422196244820952415,4.19741406496373,-1.44016846217231,338.279569892473
738346.41422205278649926186,4.19741406496373,-1.42785933001699,338.304188156784
738346.41422214324120432138,4.20972319711905,-1.44016846217231,338.316497288939
738346.41422223369590938091,4.20972319711905,-1.42785933001699,338.242642496007
738346.41422232415061444044,4.22203232927437,-1.39093193355103,338.316497288939
738346.41422241460531949997,4.23434146142969,-1.37862280139571,338.353424685405
738346.41422250494360923767,4.22203232927437,-1.37862280139571,338.328806421094
738346.41422259539831429720,4.23434146142969,-1.34169540492976,338.254951628162
738346.41422268585301935673,4.23434146142969,-1.34169540492976,338.291879024628
738346.41422277630772441626,4.25895972574033,-1.3047680084638,338.34111555325
738346.41422286676242947578,4.25895972574033,-1.29245887630848,338.328806421094
738346.41422295721713453531,4.27126885789565,-1.28014974415316,338.316497288939
738346.41422304755542427301,4.27126885789565,-1.24322234768721,338.304188156784
738346.41422313801012933254,4.29588712220628,-1.20629495122125,338.316497288939
738346.41422322846483439207,4.28357799005097,-1.19398581906593,338.205715099541
738346.41422331891953945160,4.32050538651692,-1.15705842259997,338.205715099541
738346.41422340937424451113,4.33281451867224,-1.12013102613402,338.304188156784
738346.41422349982894957066,4.34512365082756,-1.05858536535742,338.304188156784
738346.41422359016723930836,4.35743278298288,-1.02165796889147,338.279569892473
738346.41422368062194436789,4.39436017944884,-0.984730572425509,338.267260760318
738346.41422377107664942741,4.40666931160415,-0.898566647338277,338.316497288939
738346.41422386153135448694,4.44359670807011,-0.849330118717002,338.267260760318
738346.41422395198605954647,4.46821497238075,-0.775475325785089,338.291879024628
738346.41422404244076460600,4.49283323669139,-0.713929665008494,338.279569892473
738346.41422413277905434370,4.50514236884671,-0.689311400697857,338.279569892473
738346.41422422323375940323,4.51745150100202,-0.664693136387219,338.36573381756
738346.41422431368846446276,4.51745150100202,-0.640074872076581,338.402661214026
738346.41422440414316952229,4.51745150100202,-0.6523840042319,338.304188156784
738346.41422449459787458181,4.49283323669139,-0.689311400697857,338.328806421094
738346.41422458493616431952,4.46821497238075,-0.787784457940408,338.353424685405
738346.41422467539086937904,4.45590584022543,-0.886257515182958,338.328806421094
738346.41422476584557443857,4.40666931160415,-1.02165796889147,338.291879024628
738346.41422485630027949810,4.3697419151382,-1.13244015828934,338.304188156784
738346.41422494675498455763,4.32050538651692,-1.24322234768721,338.267260760318
738346.41422503720968961716,4.29588712220628,-1.29245887630848,338.304188156784
738346.41422512754797935486,4.24665059358501,-1.41555019786167,338.181096835231
738346.41422521800268441439,4.24665059358501,-1.42785933001699,338.254951628162
738346.41422530845738947392,4.20972319711905,-1.46478672648295,338.230333363852
738346.41422539891209453344,4.22203232927437,-1.5017141229489,338.279569892473
738346.41422548936679959297,4.20972319711905,-1.5017141229489,338.193405967386
738346.41422557982150465250,4.19741406496373,-1.52633238725954,338.205715099541
738346.41422567015979439020,4.19741406496373,-1.53864151941486,338.205715099541
738346.41422576061449944973,4.18510493280842,-1.52633238725954,338.218024231697
738346.41422585106920450926,4.18510493280842,-1.55095065157018,338.218024231697
738346.41422594152390956879,4.18510493280842,-1.53864151941486,338.205715099541
738346.41422603197861462831,4.18510493280842,-1.52633238725954,338.218024231697
738346.41422612243331968784,4.19741406496373,-1.53864151941486,338.193405967386
738346.41422621277160942554,4.20972319711905,-1.52633238725954,338.205715099541
738346.41422630322631448507,4.20972319711905,-1.53864151941486,338.230333363852
738346.41422639368101954460,4.20972319711905,-1.51402325510422,338.254951628162
738346.41422648413572460413,4.20972319711905,-1.52633238725954,338.181096835231
738346.41422657459042966366,4.19741406496373,-1.52633238725954,338.218024231697
738346.41422666504513472319,4.19741406496373,-1.53864151941486,338.267260760318
738346.41422675538342446089,4.20972319711905,-1.52633238725954,338.144169438765
738346.41422684583812952042,4.20972319711905,-1.52633238725954,338.082623777988
738346.41422693629283457994,4.20972319711905,-1.53864151941486,338.279569892473
738346.41422702674753963947,4.20972319711905,-1.52633238725954,338.304188156784
738346.41422711720224469900,4.16048666849778,-1.52633238725954,338.218024231697
738346.41422720754053443670,4.20972319711905,-1.52633238725954,338.254951628162
738346.41422729799523949623,4.19741406496373,-1.55095065157018,338.291879024628
738346.41422738844994455576,4.19741406496373,-1.55095065157018,338.218024231697
738346.41422747890464961529,4.18510493280842,-1.55095065157018,338.291879024628
738346.41422756935935467482,4.18510493280842,-1.5632597837255,338.193405967386
738346.41422765981405973434,4.1727958006531,-1.5632597837255,338.131860306609
738346.41422775015234947205,4.1727958006531,-1.5632597837255,338.181096835231
738346.41422784060705453157,4.1727958006531,-1.5632597837255,338.168787703075
738346.41422793106175959110,4.1727958006531,-1.58787804803613,338.15647857092
738346.41422802151646465063,4.18510493280842,-1.5632597837255,338.181096835231
738346.41422811197116971016,4.13586840418714,-1.58787804803613,338.242642496007
738346.41422820242587476969,4.1727958006531,-1.5632597837255,338.291879024628
738346.41422829276416450739,4.16048666849778,-1.60018718019145,338.242642496007
738346.41422838321886956692,4.16048666849778,-1.60018718019145,338.304188156784
738346.41422847367357462645,4.1727958006531,-1.58787804803613,338.15647857092
738346.41422856412827968597,4.18510493280842,-1.57556891588082,338.168787703075
738346.41422865458298474550,4.16048666849778,-1.58787804803613,338.181096835231
738346.41422874503768980503,4.1727958006531,-1.57556891588082,338.168787703075
738346.41422883537597954273,4.16048666849778,-1.58787804803613,338.181096835231
738346.41422892583068460226,4.1727958006531,-1.58787804803613,338.168787703075
738346.41422901628538966179,4.16048666849778,-1.58787804803613,338.205715099541
738346.41422910674009472132,4.16048666849778,-1.60018718019145,338.218024231697
738346.41422919719479978085,4.1727958006531,-1.58787804803613,338.193405967386
738346.41422928753308951855,4.16048666849778,-1.58787804803613,338.230333363852
738346.41422937798779457808,4.14817753634246,-1.60018718019145,338.218024231697
738346.41422946844249963760,4.1727958006531,-1.58787804803613,338.218024231697
738346.41422955889720469713,4.1727958006531,-1.58787804803613,338.230333363852
738346.41422964935190975666,4.1727958006531,-1.60018718019145,338.267260760318
738346.41422973980661481619,4.16048666849778,-1.60018718019145,338.279569892473
738346.41422983014490455389,4.16048666849778,-1.60018718019145,338.267260760318
738346.41422992059960961342,4.14817753634246,-1.60018718019145,338.181096835231
738346.41423001105431467295,4.16048666849778,-1.58787804803613,338.205715099541
738346.41423010150901973248,4.16048666849778,-1.62480544450209,338.230333363852
738346.41423019196372479200,4.16048666849778,-1.60018718019145,338.291879024628
738346.41423028241842985153,4.1727958006531,-1.58787804803613,338.168787703075
738346.41423037275671958923,4.16048666849778,-1.60018718019145,338.033387249367
738346.41423046321142464876,4.18510493280842,-1.55095065157018,338.218024231697
738346.41423055366612970829,4.20972319711905,-1.53864151941486,338.254951628162
738346.41423064412083476782,4.24665059358501,-1.48940499079358,338.181096835231
738346.41423073457553982735,4.23434146142969,-1.48940499079358,338.218024231697
738346.41423082503024488688,4.27126885789565,-1.45247759432763,338.254951628162
738346.41423091536853462458,4.29588712220628,-1.41555019786167,338.242642496007
738346.41423100582323968410,4.27126885789565,-1.46478672648295,338.267260760318
738346.41423109627794474363,4.20972319711905,-1.51402325510422,338.230333363852
738346.41423118673264980316,4.22203232927437,-1.48940499079358,338.291879024628
738346.41423127718735486269,4.19741406496373,-1.52633238725954,338.304188156784
738346.41423136764205992222,4.18510493280842,-1.5632597837255,338.205715099541
738346.41423145798034965992,4.14817753634246,-1.58787804803613,338.279569892473
738346.41423154843505471945,4.14817753634246,-1.60018718019145,338.279569892473
738346.41423163888975977898,4.14817753634246,-1.61249631234677,338.304188156784
738346.41423172934446483850,4.14817753634246,-1.61249631234677,338.205715099541
738346.41423181979916989803,4.13586840418714,-1.62480544450209,338.267260760318
738346.41423191013745963573,4.13586840418714,-1.61249631234677,338.316497288939
738346.41423200059216469526,4.13586840418714,-1.62480544450209,338.218024231697
738346.41423209104686975479,4.13586840418714,-1.62480544450209,338.279569892473
738346.41423218150157481432,4.14817753634246,-1.62480544450209,338.291879024628
738346.41423227195627987385,4.13586840418714,-1.61249631234677,338.304188156784
738346.41423236241098493338,4.13586840418714,-1.61249631234677,338.230333363852
738346.41423245274927467108,4.12355927203182,-1.62480544450209,338.230333363852
738346.41423254320397973061,4.06201361125523,-1.67404197312337,338.205715099541
738346.41423263365868479013,4.07432274341055,-1.66173284096805,338.15647857092
738346.41423272411338984966,4.33281451867224,-1.28014974415316,338.094932910143
738346.41423281456809490919,4.84979806919563,-0.627765739921262,338.058005513677
738346.41423290502279996872,5.42832728049562,-0.0861639250872321,337.824132002726
738346.41423299536108970642,5.76067384868923,0.320037436038291,337.664113284707
738346.41423308581579476595,5.24369029816584,-0.516983550523392,337.491785434533
738346.41423317627049982548,4.33281451867224,-2.27718944873399,337.57794935962
738346.41423326672520488501,4.00046795047863,-2.42489903459782,337.774895474105
738346.41423335717990994453,4.08663187556586,-1.89560635191911,338.094932910143
738346.41423344763461500406,4.22203232927437,-1.5017141229489,338.131860306609
738346.41423353797290474176,4.22203232927437,-1.46478672648295,338.15647857092
738346.41423362842760980129,4.22203232927437,-1.48940499079358,338.230333363852
738346.41423371888231486082,4.19741406496373,-1.47709585863826,338.242642496007
738346.41423380933701992035,4.19741406496373,-1.47709585863826,338.242642496007
738346.41423389979172497988,4.19741406496373,-1.46478672648295,338.144169438765
738346.41423399013001471758,4.19741406496373,-1.45247759432763,338.304188156784
738346.41423408058471977711,4.18510493280842,-1.44016846217231,338.291879024628
738346.41423417103942483664,4.18510493280842,-1.44016846217231,338.279569892473
738346.41423426149412989616,4.19741406496373,-1.41555019786167,338.304188156784
738346.41423435194883495569,4.20972319711905,-1.40324106570635,338.254951628162
738346.41423444240354001522,4.20972319711905,-1.37862280139571,338.316497288939
738346.41423453274182975292,4.20972319711905,-1.36631366924039,338.353424685405
738346.41423462319653481245,4.22203232927437,-1.34169540492976,338.230333363852
738346.41423471365123987198,4.23434146142969,-1.31707714061912,338.242642496007
738346.41423480410594493151,4.24665059358501,-1.3047680084638,338.279569892473
738346.41423489456064999104,4.25895972574033,-1.29245887630848,338.254951628162
738346.41423498501535505056,4.27126885789565,-1.25553147984252,338.304188156784
738346.41423507535364478827,4.28357799005097,-1.23091321553189,338.328806421094
738346.41423516580834984779,4.28357799005097,-1.19398581906593,338.328806421094
738346.41423525626305490732,4.3081962543616,-1.16936755475529,338.291879024628
738346.41423534671775996685,4.3081962543616,-1.13244015828934,338.328806421094
738346.41423543717246502638,4.33281451867224,-1.07089449751274,338.328806421094
738346.41423552762717008591,4.35743278298288,-1.0462762332021,338.36573381756
738346.41423561796545982361,4.35743278298288,-0.997039704580828,338.279569892473
738346.41423570842016488314,4.39436017944884,-0.923184911648915,338.378042949716
738346.41423579887486994267,4.40666931160415,-0.861639250872321,338.390352081871
738346.41423588932957500219,4.41897844375947,-0.800093590095726,338.34111555325
738346.41423597978428006172,4.45590584022543,-0.76316619362977,338.390352081871
738346.41423607012256979942,4.49283323669139,-0.689311400697857,338.414970346182
738346.41423616057727485895,4.50514236884671,-0.664693136387219,338.353424685405
738346.41423625103197991848,4.51745150100202,-0.640074872076581,338.390352081871
738346.41423634148668497801,4.50514236884671,-0.6523840042319,338.414970346182
738346.41423643194139003754,4.49283323669139,-0.701620532853175,338.316497288939
738346.41423652239609509706,4.45590584022543,-0.800093590095726,338.291879024628
738346.41423661273438483477,4.41897844375947,-0.910875779493596,338.267260760318
738346.41423670318908989429,4.3697419151382,-1.05858536535742,338.267260760318
738346.41423679364379495382,4.32050538651692,-1.16936755475529,338.267260760318
738346.41423688409850001335,4.28357799005097,-1.28014974415316,338.316497288939
738346.41423697455320507288,4.23434146142969,-1.36631366924039,338.254951628162
738346.41423706500791013241,4.20972319711905,-1.42785933001699,338.230333363852
738346.41423715534619987011,4.19741406496373,-1.48940499079358,338.242642496007
738346.41423724580090492964,4.14817753634246,-1.52633238725954,338.242642496007
738346.41423733625560998917,4.14817753634246,-1.53864151941486,338.218024231697
738346.41423742671031504869,4.14817753634246,-1.5632597837255,338.070314645833
738346.41423751716502010822,4.13586840418714,-1.5632597837255,338.279569892473
738346.41423760761972516775,4.16048666849778,-1.5632597837255,338.291879024628
738346.41423769795801490545,4.14817753634246,-1.58787804803613,338.15647857092
738346.41423778841271996498,4.14817753634246,-1.57556891588082,338.181096835231
738346.41423787886742502451,4.12355927203182,-1.57556891588082,338.168787703075
738346.41423796932213008404,4.14817753634246,-1.58787804803613,338.218024231697
738346.41423805977683514357,4.16048666849778,-1.5632597837255,338.193405967386
738346.41423815023154020309,4.16048666849778,-1.57556891588082,338.181096835231
738346.41423824056982994080,4.14817753634246,-1.5632597837255,338.181096835231
738346.41423833102453500032,4.16048666849778,-1.5632597837255,338.181096835231
738346.41423842147924005985,4.14817753634246,-1.5632597837255,338.254951628162
738346.41423851193394511938,4.13586840418714,-1.5632597837255,338.267260760318
738346.41423860238865017891,4.16048666849778,-1.55095065157018,338.291879024628
738346.41423869272693991661,4.16048666849778,-1.5632597837255,338.15647857092
738346.41423878318164497614,4.14817753634246,-1.5632597837255,338.205715099541
738346.41423887363635003567,4.13586840418714,-1.57556891588082,338.205715099541
738346.41423896409105509520,4.14817753634246,-1.5632597837255,338.218024231697
738346.41423905454576015472,4.13586840418714,-1.58787804803613,338.254951628162
738346.41423914500046521425,4.13586840418714,-1.58787804803613,338.267260760318
738346.41423923533875495195,4.14817753634246,-1.57556891588082,338.304188156784
738346.41423932579346001148,4.13586840418714,-1.60018718019145,338.316497288939
738346.41423941624816507101,4.13586840418714,-1.57556891588082,338.230333363852
738346.41423950670287013054,4.13586840418714,-1.60018718019145,338.267260760318
738346.41423959715757519007,4.14817753634246,-1.58787804803613,338.291879024628
738346.41423968761228024960,4.1112501398765,-1.60018718019145,338.304188156784
738346.41423977795056998730,4.12355927203182,-1.61249631234677,338.242642496007
738346.41423986840527504683,4.1112501398765,-1.61249631234677,338.328806421094
738346.41423995885998010635,4.1112501398765,-1.62480544450209,338.304188156784
738346.41424004931468516588,4.09894100772118,-1.62480544450209,338.218024231697
738346.41424013976939022541,4.09894100772118,-1.62480544450209,338.304188156784
738346.41424023022409528494,4.09894100772118,-1.62480544450209,338.304188156784
738346.41424032056238502264,4.1112501398765,-1.62480544450209,338.267260760318
738346.41424041101709008217,4.1112501398765,-1.62480544450209,338.304188156784
738346.41424050147179514170,4.08663187556586,-1.63711457665741,338.316497288939
738346.41424059192650020123,4.09894100772118,-1.62480544450209,338.291879024628
738346.41424068238120526075,4.1112501398765,-1.63711457665741,338.230333363852
738346.41424077271949499846,4.1112501398765,-1.63711457665741,338.218024231697
738346.41424086317420005798,4.1112501398765,-1.61249631234677,338.021078117211
738346.41424095362890511751,4.08663187556586,-1.63711457665741,338.119551174454
738346.41424104408361017704,4.08663187556586,-1.63711457665741,338.218024231697
738346.41424113453831523657,4.09894100772118,-1.62480544450209,338.242642496007
738346.41424122499302029610,4.08663187556586,-1.63711457665741,338.291879024628
738346.41424131533131003380,4.08663187556586,-1.63711457665741,338.279569892473
738346.41424140578601509333,4.07432274341055,-1.63711457665741,338.34111555325
738346.41424149624072015285,4.08663187556586,-1.63711457665741,338.304188156784
738346.41424158669542521238,4.08663187556586,-1.63711457665741,338.218024231697
738346.41424167715013027191,4.09894100772118,-1.62480544450209,338.279569892473
738346.41424176760483533144,4.09894100772118,-1.62480544450209,338.279569892473
738346.41424185794312506914,4.09894100772118,-1.62480544450209,338.242642496007
738346.41424194839783012867,4.09894100772118,-1.62480544450209,338.254951628162
738346.41424203885253518820,4.09894100772118,-1.64942370881273,338.230333363852
738346.41424212930724024773,4.08663187556586,-1.63711457665741,338.254951628162
738346.41424221976194530725,4.07432274341055,-1.64942370881273,338.267260760318
738346.41424231021665036678,4.08663187556586,-1.62480544450209,338.230333363852
738346.41424240055494010448,4.08663187556586,-1.63711457665741,338.230333363852
738346.41424249100964516401,4.07432274341055,-1.63711457665741,338.218024231697
738346.41424258146435022354,4.09894100772118,-1.63711457665741,338.230333363852
738346.41424267191905528307,4.07432274341055,-1.66173284096805,338.267260760318
738346.41424276237376034260,4.07432274341055,-1.63711457665741,338.316497288939
738346.41424285282846540213,4.07432274341055,-1.64942370881273,338.242642496007
738346.41424294316675513983,4.08663187556586,-1.63711457665741,338.230333363852
738346.41424303362146019936,4.08663187556586,-1.63711457665741,338.230333363852
738346.41424312407616525888,4.07432274341055,-1.64942370881273,338.254951628162
738346.41424321453087031841,4.08663187556586,-1.64942370881273,338.279569892473
738346.41424330498557537794,4.07432274341055,-1.64942370881273,338.291879024628
738346.41424339532386511564,4.07432274341055,-1.64942370881273,338.230333363852
738346.41424348577857017517,4.08663187556586,-1.64942370881273,338.254951628162
738346.41424357623327523470,4.09894100772118,-1.63711457665741,338.316497288939
738346.41424366668798029423,4.08663187556586,-1.64942370881273,338.304188156784
738346.41424375714268535376,4.08663187556586,-1.66173284096805,338.218024231697
738346.41424384759739041328,4.08663187556586,-1.60018718019145,338.218024231697
738346.41424393793568015099,4.1112501398765,-1.60018718019145,338.230333363852
738346.41424402839038521051,4.12355927203182,-1.58787804803613,338.230333363852
738346.41424411884509027004,4.13586840418714,-1.52633238725954,338.218024231697
738346.41424420929979532957,4.14817753634246,-1.52633238725954,338.304188156784
738346.41424429975450038910,4.18510493280842,-1.51402325510422,338.328806421094
738346.41424439020920544863,4.20972319711905,-1.47709585863826,338.094932910143
738346.41424448054749518633,4.19741406496373,-1.5017141229489,338.218024231697
738346.41424457100220024586,4.14817753634246,-1.55095065157018,338.291879024628
738346.41424466145690530539,4.14817753634246,-1.53864151941486,338.304188156784
738346.41424475191161036491,4.12355927203182,-1.55095065157018,338.304188156784
738346.41424484236631542444,4.1112501398765,-1.58787804803613,338.316497288939
738346.41424493282102048397,4.08663187556586,-1.61249631234677,338.316497288939
738346.41424502315931022167,4.07432274341055,-1.64942370881273,338.230333363852
738346.41424511361401528120,4.07432274341055,-1.64942370881273,338.267260760318
738346.41424520406872034073,4.06201361125523,-1.64942370881273,338.205715099541
738346.41424529452342540026,4.07432274341055,-1.64942370881273,338.230333363852
738346.41424538497813045979,4.06201361125523,-1.66173284096805,338.267260760318
738346.41424547531642019749,4.06201361125523,-1.64942370881273,338.254951628162
738346.41424556577112525702,4.06201361125523,-1.66173284096805,338.242642496007
738346.41424565622583031654,4.07432274341055,-1.63711457665741,338.279569892473
738346.41424574668053537607,4.06201361125523,-1.64942370881273,338.304188156784
738346.41424583713524043560,4.06201361125523,-1.64942370881273,338.291879024628
738346.41424592758994549513,4.03739534694459,-1.68635110527868,338.328806421094
738346.41424601792823523283,3.96354055401268,-1.73558763389996,338.291879024628
738346.41424610838294029236,4.03739534694459,-1.62480544450209,338.34111555325
738346.41424619883764535189,4.40666931160415,-1.13244015828934,338.15647857092
738346.41424628929235041142,4.91134372997223,-0.54160181483403,338.094932910143
738346.41424637974705547094,5.46525467696158,0,337.78720460626
738346.41424647020176053047,5.58834599851477,0.307728303882972,337.750277209794
738346.41424656054005026817,4.86210720135095,-1.08320362966806,337.479476302377
738346.41424665099475532770,4.09894100772118,-2.40028077028718,337.713349813328
738346.41424674144946038723,3.93892228970204,-2.22795292011272,337.873368531348
738346.41424683190416544676,4.00046795047863,-1.96946114485102,338.119551174454
738346.41424692235887050629,4.18510493280842,-1.52633238725954,338.144169438765
738346.41424701281357556581,4.16048666849778,-1.47709585863826,338.218024231697
738346.41424710315186530352,4.13586840418714,-1.5017141229489,338.267260760318
738346.41424719360657036304,4.12355927203182,-1.5017141229489,338.254951628162
738346.41424728406127542257,4.12355927203182,-1.5017141229489,338.328806421094
738346.41424737451598048210,4.1112501398765,-1.5017141229489,338.291879024628
738346.41424746497068554163,4.12355927203182,-1.47709585863826,338.267260760318
738346.41424755530897527933,4.12355927203182,-1.47709585863826,338.304188156784
738346.41424764576368033886,4.13586840418714,-1.46478672648295,338.267260760318
738346.41424773621838539839,4.13586840418714,-1.45247759432763,338.279569892473
738346.41424782667309045792,4.13586840418714,-1.42785933001699,338.316497288939
738346.41424791712779551744,4.14817753634246,-1.40324106570635,338.181096835231
738346.41424800758250057697,4.16048666849778,-1.37862280139571,338.230333363852
738346.41424809792079031467,4.1727958006531,-1.36631366924039,338.34111555325
738346.41424818837549537420,4.1727958006531,-1.36631366924039,338.36573381756
738346.41424827883020043373,4.18510493280842,-1.34169540492976,338.34111555325
738346.41424836928490549326,4.19741406496373,-1.3047680084638,338.34111555325
738346.41424845973961055279,4.19741406496373,-1.26784061199784,338.378042949716
738346.41424855019431561232,4.22203232927437,-1.25553147984252,338.378042949716
738346.41424864053260535002,4.23434146142969,-1.21860408337657,338.316497288939
738346.41424873098731040955,4.23434146142969,-1.19398581906593,338.390352081871
738346.41424882144201546907,4.25895972574033,-1.18167668691061,338.378042949716
738346.41424891189672052860,4.25895972574033,-1.15705842259997,338.34111555325
738346.41424900235142558813,4.28357799005097,-1.08320362966806,338.267260760318
738346.41424909280613064766,4.3081962543616,-1.02165796889147,338.304188156784
738346.41424918314442038536,4.32050538651692,-0.972421440270191,338.304188156784
738346.41424927359912544489,4.35743278298288,-0.935494043804234,338.291879024628
738346.41424936405383050442,4.38205104729352,-0.824711854406364,338.34111555325
738346.41424945450853556395,4.38205104729352,-0.812402722251045,338.402661214026
738346.41424954496324062347,4.41897844375947,-0.750857061474451,338.328806421094
738346.41424963541794568300,4.43128757591479,-0.738547929319132,338.36573381756
738346.41424972575623542070,4.44359670807011,-0.713929665008494,338.328806421094
738346.41424981621094048023,4.43128757591479,-0.689311400697857,338.304188156784
738346.41424990666564553976,4.43128757591479,-0.775475325785089,338.316497288939
738346.41424999712035059929,4.39436017944884,-0.837020986561683,338.34111555325
738346.41425008757505565882,4.38205104729352,-0.947803175959553,338.34111555325
738346.41425017791334539652,4.33281451867224,-1.08320362966806,338.34111555325
738346.41425026836805045605,4.25895972574033,-1.19398581906593,338.328806421094
738346.41425035882275551558,4.22203232927437,-1.31707714061912,338.279569892473
738346.41425044927746057510,4.19741406496373,-1.37862280139571,338.328806421094
738346.41425053973216563463,4.1727958006531,-1.46478672648295,338.328806421094
738346.41425063018687069416,4.14817753634246,-1.45247759432763,338.230333363852
738346.41425072052516043186,4.13586840418714,-1.52633238725954,338.279569892473
738346.41425081097986549139,4.1112501398765,-1.52633238725954,338.242642496007
738346.41425090143457055092,4.1112501398765,-1.5632597837255,338.267260760318
738346.41425099188927561045,4.1112501398765,-1.57556891588082,338.254951628162
738346.41425108234398066998,4.09894100772118,-1.60018718019145,338.328806421094
738346.41425117279868572950,4.09894100772118,-1.5632597837255,338.304188156784
738346.41425126313697546721,4.09894100772118,-1.5632597837255,338.279569892473
738346.41425135359168052673,4.09894100772118,-1.57556891588082,338.279569892473
738346.41425144404638558626,4.1112501398765,-1.5632597837255,338.205715099541
738346.41425153450109064579,4.09894100772118,-1.57556891588082,338.119551174454
738346.41425162495579570532,4.09894100772118,-1.57556891588082,338.218024231697
738346.41425171541050076485,4.1112501398765,-1.57556891588082,338.279569892473
738346.41425180574879050255,4.08663187556586,-1.57556891588082,338.218024231697
738346.41425189620349556208,4.09894100772118,-1.5632597837255,338.242642496007
738346.41425198665820062160,4.1112501398765,-1.57556891588082,338.267260760318
738346.41425207711290568113,4.1112501398765,-1.57556891588082,338.291879024628
738346.41425216756761074066,4.09894100772118,-1.57556891588082,338.291879024628
738346.41425225790590047836,4.12355927203182,-1.55095065157018,338.328806421094
738346.41425234836060553789,4.09894100772118,-1.57556891588082,338.267260760318
738346.41425243881531059742,4.1112501398765,-1.57556891588082,338.291879024628
738346.41425252927001565695,4.1112501398765,-1.57556891588082,338.34111555325
738346.41425261972472071648,4.09894100772118,-1.58787804803613,338.279569892473
738346.41425271017942577600,4.09894100772118,-1.58787804803613,338.304188156784
738346.41425280051771551371,4.09894100772118,-1.57556891588082,338.304188156784
738346.41425289097242057323,4.09894100772118,-1.58787804803613,338.328806421094
738346.41425298142712563276,4.08663187556586,-1.62480544450209,338.267260760318
738346.41425307188183069229,4.08663187556586,-1.57556891588082,338.328806421094
738346.41425316233653575182,4.08663187556586,-1.60018718019145,338.328806421094
738346.41425325279124081135,4.09894100772118,-1.58787804803613,338.279569892473
738346.41425334312953054905,4.08663187556586,-1.60018718019145,338.328806421094
738346.41425343358423560858,4.09894100772118,-1.58787804803613,338.328806421094
738346.41425352403894066811,4.08663187556586,-1.57556891588082,338.36573381756
738346.41425361449364572763,4.09894100772118,-1.58787804803613,338.291879024628
738346.41425370494835078716,4.08663187556586,-1.61249631234677,338.316497288939
738346.41425379540305584669,4.09894100772118,-1.57556891588082,338.328806421094
738346.41425388574134558439,4.07432274341055,-1.60018718019145,338.279569892473
738346.41425397619605064392,4.09894100772118,-1.60018718019145,338.328806421094
738346.41425406665075570345,4.08663187556586,-1.60018718019145,338.34111555325
738346.41425415710546076298,4.09894100772118,-1.61249631234677,338.230333363852
738346.41425424756016582251,4.08663187556586,-1.58787804803613,338.242642496007
738346.41425433801487088203,4.07432274341055,-1.58787804803613,338.254951628162
738346.41425442835316061974,4.07432274341055,-1.60018718019145,338.230333363852
738346.41425451880786567926,4.06201361125523,-1.58787804803613,338.254951628162
738346.41425460926257073879,4.07432274341055,-1.60018718019145,338.279569892473
738346.41425469971727579832,4.07432274341055,-1.58787804803613,338.230333363852
738346.41425479017198085785,4.07432274341055,-1.60018718019145,338.267260760318
738346.41425488051027059555,4.07432274341055,-1.5632597837255,338.304188156784
738346.41425497096497565508,4.09894100772118,-1.58787804803613,338.193405967386
738346.41425506141968071461,4.08663187556586,-1.58787804803613,338.144169438765
738346.41425515187438577414,4.09894100772118,-1.57556891588082,338.279569892473
738346.41425524232909083366,4.08663187556586,-1.58787804803613,338.304188156784
738346.41425533278379589319,4.08663187556586,-1.60018718019145,338.304188156784
738346.41425542312208563089,4.07432274341055,-1.58787804803613,338.316497288939
738346.41425551357679069042,4.08663187556586,-1.58787804803613,338.328806421094
738346.41425560403149574995,4.08663187556586,-1.58787804803613,338.230333363852
738346.41425569448620080948,4.08663187556586,-1.58787804803613,338.34111555325
738346.41425578494090586901,4.08663187556586,-1.58787804803613,338.291879024628
738346.41425587539561092854,4.08663187556586,-1.58787804803613,338.254951628162
738346.41425596573390066624,4.08663187556586,-1.57556891588082,338.242642496007
738346.41425605618860572577,4.07432274341055,-1.58787804803613,338.316497288939
738346.41425614664331078529,4.08663187556586,-1.58787804803613,338.316497288939
738346.41425623709801584482,4.08663187556586,-1.58787804803613,338.291879024628
738346.41425632755272090435,4.08663187556586,-1.5632597837255,338.205715099541
738346.41425641800742596388,4.07432274341055,-1.57556891588082,338.242642496007
738346.41425650834571570158,4.08663187556586,-1.57556891588082,338.254951628162
738346.41425659880042076111,4.08663187556586,-1.57556891588082,338.218024231697
738346.41425668925512582064,4.08663187556586,-1.57556891588082,338.242642496007
738346.41425677970983088017,4.08663187556586,-1.57556891588082,338.304188156784
738346.41425687016453593969,4.09894100772118,-1.5632597837255,338.353424685405
738346.41425696050282567739,4.09894100772118,-1.5632597837255,338.304188156784
738346.41425705095753073692,4.12355927203182,-1.51402325510422,338.353424685405
738346.41425714141223579645,4.14817753634246,-1.48940499079358,338.378042949716
738346.41425723186694085598,4.14817753634246,-1.48940499079358,338.304188156784
738346.41425732232164591551,4.18510493280842,-1.45247759432763,338.304188156784
738346.41425741277635097504,4.22203232927437,-1.40324106570635,338.291879024628
738346.41425750311464071274,4.20972319711905,-1.41555019786167,338.291879024628
738346.41425759356934577227,4.1727958006531,-1.46478672648295,338.304188156784
738346.41425768402405083179,4.16048666849778,-1.46478672648295,338.402661214026
738346.41425777447875589132,4.13586840418714,-1.48940499079358,338.328806421094
738346.41425786493346095085,4.12355927203182,-1.51402325510422,338.304188156784
738346.41425795538816601038,4.09894100772118,-1.55095065157018,338.328806421094
738346.41425804572645574808,4.08663187556586,-1.57556891588082,338.36573381756
738346.41425813618116080761,4.07432274341055,-1.58787804803613,338.316497288939
738346.41425822663586586714,4.07432274341055,-1.58787804803613,338.328806421094
738346.41425831709057092667,4.07432274341055,-1.57556891588082,338.378042949716
738346.41425840754527598619,4.07432274341055,-1.57556891588082,338.36573381756
738346.41425849799998104572,4.06201361125523,-1.58787804803613,338.242642496007
738346.41425858833827078342,4.07432274341055,-1.57556891588082,338.193405967386
738346.41425867879297584295,4.07432274341055,-1.60018718019145,338.230333363852
738346.41425876924768090248,4.07432274341055,-1.58787804803613,338.230333363852
738346.41425885970238596201,4.07432274341055,-1.57556891588082,338.181096835231
738346.41425895015709102154,4.07432274341055,-1.60018718019145,338.267260760318
738346.41425904061179608107,4.03739534694459,-1.61249631234677,338.291879024628
738346.41425913095008581877,4.01277708263395,-1.62480544450209,338.279569892473
738346.41425922140479087830,4.24665059358501,-1.28014974415316,338.230333363852
738346.41425931185949593782,4.75132501195308,-0.615456607765943,338.15647857092
738346.41425940231420099735,5.39139988402966,-0.0492365286212755,337.947223324279
738346.41425949276890605688,5.76067384868923,0.307728303882972,337.701040681173
738346.41425958310719579458,5.32985422325307,-0.356964832504247,337.688731549018
738346.41425967356190085411,4.3697419151382,-2.12947986287016,337.541021963154
738346.41425976401660591364,3.9143040253914,-2.47413556321909,337.861059399192
738346.41425985447131097317,3.97584968616799,-1.9571520126957,338.144169438765
738346.41425994492601603270,4.1727958006531,-1.51402325510422,338.218024231697
738346.41426003538072109222,4.19741406496373,-1.44016846217231,338.291879024628
738346.41426012571901082993,4.18510493280842,-1.42785933001699,338.291879024628
738346.41426021617371588945,4.18510493280842,-1.42785933001699,338.230333363852
738346.41426030662842094898,4.1727958006531,-1.40324106570635,338.304188156784
738346.41426039708312600851,4.16048666849778,-1.41555019786167,338.279569892473
738346.41426048753783106804,4.1727958006531,-1.39093193355103,338.267260760318
738346.41426057799253612757,4.1727958006531,-1.37862280139571,338.291879024628
738346.41426066833082586527,4.16048666849778,-1.37862280139571,338.254951628162
738346.41426075878553092480,4.1727958006531,-1.36631366924039,338.242642496007
738346.41426084924023598433,4.1727958006531,-1.34169540492976,338.254951628162
738346.41426093969494104385,4.18510493280842,-1.32938627277444,338.267260760318
738346.41426103014964610338,4.19741406496373,-1.29245887630848,338.328806421094
738346.41426112060435116291,4.20972319711905,-1.28014974415316,338.304188156784
738346.41426121094264090061,4.19741406496373,-1.28014974415316,338.390352081871
738346.41426130139734596014,4.22203232927437,-1.24322234768721,338.353424685405
738346.41426139185205101967,4.22203232927437,-1.23091321553189,338.267260760318
738346.41426148230675607920,4.24665059358501,-1.18167668691061,338.378042949716
738346.41426157276146113873,4.25895972574033,-1.16936755475529,338.34111555325
738346.41426166309975087643,4.28357799005097,-1.13244015828934,338.353424685405
738346.41426175355445593596,4.29588712220628,-1.1078218939787,338.34111555325
738346.41426184400916099548,4.29588712220628,-1.07089449751274,338.390352081871
738346.41426193446386605501,4.3081962543616,-1.0462762332021,338.390352081871
738346.41426202491857111454,4.32050538651692,-1.00934883673615,338.316497288939
738346.41426211537327617407,4.3697419151382,-0.935494043804234,338.205715099541
738346.41426220571156591177,4.3697419151382,-0.87394838302764,338.36573381756
738346.41426229616627097130,4.39436017944884,-0.812402722251045,338.328806421094
738346.41426238662097603083,4.40666931160415,-0.76316619362977,338.353424685405
738346.41426247707568109035,4.46821497238075,-0.689311400697857,338.291879024628
738346.41426256753038614988,4.48052410453607,-0.640074872076581,338.304188156784
738346.41426265798509120941,4.50514236884671,-0.603147475610625,338.328806421094
738346.41426274832338094711,4.50514236884671,-0.578529211299987,338.34111555325
738346.41426283877808600664,4.50514236884671,-0.566220079144668,338.36573381756
738346.41426292923279106617,4.49283323669139,-0.603147475610625,338.378042949716
738346.41426301968749612570,4.46821497238075,-0.701620532853175,338.328806421094
738346.41426311014220118523,4.44359670807011,-0.800093590095726,338.36573381756
738346.41426320059690624475,4.41897844375947,-0.923184911648915,338.353424685405
738346.41426329093519598246,4.35743278298288,-1.05858536535742,338.34111555325
738346.41426338138990104198,4.32050538651692,-1.15705842259997,338.279569892473
738346.41426347184460610151,4.27126885789565,-1.26784061199784,338.279569892473
738346.41426356229931116104,4.23434146142969,-1.32938627277444,338.230333363852
738346.41426365275401622057,4.20972319711905,-1.39093193355103,338.279569892473
738346.41426374309230595827,4.18510493280842,-1.44016846217231,338.242642496007
738346.41426383354701101780,4.1727958006531,-1.46478672648295,338.267260760318
738346.41426392400171607733,4.16048666849778,-1.47709585863826,338.279569892473
738346.41426401445642113686,4.14817753634246,-1.48940499079358,338.230333363852
738346.41426410491112619638,4.14817753634246,-1.51402325510422,338.267260760318
738346.41426419536583125591,4.14817753634246,-1.5017141229489,338.267260760318
738346.41426428570412099361,4.14817753634246,-1.5017141229489,338.193405967386
738346.41426437615882605314,4.14817753634246,-1.5017141229489,338.218024231697
738346.41426446661353111267,4.14817753634246,-1.5017141229489,338.218024231697
738346.41426455706823617220,4.16048666849778,-1.48940499079358,338.168787703075
738346.41426464752294123173,4.16048666849778,-1.5017141229489,338.193405967386
738346.41426473797764629126,4.16048666849778,-1.48940499079358,338.218024231697
738346.41426482831593602896,4.1727958006531,-1.47709585863826,338.242642496007
738346.41426491877064108849,4.16048666849778,-1.48940499079358,338.291879024628
738346.41426500922534614801,4.16048666849778,-1.48940499079358,338.279569892473
738346.41426509968005120754,4.16048666849778,-1.48940499079358,338.242642496007
738346.41426519013475626707,4.16048666849778,-1.47709585863826,338.291879024628
738346.41426528058946132660,4.16048666849778,-1.47709585863826,338.279569892473
738346.41426537092775106430,4.14817753634246,-1.48940499079358,338.279569892473
738346.41426546138245612383,4.16048666849778,-1.5017141229489,338.279569892473
738346.41426555183716118336,4.16048666849778,-1.48940499079358,338.119551174454
738346.41426564229186624289,4.13586840418714,-1.51402325510422,338.107242042299
738346.41426573274657130241,4.13586840418714,-1.5017141229489,338.279569892473
738346.41426582320127636194,4.13586840418714,-1.51402325510422,338.291879024628
738346.41426591353956609964,4.13586840418714,-1.52633238725954,338.304188156784
738346.41426600399427115917,4.14817753634246,-1.52633238725954,338.304188156784
738346.41426609444897621870,4.13586840418714,-1.52633238725954,338.279569892473
738346.41426618490368127823,4.13586840418714,-1.52633238725954,338.353424685405
738346.41426627535838633776,4.12355927203182,-1.52633238725954,338.304188156784
738346.41426636569667607546,4.12355927203182,-1.53864151941486,338.304188156784
738346.41426645615138113499,4.1112501398765,-1.53864151941486,338.291879024628
738346.41426654660608619452,4.12355927203182,-1.53864151941486,338.304188156784
738346.41426663706079125404,4.09894100772118,-1.55095065157018,338.242642496007
738346.41426672751549631357,4.12355927203182,-1.53864151941486,338.34111555325
738346.41426681797020137310,4.1112501398765,-1.53864151941486,338.254951628162
738346.41426690830849111080,4.12355927203182,-1.53864151941486,338.168787703075
738346.41426699876319617033,4.09894100772118,-1.5632597837255,338.144169438765
738346.41426708921790122986,4.1112501398765,-1.53864151941486,338.181096835231
738346.41426717967260628939,4.12355927203182,-1.53864151941486,338.230333363852
738346.41426727012731134892,4.12355927203182,-1.55095065157018,338.218024231697
738346.41426736058201640844,4.09894100772118,-1.55095065157018,338.254951628162
738346.41426745092030614614,4.1112501398765,-1.55095065157018,338.254951628162
738346.41426754137501120567,4.09894100772118,-1.53864151941486,338.205715099541
738346.41426763182971626520,4.09894100772118,-1.55095065157018,338.267260760318
738346.41426772228442132473,4.12355927203182,-1.55095065157018,338.218024231697
738346.41426781273912638426,4.1112501398765,-1.55095065157018,338.218024231697
738346.41426790319383144379,4.1112501398765,-1.53864151941486,338.181096835231
738346.41426799353212118149,4.09894100772118,-1.55095065157018,338.193405967386
738346.41426808398682624102,4.1112501398765,-1.5632597837255,338.242642496007
738346.41426817444153130054,4.1112501398765,-1.53864151941486,338.218024231697
738346.41426826489623636007,4.12355927203182,-1.53864151941486,338.218024231697
