time_dn,ecg_projection_ll_ra_mV,ecg_projection_la_ra_mV,ecg_projection_vx_rl_mV
738346.45983810001052916050,0.233873510951058,-0.726238797163813,337.934914192124
738346.45983819046523422003,0.246182643106377,-0.726238797163813,337.897986795658
738346.45983828091993927956,0.22156437879574,-0.738547929319132,337.885677663503
738346.45983837137464433908,0.246182643106377,-0.750857061474451,337.947223324279
738346.45983846182934939861,0.233873510951058,-0.738547929319132,337.97184158859
738346.45983855228405445814,0.22156437879574,-0.738547929319132,337.959532456435
738346.45983864273875951767,0.209255246640421,-0.750857061474451,337.897986795658
738346.45983873319346457720,0.209255246640421,-0.76316619362977,337.959532456435
738346.45983882364816963673,0.209255246640421,-0.76316619362977,337.984150720745
738346.45983891410287469625,0.196946114485102,-0.76316619362977,337.934914192124
738346.45983900455757975578,0.209255246640421,-0.787784457940408,337.934914192124
738346.45983909501228481531,0.209255246640421,-0.787784457940408,337.984150720745
738346.45983918535057455301,0.22156437879574,-0.76316619362977,337.97184158859
738346.45983927580527961254,0.196946114485102,-0.787784457940408,337.97184158859
738346.45983936625998467207,0.209255246640421,-0.775475325785089,337.996459852901
738346.45983945671468973160,0.184636982329783,-0.800093590095726,338.008768985056
738346.45983954716939479113,0.196946114485102,-0.787784457940408,337.947223324279
738346.45983963762409985065,0.196946114485102,-0.787784457940408,337.984150720745
738346.45983972807880491018,0.196946114485102,-0.76316619362977,337.996459852901
738346.45983981853350996971,0.184636982329783,-0.812402722251045,337.959532456435
738346.45983990898821502924,0.196946114485102,-0.787784457940408,337.934914192124
738346.45983999944292008877,0.184636982329783,-0.812402722251045,337.934914192124
738346.45984008989762514830,0.184636982329783,-0.787784457940408,337.959532456435
738346.45984018023591488600,0.184636982329783,-0.800093590095726,337.910295927814
738346.45984027069061994553,0.184636982329783,-0.787784457940408,337.947223324279
738346.45984036114532500505,0.196946114485102,-0.775475325785089,337.848750267037
738346.45984045160003006458,0.196946114485102,-0.812402722251045,337.824132002726
738346.45984054205473512411,0.184636982329783,-0.787784457940408,337.836441134882
738346.45984063250944018364,0.172327850174464,-0.824711854406364,337.861059399192
738346.45984072296414524317,0.196946114485102,-0.787784457940408,337.836441134882
738346.45984081341885030270,0.184636982329783,-0.824711854406364,337.910295927814
738346.45984090387355536222,0.184636982329783,-0.800093590095726,337.861059399192
738346.45984099432826042175,0.184636982329783,-0.787784457940408,337.873368531348
738346.45984108478296548128,0.184636982329783,-0.824711854406364,337.78720460626
738346.45984117512125521898,0.196946114485102,-0.787784457940408,337.774895474105
738346.45984126557596027851,0.196946114485102,-0.800093590095726,337.910295927814
738346.45984135603066533804,0.184636982329783,-0.800093590095726,337.934914192124
738346.45984144648537039757,0.184636982329783,-0.824711854406364,337.934914192124
738346.45984153694007545710,0.184636982329783,-0.812402722251045,337.885677663503
738346.45984162739478051662,0.172327850174464,-0.800093590095726,337.873368531348
738346.45984171784948557615,0.184636982329783,-0.812402722251045,337.848750267037
738346.45984180830419063568,0.172327850174464,-0.800093590095726,337.934914192124
738346.45984189875889569521,0.184636982329783,-0.787784457940408,337.897986795658
738346.45984198921360075474,0.196946114485102,-0.787784457940408,337.947223324279
738346.45984207966830581427,0.184636982329783,-0.812402722251045,337.897986795658
738346.45984217012301087379,0.172327850174464,-0.837020986561683,337.934914192124
738346.45984226046130061150,0.196946114485102,-0.812402722251045,337.848750267037
738346.45984235091600567102,0.184636982329783,-0.812402722251045,337.836441134882
738346.45984244137071073055,0.22156437879574,-0.775475325785089,337.910295927814
738346.45984253182541579008,0.246182643106377,-0.738547929319132,337.897986795658
738346.45984262228012084961,0.258491775261696,-0.738547929319132,337.947223324279
738346.45984271273482590914,0.295419171727653,-0.701620532853175,337.910295927814
738346.45984280318953096867,0.320037436038291,-0.677002268542538,337.861059399192
738346.45984289364423602819,0.295419171727653,-0.689311400697857,337.934914192124
738346.45984298409894108772,0.270800907417015,-0.713929665008494,337.97184158859
738346.45984307455364614725,0.258491775261696,-0.726238797163813,337.984150720745
738346.45984316500835120678,0.246182643106377,-0.726238797163813,337.996459852901
738346.45984325534664094448,0.196946114485102,-0.76316619362977,337.996459852901
738346.45984334580134600401,0.196946114485102,-0.800093590095726,337.959532456435
738346.45984343625605106354,0.184636982329783,-0.824711854406364,337.922605059969
738346.45984352671075612307,0.160018718019145,-0.824711854406364,337.984150720745
738346.45984361716546118259,0.184636982329783,-0.812402722251045,338.033387249367
738346.45984370762016624212,0.160018718019145,-0.812402722251045,337.947223324279
738346.45984379807487130165,0.172327850174464,-0.824711854406364,337.984150720745
738346.45984388852957636118,0.160018718019145,-0.837020986561683,337.959532456435
738346.45984397898428142071,0.172327850174464,-0.812402722251045,337.922605059969
738346.45984406943898648024,0.172327850174464,-0.812402722251045,337.910295927814
738346.45984415989369153976,0.172327850174464,-0.812402722251045,337.996459852901
738346.45984425023198127747,0.147709585863826,-0.849330118717002,338.008768985056
738346.45984434068668633699,0.0861639250872321,-0.898566647338277,337.910295927814
738346.45984443114139139652,0.123091321553189,-0.87394838302764,337.984150720745
738346.45984452159609645605,0.467747021902117,-0.443128757591479,337.861059399192
738346.45984461205080151558,0.960112308114872,0.11078218939787,337.639495020397
738346.45984470250550657511,1.57556891588082,0.627765739921262,337.319457584358
738346.45984479296021163464,1.82175155898719,1.02165796889147,337.257911923582
738346.45984488341491669416,1.18167668691061,-0.0246182643106377,337.122511469873
738346.45984497386962175369,0.320037436038291,-1.40324106570635,337.257911923582
738346.45984506432432681322,0.0861639250872321,-1.39093193355103,337.565640227465
738346.45984515477903187275,0.209255246640421,-0.947803175959553,337.737968077639
738346.45984524523373693228,0.283110039572334,-0.664693136387219,337.774895474105
738346.45984533557202666998,0.258491775261696,-0.701620532853175,337.861059399192
738346.45984542602673172951,0.22156437879574,-0.689311400697857,337.861059399192
738346.45984551648143678904,0.233873510951058,-0.689311400697857,337.922605059969
738346.45984560693614184856,0.233873510951058,-0.677002268542538,337.947223324279
738346.45984569739084690809,0.22156437879574,-0.677002268542538,337.959532456435
738346.45984578784555196762,0.22156437879574,-0.6523840042319,337.959532456435
738346.45984587830025702715,0.233873510951058,-0.6523840042319,337.885677663503
738346.45984596875496208668,0.233873510951058,-0.677002268542538,337.996459852901
738346.45984605920966714621,0.22156437879574,-0.6523840042319,337.910295927814
738346.45984614966437220573,0.246182643106377,-0.627765739921262,337.885677663503
738346.45984624011907726526,0.246182643106377,-0.603147475610625,337.959532456435
738346.45984633045736700296,0.258491775261696,-0.578529211299987,337.934914192124
738346.45984642091207206249,0.270800907417015,-0.566220079144668,337.922605059969
738346.45984651136677712202,0.295419171727653,-0.54160181483403,338.008768985056
738346.45984660182148218155,0.295419171727653,-0.529292682678711,337.996459852901
738346.45984669227618724108,0.307728303882972,-0.504674418368074,337.984150720745
738346.45984678273089230061,0.320037436038291,-0.455437889746798,337.959532456435
738346.45984687318559736013,0.356964832504247,-0.418510493280842,338.033387249367
738346.45984696364030241966,0.369273964659566,-0.393892228970204,338.021078117211
738346.45984705409500747919,0.369273964659566,-0.369273964659566,337.959532456435
738346.45984714454971253872,0.393892228970204,-0.283110039572334,338.021078117211
738346.45984723500441759825,0.43081962543616,-0.270800907417015,338.033387249367
738346.45984732534270733595,0.443128757591479,-0.196946114485102,338.008768985056
738346.45984741579741239548,0.455437889746798,-0.123091321553189,338.045696381522
738346.45984750625211745501,0.480056154057436,-0.147709585863826,338.033387249367
738346.45984759670682251453,0.492365286212755,-0.0369273964659566,338.045696381522
738346.45984768716152757406,0.504674418368074,-0.0246182643106377,338.045696381522
738346.45984777761623263359,0.529292682678711,0.0246182643106377,338.070314645833
738346.45984786807093769312,0.529292682678711,0.0123091321553189,338.082623777988
738346.45984795852564275265,0.529292682678711,0.0123091321553189,338.058005513677
738346.45984804898034781218,0.54160181483403,0.0246182643106377,338.070314645833
738346.45984813943505287170,0.516983550523392,-0.0492365286212755,338.021078117211
738346.45984822988975793123,0.516983550523392,-0.123091321553189,337.848750267037
738346.45984832034446299076,0.480056154057436,-0.209255246640421,338.033387249367
738346.45984841068275272846,0.443128757591479,-0.332346568193609,338.021078117211
738346.45984850113745778799,0.393892228970204,-0.406201361125523,337.959532456435
738346.45984859159216284752,0.369273964659566,-0.504674418368074,337.959532456435
738346.45984868204686790705,0.332346568193609,-0.553910946989349,337.984150720745
738346.45984877250157296658,0.295419171727653,-0.615456607765943,337.947223324279
738346.45984886295627802610,0.295419171727653,-0.6523840042319,337.897986795658
738346.45984895341098308563,0.283110039572334,-0.677002268542538,337.934914192124
738346.45984904386568814516,0.270800907417015,-0.701620532853175,337.959532456435
738346.45984913432039320469,0.246182643106377,-0.701620532853175,337.885677663503
738346.45984922477509826422,0.246182643106377,-0.701620532853175,337.897986795658
738346.45984931522980332375,0.258491775261696,-0.701620532853175,337.836441134882
738346.45984940556809306145,0.258491775261696,-0.701620532853175,337.824132002726
738346.45984949602279812098,0.246182643106377,-0.726238797163813,337.836441134882
738346.45984958647750318050,0.270800907417015,-0.689311400697857,337.824132002726
738346.45984967693220824003,0.270800907417015,-0.713929665008494,337.799513738416
738346.45984976738691329956,0.258491775261696,-0.726238797163813,337.811822870571
738346.45984985784161835909,0.258491775261696,-0.701620532853175,337.861059399192
738346.45984994829632341862,0.270800907417015,-0.713929665008494,337.799513738416
738346.45985003875102847815,0.270800907417015,-0.713929665008494,337.811822870571
738346.45985012920573353767,0.258491775261696,-0.726238797163813,337.861059399192
738346.45985021966043859720,0.258491775261696,-0.701620532853175,337.897986795658
738346.45985031011514365673,0.233873510951058,-0.726238797163813,337.934914192124
738346.45985040045343339443,0.258491775261696,-0.726238797163813,337.910295927814
738346.45985049090813845396,0.258491775261696,-0.726238797163813,337.836441134882
738346.45985058136284351349,0.258491775261696,-0.726238797163813,337.910295927814
738346.45985067181754857302,0.233873510951058,-0.750857061474451,337.774895474105
738346.45985076227225363255,0.246182643106377,-0.726238797163813,337.897986795658
738346.45985085272695869207,0.233873510951058,-0.76316619362977,337.910295927814
738346.45985094318166375160,0.233873510951058,-0.750857061474451,337.97184158859
738346.45985103363636881113,0.22156437879574,-0.76316619362977,337.984150720745
738346.45985112409107387066,0.22156437879574,-0.76316619362977,337.922605059969
738346.45985121454577893019,0.22156437879574,-0.750857061474451,337.934914192124
738346.45985130500048398972,0.22156437879574,-0.800093590095726,337.947223324279
738346.45985139545518904924,0.22156437879574,-0.76316619362977,337.885677663503
738346.45985148579347878695,0.22156437879574,-0.787784457940408,337.996459852901
738346.45985157624818384647,0.209255246640421,-0.787784457940408,337.996459852901
738346.45985166670288890600,0.209255246640421,-0.775475325785089,337.947223324279
738346.45985175715759396553,0.209255246640421,-0.787784457940408,337.76258634195
738346.45985184761229902506,0.209255246640421,-0.787784457940408,337.97184158859
738346.45985193806700408459,0.209255246640421,-0.787784457940408,337.959532456435
738346.45985202852170914412,0.209255246640421,-0.787784457940408,337.910295927814
738346.45985211897641420364,0.209255246640421,-0.800093590095726,338.008768985056
738346.45985220943111926317,0.209255246640421,-0.775475325785089,337.959532456435
738346.45985229988582432270,0.22156437879574,-0.800093590095726,337.910295927814
738346.45985239034052938223,0.209255246640421,-0.775475325785089,337.959532456435
738346.45985248067881911993,0.22156437879574,-0.775475325785089,337.959532456435
738346.45985257113352417946,0.209255246640421,-0.800093590095726,337.897986795658
738346.45985266158822923899,0.22156437879574,-0.787784457940408,337.848750267037
738346.45985275204293429852,0.196946114485102,-0.800093590095726,337.78720460626
738346.45985284249763935804,0.209255246640421,-0.800093590095726,337.885677663503
738346.45985293295234441757,0.196946114485102,-0.787784457940408,337.873368531348
738346.45985302340704947710,0.209255246640421,-0.812402722251045,337.873368531348
738346.45985311386175453663,0.209255246640421,-0.812402722251045,337.910295927814
738346.45985320431645959616,0.209255246640421,-0.787784457940408,337.922605059969
738346.45985329477116465569,0.22156437879574,-0.750857061474451,337.910295927814
738346.45985338522586971521,0.209255246640421,-0.837020986561683,337.947223324279
738346.45985347568057477474,0.209255246640421,-0.812402722251045,337.910295927814
738346.45985356601886451244,0.209255246640421,-0.775475325785089,337.885677663503
738346.45985365647356957197,0.22156437879574,-0.812402722251045,337.848750267037
738346.45985374692827463150,0.196946114485102,-0.800093590095726,337.873368531348
738346.45985383738297969103,0.209255246640421,-0.787784457940408,337.934914192124
738346.45985392783768475056,0.209255246640421,-0.787784457940408,337.848750267037
738346.45985401829238981009,0.22156437879574,-0.787784457940408,337.947223324279
738346.45985410874709486961,0.209255246640421,-0.800093590095726,337.947223324279
738346.45985419920179992914,0.209255246640421,-0.812402722251045,337.897986795658
738346.45985428965650498867,0.209255246640421,-0.800093590095726,337.910295927814
738346.45985438011121004820,0.196946114485102,-0.787784457940408,337.947223324279
738346.45985447056591510773,0.196946114485102,-0.812402722251045,337.959532456435
738346.45985456090420484543,0.196946114485102,-0.800093590095726,337.848750267037
738346.45985465135890990496,0.196946114485102,-0.812402722251045,337.873368531348
738346.45985474181361496449,0.196946114485102,-0.812402722251045,337.873368531348
738346.45985483226832002401,0.184636982329783,-0.812402722251045,337.824132002726
738346.45985492272302508354,0.209255246640421,-0.787784457940408,337.873368531348
738346.45985501317773014307,0.233873510951058,-0.76316619362977,337.873368531348
738346.45985510363243520260,0.196946114485102,-0.800093590095726,337.861059399192
738346.45985519408714026213,0.209255246640421,-0.775475325785089,337.688731549018
738346.45985528454184532166,0.209255246640421,-0.849330118717002,337.750277209794
738346.45985537499655038118,0.209255246640421,-0.837020986561683,337.934914192124
738346.45985546545125544071,0.209255246640421,-0.787784457940408,337.984150720745
738346.45985555578954517841,0.258491775261696,-0.750857061474451,337.897986795658
738346.45985564624425023794,0.270800907417015,-0.750857061474451,337.934914192124
738346.45985573669895529747,0.283110039572334,-0.713929665008494,337.947223324279
738346.45985582715366035700,0.320037436038291,-0.689311400697857,337.861059399192
738346.45985591760836541653,0.344655700348928,-0.6523840042319,337.910295927814
738346.45985600806307047606,0.332346568193609,-0.701620532853175,337.959532456435
738346.45985609851777553558,0.283110039572334,-0.689311400697857,337.910295927814
738346.45985618897248059511,0.295419171727653,-0.701620532853175,337.959532456435
738346.45985627942718565464,0.258491775261696,-0.713929665008494,337.984150720745
738346.45985636988189071417,0.233873510951058,-0.76316619362977,337.97184158859
738346.45985646033659577370,0.196946114485102,-0.800093590095726,337.934914192124
738346.45985655079130083323,0.196946114485102,-0.837020986561683,337.984150720745
738346.45985664112959057093,0.196946114485102,-0.800093590095726,337.959532456435
738346.45985673158429563046,0.209255246640421,-0.787784457940408,337.873368531348
738346.45985682203900068998,0.196946114485102,-0.800093590095726,337.947223324279
738346.45985691249370574951,0.209255246640421,-0.837020986561683,337.897986795658
738346.45985700294841080904,0.196946114485102,-0.824711854406364,337.885677663503
738346.45985709340311586857,0.196946114485102,-0.800093590095726,337.922605059969
738346.45985718385782092810,0.209255246640421,-0.812402722251045,337.873368531348
738346.45985727431252598763,0.209255246640421,-0.837020986561683,337.959532456435
738346.45985736476723104715,0.184636982329783,-0.837020986561683,337.947223324279
738346.45985745522193610668,0.0984730572425509,-0.898566647338277,337.934914192124
738346.45985754567664116621,0.172327850174464,-0.812402722251045,337.947223324279
738346.45985763601493090391,0.553910946989349,-0.332346568193609,337.873368531348
738346.45985772646963596344,1.05858536535742,0.172327850174464,337.713349813328
738346.45985781692434102297,1.63711457665741,0.713929665008494,337.442548905911
738346.45985790737904608250,1.77251503036592,1.00934883673615,337.331766716514
738346.45985799783375114202,1.07089449751274,-0.22156437879574,337.20867539496
738346.45985808828845620155,0.258491775261696,-1.5017141229489,337.430239773756
738346.45985817874316126108,0.0861639250872321,-1.36631366924039,337.614876756086
738346.45985826919786632061,0.246182643106377,-0.886257515182958,337.76258634195
738346.45985835965257138014,0.307728303882972,-0.664693136387219,337.947223324279
738346.45985845010727643967,0.283110039572334,-0.664693136387219,337.984150720745
738346.45985854056198149920,0.258491775261696,-0.701620532853175,337.848750267037
738346.45985863090027123690,0.246182643106377,-0.689311400697857,337.959532456435
738346.45985872135497629642,0.246182643106377,-0.677002268542538,337.737968077639
738346.45985881180968135595,0.258491775261696,-0.677002268542538,337.861059399192
738346.45985890226438641548,0.258491775261696,-0.677002268542538,337.922605059969
738346.45985899271909147501,0.246182643106377,-0.6523840042319,337.959532456435
738346.45985908317379653454,0.258491775261696,-0.627765739921262,337.947223324279
738346.45985917362850159407,0.270800907417015,-0.627765739921262,337.934914192124
738346.45985926408320665359,0.283110039572334,-0.615456607765943,337.959532456435
738346.45985935453791171312,0.283110039572334,-0.578529211299987,337.910295927814
738346.45985944499261677265,0.295419171727653,-0.603147475610625,337.910295927814
738346.45985953544732183218,0.295419171727653,-0.553910946989349,337.934914192124
738346.45985962590202689171,0.307728303882972,-0.54160181483403,337.910295927814
738346.45985971624031662941,0.307728303882972,-0.516983550523392,337.885677663503
738346.45985980669502168894,0.332346568193609,-0.480056154057436,337.934914192124
738346.45985989714972674847,0.332346568193609,-0.480056154057436,338.008768985056
738346.45985998760443180799,0.369273964659566,-0.43081962543616,337.947223324279
738346.45986007805913686752,0.381583096814885,-0.406201361125523,338.033387249367
738346.45986016851384192705,0.381583096814885,-0.369273964659566,338.058005513677
738346.45986025896854698658,0.406201361125523,-0.307728303882972,337.959532456435
738346.45986034942325204611,0.43081962543616,-0.270800907417015,338.045696381522
738346.45986043987795710564,0.443128757591479,-0.209255246640421,338.082623777988
738346.45986053033266216516,0.492365286212755,-0.135400453708508,338.058005513677
738346.45986062078736722469,0.492365286212755,-0.123091321553189,338.058005513677
738346.45986071112565696239,0.504674418368074,-0.0492365286212755,338.082623777988
738346.45986080158036202192,0.529292682678711,-0.0246182643106377,338.082623777988
738346.45986089203506708145,0.529292682678711,0,337.996459852901
738346.45986098248977214098,0.54160181483403,0.0123091321553189,338.033387249367
738346.45986107294447720051,0.54160181483403,0,338.082623777988
738346.45986116339918226004,0.553910946989349,0,338.082623777988
738346.45986125385388731956,0.529292682678711,-0.0492365286212755,338.045696381522
738346.45986134430859237909,0.516983550523392,-0.147709585863826,337.959532456435
738346.45986143476329743862,0.480056154057436,-0.22156437879574,337.934914192124
738346.45986152521800249815,0.455437889746798,-0.332346568193609,338.008768985056
738346.45986161567270755768,0.418510493280842,-0.418510493280842,337.97184158859
738346.45986170601099729538,0.381583096814885,-0.492365286212755,337.947223324279
738346.45986179646570235491,0.344655700348928,-0.578529211299987,337.897986795658
738346.45986188692040741444,0.332346568193609,-0.603147475610625,337.897986795658
738346.45986197737511247396,0.295419171727653,-0.664693136387219,337.885677663503
738346.45986206782981753349,0.283110039572334,-0.689311400697857,337.984150720745
738346.45986215828452259302,0.283110039572334,-0.701620532853175,337.861059399192
738346.45986224873922765255,0.270800907417015,-0.713929665008494,337.750277209794
738346.45986233919393271208,0.270800907417015,-0.738547929319132,337.824132002726
738346.45986242964863777161,0.246182643106377,-0.738547929319132,337.947223324279
738346.45986252010334283113,0.270800907417015,-0.738547929319132,337.873368531348
738346.45986261055804789066,0.258491775261696,-0.713929665008494,337.934914192124
738346.45986270101275295019,0.270800907417015,-0.738547929319132,337.910295927814
738346.45986279135104268789,0.270800907417015,-0.713929665008494,337.910295927814
738346.45986288180574774742,0.270800907417015,-0.701620532853175,337.910295927814
738346.45986297226045280695,0.258491775261696,-0.738547929319132,337.885677663503
738346.45986306271515786648,0.258491775261696,-0.726238797163813,337.910295927814
738346.45986315316986292601,0.258491775261696,-0.738547929319132,337.922605059969
738346.45986324362456798553,0.258491775261696,-0.738547929319132,337.922605059969
738346.45986333407927304506,0.258491775261696,-0.738547929319132,337.97184158859
738346.45986342453397810459,0.270800907417015,-0.738547929319132,337.97184158859
738346.45986351498868316412,0.258491775261696,-0.738547929319132,337.861059399192
738346.45986360544338822365,0.258491775261696,-0.738547929319132,337.885677663503
738346.45986369589809328318,0.258491775261696,-0.726238797163813,337.885677663503
738346.45986378623638302088,0.246182643106377,-0.76316619362977,337.873368531348
738346.45986387669108808041,0.258491775261696,-0.750857061474451,337.959532456435
738346.45986396714579313993,0.22156437879574,-0.775475325785089,337.97184158859
738346.45986405760049819946,0.233873510951058,-0.775475325785089,337.873368531348
738346.45986414805520325899,0.233873510951058,-0.775475325785089,337.959532456435
738346.45986423850990831852,0.246182643106377,-0.775475325785089,337.910295927814
738346.45986432896461337805,0.22156437879574,-0.775475325785089,337.861059399192
738346.45986441941931843758,0.246182643106377,-0.775475325785089,337.861059399192
738346.45986450987402349710,0.22156437879574,-0.787784457940408,337.873368531348
738346.45986460032872855663,0.233873510951058,-0.800093590095726,337.873368531348
738346.45986469078343361616,0.22156437879574,-0.787784457940408,337.910295927814
738346.45986478112172335386,0.209255246640421,-0.800093590095726,337.947223324279
738346.45986487157642841339,0.209255246640421,-0.800093590095726,337.97184158859
738346.45986496203113347292,0.209255246640421,-0.787784457940408,338.033387249367
738346.45986505248583853245,0.22156437879574,-0.800093590095726,337.934914192124
738346.45986514294054359198,0.209255246640421,-0.800093590095726,337.996459852901
738346.45986523339524865150,0.22156437879574,-0.787784457940408,337.959532456435
738346.45986532384995371103,0.209255246640421,-0.800093590095726,337.922605059969
738346.45986541430465877056,0.22156437879574,-0.787784457940408,337.996459852901
738346.45986550475936383009,0.196946114485102,-0.800093590095726,338.021078117211
738346.45986559521406888962,0.209255246640421,-0.824711854406364,337.959532456435
738346.45986568566877394915,0.209255246640421,-0.800093590095726,337.959532456435
738346.45986577612347900867,0.209255246640421,-0.800093590095726,337.861059399192
738346.45986586646176874638,0.196946114485102,-0.812402722251045,337.836441134882
738346.45986595691647380590,0.209255246640421,-0.787784457940408,337.922605059969
738346.45986604737117886543,0.196946114485102,-0.812402722251045,337.996459852901
738346.45986613782588392496,0.209255246640421,-0.812402722251045,337.897986795658
738346.45986622828058898449,0.209255246640421,-0.812402722251045,337.897986795658
738346.45986631873529404402,0.209255246640421,-0.800093590095726,337.897986795658
738346.45986640918999910355,0.209255246640421,-0.800093590095726,337.934914192124
738346.45986649964470416307,0.209255246640421,-0.800093590095726,337.897986795658
738346.45986659009940922260,0.209255246640421,-0.800093590095726,337.897986795658
738346.45986668055411428213,0.209255246640421,-0.787784457940408,337.922605059969
738346.45986677100881934166,0.209255246640421,-0.800093590095726,337.885677663503
738346.45986686134710907936,0.196946114485102,-0.800093590095726,337.885677663503
738346.45986695180181413889,0.209255246640421,-0.812402722251045,337.910295927814
738346.45986704225651919842,0.209255246640421,-0.800093590095726,337.984150720745
738346.45986713271122425795,0.22156437879574,-0.812402722251045,337.910295927814
738346.45986722316592931747,0.22156437879574,-0.800093590095726,337.885677663503
738346.45986731362063437700,0.258491775261696,-0.76316619362977,337.947223324279
738346.45986740407533943653,0.258491775261696,-0.738547929319132,337.885677663503
738346.45986749453004449606,0.283110039572334,-0.713929665008494,337.861059399192
738346.45986758498474955559,0.320037436038291,-0.689311400697857,337.811822870571
738346.45986767543945461512,0.344655700348928,-0.664693136387219,337.910295927814
738346.45986776589415967464,0.320037436038291,-0.677002268542538,337.885677663503
738346.45986785623244941235,0.307728303882972,-0.689311400697857,337.959532456435
738346.45986794668715447187,0.295419171727653,-0.701620532853175,337.947223324279
738346.45986803714185953140,0.233873510951058,-0.738547929319132,337.885677663503
738346.45986812759656459093,0.22156437879574,-0.750857061474451,338.008768985056
738346.45986821805126965046,0.196946114485102,-0.787784457940408,337.984150720745
738346.45986830850597470999,0.196946114485102,-0.800093590095726,337.947223324279
738346.45986839896067976952,0.22156437879574,-0.787784457940408,337.984150720745
738346.45986848941538482904,0.22156437879574,-0.787784457940408,337.996459852901
738346.45986857987008988857,0.196946114485102,-0.800093590095726,338.021078117211
738346.45986867032479494810,0.184636982329783,-0.812402722251045,337.922605059969
738346.45986876077950000763,0.184636982329783,-0.812402722251045,337.996459852901
738346.45986885123420506716,0.196946114485102,-0.800093590095726,338.033387249367
738346.45986894157249480486,0.209255246640421,-0.800093590095726,337.97184158859
738346.45986903202719986439,0.196946114485102,-0.800093590095726,337.97184158859
738346.45986912248190492392,0.184636982329783,-0.824711854406364,338.008768985056
738346.45986921293660998344,0.135400453708508,-0.861639250872321,338.045696381522
738346.45986930339131504297,0.123091321553189,-0.824711854406364,337.873368531348
738346.45986939384602010250,0.393892228970204,-0.467747021902117,337.848750267037
738346.45986948430072516203,0.910875779493596,0.184636982329783,337.897986795658
738346.45986957475543022156,1.52633238725954,0.6523840042319,337.57794935962
738346.45986966521013528109,1.89560635191911,0.960112308114872,337.405621509445
738346.45986975566484034061,1.41555019786167,0.22156437879574,337.36869411298
738346.45986984611954540014,0.43081962543616,-1.42785933001699,337.294839320048
738346.45986993645783513784,-0.0123091321553189,-1.72327850174464,337.590258491775
738346.45987002691254019737,0.0492365286212755,-1.21860408337657,337.861059399192
738346.45987011736724525690,0.22156437879574,-0.812402722251045,337.873368531348
738346.45987020782195031643,0.270800907417015,-0.689311400697857,337.947223324279
738346.45987029827665537596,0.246182643106377,-0.677002268542538,337.97184158859
738346.45987038873136043549,0.233873510951058,-0.677002268542538,338.008768985056
738346.45987047918606549501,0.258491775261696,-0.664693136387219,337.897986795658
738346.45987056964077055454,0.246182643106377,-0.664693136387219,337.984150720745
738346.45987066009547561407,0.246182643106377,-0.6523840042319,338.008768985056
738346.45987075055018067360,0.233873510951058,-0.640074872076581,337.959532456435
738346.45987084100488573313,0.270800907417015,-0.615456607765943,337.984150720745
738346.45987093134317547083,0.270800907417015,-0.590838343455306,338.021078117211
738346.45987102179788053036,0.283110039572334,-0.578529211299987,338.021078117211
738346.45987111225258558989,0.270800907417015,-0.578529211299987,337.959532456435
738346.45987120270729064941,0.270800907417015,-0.553910946989349,337.934914192124
738346.45987129316199570894,0.270800907417015,-0.553910946989349,337.959532456435
738346.45987138361670076847,0.295419171727653,-0.516983550523392,337.97184158859
738346.45987147407140582800,0.283110039572334,-0.504674418368074,337.885677663503
738346.45987156452611088753,0.307728303882972,-0.455437889746798,337.910295927814
738346.45987165498081594706,0.332346568193609,-0.418510493280842,337.922605059969
738346.45987174543552100658,0.356964832504247,-0.381583096814885,337.947223324279
738346.45987183589022606611,0.344655700348928,-0.381583096814885,337.996459852901
738346.45987192634493112564,0.356964832504247,-0.320037436038291,337.947223324279
738346.45987201668322086334,0.381583096814885,-0.283110039572334,337.97184158859
738346.45987210713792592287,0.393892228970204,-0.246182643106377,337.97184158859
738346.45987219759263098240,0.418510493280842,-0.172327850174464,337.97184158859
738346.45987228804733604193,0.43081962543616,-0.135400453708508,337.996459852901
738346.45987237850204110146,0.455437889746798,-0.0984730572425509,337.984150720745
738346.45987246895674616098,0.467747021902117,-0.0369273964659566,338.045696381522
738346.45987255941145122051,0.516983550523392,0.0123091321553189,338.082623777988
738346.45987264986615628004,0.504674418368074,0.0246182643106377,338.082623777988
738346.45987274032086133957,0.529292682678711,0.0738547929319132,338.070314645833
738346.45987283077556639910,0.529292682678711,0.0861639250872321,338.008768985056
738346.45987292123027145863,0.54160181483403,0.0492365286212755,337.922605059969
738346.45987301156856119633,0.504674418368074,-0.0123091321553189,338.021078117211
738346.45987310202326625586,0.504674418368074,-0.0738547929319132,338.033387249367
738346.45987319247797131538,0.480056154057436,-0.184636982329783,338.021078117211
738346.45987328293267637491,0.455437889746798,-0.283110039572334,337.885677663503
738346.45987337338738143444,0.406201361125523,-0.393892228970204,337.897986795658
738346.45987346384208649397,0.369273964659566,-0.455437889746798,337.897986795658
738346.45987355429679155350,0.344655700348928,-0.529292682678711,337.885677663503
738346.45987364475149661303,0.307728303882972,-0.603147475610625,337.897986795658
738346.45987373520620167255,0.283110039572334,-0.664693136387219,337.934914192124
738346.45987382566090673208,0.258491775261696,-0.689311400697857,338.008768985056
738346.45987391611561179161,0.233873510951058,-0.701620532853175,337.897986795658
738346.45987400645390152931,0.233873510951058,-0.713929665008494,337.97184158859
738346.45987409690860658884,0.246182643106377,-0.713929665008494,337.934914192124
738346.45987418736331164837,0.246182643106377,-0.701620532853175,337.824132002726
738346.45987427781801670790,0.22156437879574,-0.738547929319132,337.910295927814
738346.45987436827272176743,0.233873510951058,-0.713929665008494,337.848750267037
738346.45987445872742682695,0.233873510951058,-0.726238797163813,337.861059399192
738346.45987454918213188648,0.233873510951058,-0.713929665008494,337.861059399192
738346.45987463963683694601,0.233873510951058,-0.713929665008494,337.873368531348
738346.45987473009154200554,0.22156437879574,-0.726238797163813,337.885677663503
738346.45987482054624706507,0.209255246640421,-0.726238797163813,337.873368531348
738346.45987491100095212460,0.233873510951058,-0.713929665008494,337.885677663503
738346.45987500145565718412,0.22156437879574,-0.713929665008494,337.910295927814
738346.45987509179394692183,0.209255246640421,-0.726238797163813,337.885677663503
738346.45987518224865198135,0.196946114485102,-0.750857061474451,337.873368531348
738346.45987527270335704088,0.22156437879574,-0.713929665008494,337.922605059969
738346.45987536315806210041,0.196946114485102,-0.738547929319132,337.897986795658
738346.45987545361276715994,0.196946114485102,-0.726238797163813,337.934914192124
738346.45987554406747221947,0.196946114485102,-0.738547929319132,337.934914192124
738346.45987563452217727900,0.196946114485102,-0.76316619362977,337.861059399192
738346.45987572497688233852,0.160018718019145,-0.775475325785089,337.934914192124
738346.45987581543158739805,0.184636982329783,-0.76316619362977,337.848750267037
738346.45987590588629245758,0.160018718019145,-0.76316619362977,337.861059399192
738346.45987599634099751711,0.172327850174464,-0.775475325785089,337.873368531348
738346.45987608667928725481,0.172327850174464,-0.76316619362977,337.824132002726
738346.45987617713399231434,0.160018718019145,-0.800093590095726,337.910295927814
738346.45987626758869737387,0.172327850174464,-0.787784457940408,337.947223324279
738346.45987635804340243340,0.160018718019145,-0.800093590095726,337.836441134882
738346.45987644849810749292,0.147709585863826,-0.800093590095726,337.774895474105
738346.45987653895281255245,0.147709585863826,-0.787784457940408,337.922605059969
738346.45987662940751761198,0.172327850174464,-0.800093590095726,337.897986795658
738346.45987671986222267151,0.160018718019145,-0.775475325785089,337.959532456435
738346.45987681031692773104,0.172327850174464,-0.787784457940408,337.934914192124
738346.45987690077163279057,0.135400453708508,-0.800093590095726,337.897986795658
738346.45987699122633785009,0.147709585863826,-0.812402722251045,337.959532456435
738346.45987708156462758780,0.147709585863826,-0.800093590095726,338.008768985056
738346.45987717201933264732,0.147709585863826,-0.800093590095726,337.910295927814
738346.45987726247403770685,0.147709585863826,-0.800093590095726,337.947223324279
738346.45987735292874276638,0.160018718019145,-0.800093590095726,337.959532456435
738346.45987744338344782591,0.147709585863826,-0.812402722251045,337.934914192124
738346.45987753383815288544,0.160018718019145,-0.800093590095726,337.996459852901
738346.45987762429285794497,0.135400453708508,-0.800093590095726,337.97184158859
738346.45987771474756300449,0.135400453708508,-0.837020986561683,337.947223324279
738346.45987780520226806402,0.135400453708508,-0.800093590095726,337.922605059969
738346.45987789565697312355,0.135400453708508,-0.812402722251045,337.947223324279
738346.45987798611167818308,0.123091321553189,-0.837020986561683,337.934914192124
738346.45987807656638324261,0.147709585863826,-0.812402722251045,337.934914192124
738346.45987816690467298031,0.135400453708508,-0.812402722251045,337.97184158859
738346.45987825735937803984,0.135400453708508,-0.800093590095726,337.984150720745
738346.45987834781408309937,0.135400453708508,-0.824711854406364,338.033387249367
738346.45987843826878815889,0.123091321553189,-0.824711854406364,337.897986795658
738346.45987852872349321842,0.147709585863826,-0.824711854406364,337.947223324279
738346.45987861917819827795,0.135400453708508,-0.824711854406364,337.861059399192
738346.45987870963290333748,0.160018718019145,-0.787784457940408,337.799513738416
738346.45987880008760839701,0.160018718019145,-0.787784457940408,337.824132002726
738346.45987889054231345654,0.196946114485102,-0.76316619362977,337.774895474105
738346.45987898099701851606,0.246182643106377,-0.689311400697857,337.76258634195
738346.45987907145172357559,0.246182643106377,-0.701620532853175,337.824132002726
738346.45987916179001331329,0.233873510951058,-0.701620532853175,337.861059399192
738346.45987925224471837282,0.196946114485102,-0.713929665008494,337.848750267037
738346.45987934269942343235,0.196946114485102,-0.738547929319132,337.922605059969
738346.45987943315412849188,0.160018718019145,-0.750857061474451,337.959532456435
738346.45987952360883355141,0.123091321553189,-0.812402722251045,337.910295927814
738346.45987961406353861094,0.11078218939787,-0.824711854406364,337.934914192124
738346.45987970451824367046,0.11078218939787,-0.824711854406364,337.959532456435
738346.45987979497294872999,0.0984730572425509,-0.837020986561683,337.97184158859
738346.45987988542765378952,0.0984730572425509,-0.837020986561683,337.873368531348
738346.45987997588235884905,0.0984730572425509,-0.837020986561683,337.811822870571
738346.45988006633706390858,0.0984730572425509,-0.837020986561683,337.959532456435
738346.45988015667535364628,0.0861639250872321,-0.849330118717002,337.934914192124
738346.45988024713005870581,0.0984730572425509,-0.849330118717002,337.897986795658
738346.45988033758476376534,0.0984730572425509,-0.824711854406364,337.922605059969
738346.45988042803946882486,0.0861639250872321,-0.849330118717002,337.910295927814
738346.45988051849417388439,0.0615456607765943,-0.861639250872321,337.97184158859
738346.45988060894887894392,-0.0246182643106377,-0.947803175959553,337.97184158859
738346.45988069940358400345,0.0615456607765943,-0.837020986561683,337.934914192124
738346.45988078985828906298,0.467747021902117,-0.356964832504247,337.824132002726
738346.45988088031299412251,0.997039704580828,0.147709585863826,337.701040681173
738346.45988097076769918203,1.61249631234677,0.627765739921262,337.454858038067
738346.45988106122240424156,1.73558763389996,0.849330118717002,337.344075848669
738346.45988115167710930109,0.984730572425509,-0.418510493280842,337.220984527116
738346.45988124201539903879,0.160018718019145,-1.58787804803613,337.430239773756
738346.45988133247010409832,-0.0246182643106377,-1.40324106570635,337.713349813328
738346.45988142292480915785,0.123091321553189,-0.960112308114872,337.861059399192
738346.45988151337951421738,0.172327850174464,-0.713929665008494,337.897986795658
738346.45988160383421927691,0.147709585863826,-0.726238797163813,337.947223324279
738346.45988169428892433643,0.147709585863826,-0.726238797163813,337.984150720745
738346.45988178474362939596,0.135400453708508,-0.713929665008494,337.947223324279
738346.45988187519833445549,0.135400453708508,-0.701620532853175,337.996459852901
738346.45988196565303951502,0.135400453708508,-0.701620532853175,338.021078117211
738346.45988205610774457455,0.123091321553189,-0.701620532853175,337.996459852901
738346.45988214656244963408,0.135400453708508,-0.689311400697857,337.97184158859
738346.45988223690073937178,0.135400453708508,-0.677002268542538,337.97184158859
738346.45988232735544443130,0.135400453708508,-0.6523840042319,338.008768985056
738346.45988241781014949083,0.160018718019145,-0.6523840042319,337.934914192124
738346.45988250826485455036,0.160018718019145,-0.627765739921262,337.947223324279
738346.45988259871955960989,0.184636982329783,-0.603147475610625,337.97184158859
738346.45988268917426466942,0.184636982329783,-0.553910946989349,337.959532456435
738346.45988277962896972895,0.209255246640421,-0.566220079144668,337.97184158859
738346.45988287008367478848,0.209255246640421,-0.54160181483403,337.811822870571
738346.45988296053837984800,0.233873510951058,-0.504674418368074,337.885677663503
738346.45988305099308490753,0.22156437879574,-0.504674418368074,337.947223324279
738346.45988314144778996706,0.246182643106377,-0.443128757591479,337.885677663503
738346.45988323178607970476,0.246182643106377,-0.418510493280842,337.959532456435
738346.45988332224078476429,0.283110039572334,-0.369273964659566,337.897986795658
738346.45988341269548982382,0.295419171727653,-0.320037436038291,337.713349813328
738346.45988350315019488335,0.332346568193609,-0.270800907417015,337.737968077639
738346.45988359360489994287,0.332346568193609,-0.246182643106377,337.922605059969
738346.45988368405960500240,0.356964832504247,-0.147709585863826,337.947223324279
738346.45988377451431006193,0.381583096814885,-0.160018718019145,337.897986795658
738346.45988386496901512146,0.381583096814885,-0.0861639250872321,337.984150720745
738346.45988395542372018099,0.418510493280842,-0.0246182643106377,337.97184158859
738346.45988404587842524052,0.418510493280842,0,338.021078117211
738346.45988413633313030005,0.43081962543616,0,338.033387249367
738346.45988422678783535957,0.443128757591479,0.0246182643106377,338.033387249367
738346.45988431712612509727,0.43081962543616,0,337.959532456435
738346.45988440758083015680,0.43081962543616,-0.0738547929319132,338.008768985056
738346.45988449803553521633,0.406201361125523,-0.172327850174464,338.045696381522
738346.45988458849024027586,0.356964832504247,-0.258491775261696,337.897986795658
738346.45988467894494533539,0.332346568193609,-0.381583096814885,337.947223324279
738346.45988476939965039492,0.283110039572334,-0.455437889746798,337.897986795658
738346.45988485985435545444,0.246182643106377,-0.578529211299987,337.959532456435
738346.45988495030906051397,0.209255246640421,-0.578529211299987,337.947223324279
738346.45988504076376557350,0.196946114485102,-0.677002268542538,337.885677663503
738346.45988513121847063303,0.160018718019145,-0.713929665008494,337.897986795658
738346.45988522167317569256,0.147709585863826,-0.726238797163813,337.947223324279
738346.45988531201146543026,0.135400453708508,-0.76316619362977,337.947223324279
738346.45988540246617048979,0.123091321553189,-0.76316619362977,337.922605059969
738346.45988549292087554932,0.147709585863826,-0.76316619362977,337.897986795658
738346.45988558337558060884,0.123091321553189,-0.76316619362977,337.959532456435
738346.45988567383028566837,0.123091321553189,-0.76316619362977,337.984150720745
738346.45988576428499072790,0.123091321553189,-0.76316619362977,337.873368531348
738346.45988585473969578743,0.135400453708508,-0.76316619362977,337.934914192124
738346.45988594519440084696,0.147709585863826,-0.750857061474451,337.934914192124
738346.45988603564910590649,0.135400453708508,-0.76316619362977,337.848750267037
738346.45988612610381096601,0.123091321553189,-0.750857061474451,337.947223324279
738346.45988621655851602554,0.123091321553189,-0.775475325785089,337.97184158859
738346.45988630689680576324,0.123091321553189,-0.787784457940408,337.873368531348
738346.45988639735151082277,0.123091321553189,-0.775475325785089,337.922605059969
738346.45988648780621588230,0.123091321553189,-0.775475325785089,337.910295927814
738346.45988657826092094183,0.123091321553189,-0.787784457940408,337.947223324279
738346.45988666871562600136,0.135400453708508,-0.76316619362977,337.897986795658
738346.45988675917033106089,0.135400453708508,-0.787784457940408,337.861059399192
738346.45988684962503612041,0.123091321553189,-0.812402722251045,337.848750267037
738346.45988694007974117994,0.0984730572425509,-0.775475325785089,337.676422416862
738346.45988703053444623947,0.11078218939787,-0.800093590095726,337.774895474105
738346.45988712098915129900,0.11078218939787,-0.787784457940408,337.910295927814
738346.45988721144385635853,0.11078218939787,-0.812402722251045,337.861059399192
738346.45988730189856141806,0.0861639250872321,-0.824711854406364,337.848750267037
738346.45988739223685115576,0.0861639250872321,-0.824711854406364,337.836441134882
738346.45988748269155621529,0.0861639250872321,-0.812402722251045,337.885677663503
738346.45988757314626127481,0.0984730572425509,-0.812402722251045,337.861059399192
738346.45988766360096633434,0.0861639250872321,-0.812402722251045,337.873368531348
738346.45988775405567139387,0.0861639250872321,-0.849330118717002,337.861059399192
738346.45988784451037645340,0.0984730572425509,-0.787784457940408,337.897986795658
738346.45988793496508151293,0.0738547929319132,-0.837020986561683,337.947223324279
738346.45988802541978657246,0.0738547929319132,-0.837020986561683,337.861059399192
738346.45988811587449163198,0.0738547929319132,-0.837020986561683,337.934914192124
738346.45988820632919669151,0.0738547929319132,-0.849330118717002,337.922605059969
738346.45988829678390175104,0.0615456607765943,-0.837020986561683,337.873368531348
738346.45988838712219148874,0.0615456607765943,-0.837020986561683,337.910295927814
738346.45988847757689654827,0.0615456607765943,-0.849330118717002,337.934914192124
738346.45988856803160160780,0.0738547929319132,-0.837020986561683,337.934914192124
738346.45988865848630666733,0.0738547929319132,-0.824711854406364,337.799513738416
738346.45988874894101172686,0.0984730572425509,-0.812402722251045,337.836441134882
738346.45988883939571678638,0.0738547929319132,-0.87394838302764,337.848750267037
738346.45988892985042184591,0.0738547929319132,-0.837020986561683,337.799513738416
738346.45988902030512690544,0.0738547929319132,-0.849330118717002,337.824132002726
738346.45988911075983196497,0.0861639250872321,-0.837020986561683,337.824132002726
738346.45988920121453702450,0.0861639250872321,-0.837020986561683,337.811822870571
738346.45988929166924208403,0.0738547929319132,-0.849330118717002,337.861059399192
738346.45988938200753182173,0.0861639250872321,-0.861639250872321,337.861059399192
738346.45988947246223688126,0.0615456607765943,-0.849330118717002,337.873368531348
738346.45988956291694194078,0.0738547929319132,-0.837020986561683,337.922605059969
738346.45988965337164700031,0.0615456607765943,-0.861639250872321,337.861059399192
738346.45988974382635205984,0.0738547929319132,-0.824711854406364,337.959532456435
738346.45988983428105711937,0.0738547929319132,-0.837020986561683,337.922605059969
738346.45988992473576217890,0.0738547929319132,-0.849330118717002,337.885677663503
738346.45989001519046723843,0.0861639250872321,-0.837020986561683,337.922605059969
738346.45989010564517229795,0.0861639250872321,-0.861639250872321,337.922605059969
738346.45989019609987735748,0.0738547929319132,-0.849330118717002,337.885677663503
738346.45989028655458241701,0.0861639250872321,-0.837020986561683,337.947223324279
738346.45989037700928747654,0.0738547929319132,-0.849330118717002,337.947223324279
738346.45989046734757721424,0.0861639250872321,-0.849330118717002,337.76258634195
738346.45989055780228227377,0.0861639250872321,-0.861639250872321,337.737968077639
738346.45989064825698733330,0.0861639250872321,-0.849330118717002,337.885677663503
738346.45989073871169239283,0.11078218939787,-0.824711854406364,337.910295927814
738346.45989082916639745235,0.135400453708508,-0.800093590095726,337.78720460626
738346.45989091962110251188,0.135400453708508,-0.775475325785089,337.910295927814
738346.45989101007580757141,0.184636982329783,-0.726238797163813,337.922605059969
738346.45989110053051263094,0.209255246640421,-0.726238797163813,337.861059399192
738346.45989119098521769047,0.184636982329783,-0.726238797163813,337.799513738416
738346.45989128143992275000,0.172327850174464,-0.726238797163813,337.885677663503
738346.45989137189462780952,0.160018718019145,-0.750857061474451,337.885677663503
738346.45989146223291754723,0.135400453708508,-0.750857061474451,337.873368531348
738346.45989155268762260675,0.11078218939787,-0.775475325785089,337.885677663503
738346.45989164314232766628,0.0984730572425509,-0.824711854406364,337.873368531348
738346.45989173359703272581,0.0615456607765943,-0.837020986561683,337.873368531348
738346.45989182405173778534,0.0615456607765943,-0.861639250872321,337.934914192124
738346.45989191450644284487,0.0738547929319132,-0.849330118717002,337.861059399192
738346.45989200496114790440,0.0615456607765943,-0.87394838302764,337.897986795658
738346.45989209541585296392,0.0492365286212755,-0.849330118717002,337.861059399192
738346.45989218587055802345,0.0492365286212755,-0.861639250872321,337.910295927814
738346.45989227632526308298,0.0492365286212755,-0.87394838302764,337.897986795658
738346.45989236677996814251,0.0492365286212755,-0.861639250872321,337.947223324279
738346.45989245711825788021,0.0615456607765943,-0.849330118717002,337.897986795658
738346.45989254757296293974,0.0492365286212755,-0.861639250872321,337.910295927814
738346.45989263802766799927,-0.0123091321553189,-0.947803175959553,337.922605059969
738346.45989272848237305880,-0.0246182643106377,-0.910875779493596,337.959532456435
738346.45989281893707811832,0.295419171727653,-0.566220079144668,337.897986795658
738346.45989290939178317785,0.54160181483403,-0.270800907417015,337.836441134882
738346.45989299984648823738,1.07089449751274,0.258491775261696,337.614876756086
738346.45989309030119329691,1.64942370881273,0.738547929319132,337.381003245135
738346.45989318075589835644,1.57556891588082,0.800093590095726,337.196366262805
738346.45989327121060341597,0.738547929319132,-0.677002268542538,337.134820602028
738346.45989336166530847549,0.0861639250872321,-1.5632597837255,337.381003245135
738346.45989345212001353502,0,-1.26784061199784,337.651804152552
738346.45989354245830327272,0.160018718019145,-0.824711854406364,337.750277209794
738346.45989363291300833225,0.160018718019145,-0.713929665008494,337.910295927814
738346.45989372336771339178,0.11078218939787,-0.713929665008494,337.934914192124
738346.45989381382241845131,0.123091321553189,-0.738547929319132,337.934914192124
738346.45989390427712351084,0.0984730572425509,-0.726238797163813,337.885677663503
738346.45989399473182857037,0.123091321553189,-0.701620532853175,337.811822870571
738346.45989408518653362989,0.11078218939787,-0.701620532853175,337.861059399192
738346.45989417564123868942,0.11078218939787,-0.689311400697857,337.897986795658
738346.45989426609594374895,0.11078218939787,-0.689311400697857,337.934914192124
738346.45989435655064880848,0.123091321553189,-0.664693136387219,337.885677663503
738346.45989444700535386801,0.123091321553189,-0.664693136387219,337.848750267037
738346.45989453734364360571,0.147709585863826,-0.6523840042319,337.848750267037
738346.45989462779834866524,0.147709585863826,-0.627765739921262,337.885677663503
738346.45989471825305372477,0.147709585863826,-0.590838343455306,337.910295927814
738346.45989480870775878429,0.147709585863826,-0.590838343455306,337.897986795658
738346.45989489916246384382,0.172327850174464,-0.553910946989349,337.947223324279
738346.45989498961716890335,0.196946114485102,-0.516983550523392,337.97184158859
738346.45989508007187396288,0.209255246640421,-0.504674418368074,337.959532456435
738346.45989517052657902241,0.209255246640421,-0.516983550523392,337.984150720745
738346.45989526098128408194,0.22156437879574,-0.455437889746798,337.885677663503
738346.45989535143598914146,0.246182643106377,-0.418510493280842,337.885677663503
738346.45989544189069420099,0.258491775261696,-0.381583096814885,337.910295927814
738346.45989553222898393869,0.270800907417015,-0.332346568193609,337.922605059969
738346.45989562268368899822,0.283110039572334,-0.270800907417015,337.897986795658
738346.45989571313839405775,0.320037436038291,-0.233873510951058,337.934914192124
738346.45989580359309911728,0.344655700348928,-0.172327850174464,337.947223324279
738346.45989589404780417681,0.369273964659566,-0.0984730572425509,337.959532456435
738346.45989598450250923634,0.381583096814885,-0.0615456607765943,337.947223324279
738346.45989607495721429586,0.406201361125523,-0.0369273964659566,337.959532456435
738346.45989616541191935539,0.406201361125523,-0.0123091321553189,338.033387249367
738346.45989625586662441492,0.418510493280842,0.0123091321553189,337.996459852901
738346.45989634632132947445,0.418510493280842,-0.0123091321553189,337.984150720745
738346.45989643677603453398,0.406201361125523,-0.0615456607765943,337.97184158859
738346.45989652723073959351,0.393892228970204,-0.123091321553189,338.033387249367
738346.45989661756902933121,0.356964832504247,-0.233873510951058,337.984150720745
738346.45989670802373439074,0.344655700348928,-0.283110039572334,337.97184158859
738346.45989679847843945026,0.307728303882972,-0.393892228970204,337.836441134882
738346.45989688893314450979,0.283110039572334,-0.467747021902117,337.934914192124
738346.45989697938784956932,0.233873510951058,-0.553910946989349,337.934914192124
738346.45989706984255462885,0.209255246640421,-0.627765739921262,337.861059399192
738346.45989716029725968838,0.172327850174464,-0.664693136387219,337.910295927814
738346.45989725075196474791,0.160018718019145,-0.677002268542538,337.922605059969
738346.45989734120666980743,0.160018718019145,-0.726238797163813,337.824132002726
738346.45989743166137486696,0.160018718019145,-0.738547929319132,337.811822870571
738346.45989752211607992649,0.147709585863826,-0.726238797163813,337.725658945484
738346.45989761245436966419,0.147709585863826,-0.750857061474451,337.688731549018
738346.45989770290907472372,0.147709585863826,-0.738547929319132,337.78720460626
738346.45989779336377978325,0.147709585863826,-0.750857061474451,337.824132002726
738346.45989788381848484278,0.147709585863826,-0.738547929319132,337.873368531348
738346.45989797427318990231,0.135400453708508,-0.76316619362977,337.824132002726
738346.45989806472789496183,0.135400453708508,-0.738547929319132,337.885677663503
738346.45989815518260002136,0.147709585863826,-0.76316619362977,337.934914192124
738346.45989824563730508089,0.147709585863826,-0.738547929319132,337.885677663503
738346.45989833609201014042,0.147709585863826,-0.76316619362977,337.873368531348
738346.45989842654671519995,0.135400453708508,-0.750857061474451,337.910295927814
738346.45989851700142025948,0.135400453708508,-0.76316619362977,337.885677663503
738346.45989860733970999718,0.135400453708508,-0.750857061474451,337.824132002726
738346.45989869779441505671,0.123091321553189,-0.76316619362977,337.885677663503
738346.45989878824912011623,0.135400453708508,-0.750857061474451,337.922605059969
738346.45989887870382517576,0.135400453708508,-0.775475325785089,337.922605059969
738346.45989896915853023529,0.135400453708508,-0.775475325785089,337.873368531348
738346.45989905961323529482,0.123091321553189,-0.76316619362977,337.910295927814
738346.45989915006794035435,0.123091321553189,-0.775475325785089,337.897986795658
738346.45989924052264541388,0.123091321553189,-0.775475325785089,337.861059399192
738346.45989933097735047340,0.11078218939787,-0.800093590095726,337.922605059969
738346.45989942143205553293,0.11078218939787,-0.787784457940408,337.959532456435
738346.45989951188676059246,0.0984730572425509,-0.812402722251045,337.836441134882
738346.45989960234146565199,0.123091321553189,-0.787784457940408,337.897986795658
738346.45989969267975538969,0.11078218939787,-0.787784457940408,337.861059399192
738346.45989978313446044922,0.11078218939787,-0.787784457940408,337.824132002726
738346.45989987358916550875,0.11078218939787,-0.800093590095726,337.885677663503
738346.45989996404387056828,0.11078218939787,-0.812402722251045,337.861059399192
738346.45990005449857562780,0.0984730572425509,-0.812402722251045,337.848750267037
738346.45990014495328068733,0.0984730572425509,-0.812402722251045,337.861059399192
738346.45990023540798574686,0.0984730572425509,-0.800093590095726,337.873368531348
738346.45990032586269080639,0.0984730572425509,-0.812402722251045,337.861059399192
738346.45990041631739586592,0.0861639250872321,-0.812402722251045,337.873368531348
738346.45990050677210092545,0.0984730572425509,-0.812402722251045,337.836441134882
738346.45990059722680598497,0.11078218939787,-0.824711854406364,337.848750267037
738346.45990068756509572268,0.0984730572425509,-0.812402722251045,337.848750267037
738346.45990077801980078220,0.0984730572425509,-0.837020986561683,337.861059399192
738346.45990086847450584173,0.0984730572425509,-0.812402722251045,337.861059399192
738346.45990095892921090126,0.0861639250872321,-0.837020986561683,337.861059399192
738346.45990104938391596079,0.0861639250872321,-0.812402722251045,337.824132002726
738346.45990113983862102032,0.0984730572425509,-0.812402722251045,337.76258634195
738346.45990123029332607985,0.0861639250872321,-0.837020986561683,337.873368531348
738346.45990132074803113937,0.0984730572425509,-0.824711854406364,337.910295927814
738346.45990141120273619890,0.0861639250872321,-0.837020986561683,337.910295927814
738346.45990150165744125843,0.0861639250872321,-0.824711854406364,337.811822870571
738346.45990159211214631796,0.0861639250872321,-0.824711854406364,337.848750267037
738346.45990168256685137749,0.0984730572425509,-0.824711854406364,337.885677663503
738346.45990177290514111519,0.0738547929319132,-0.824711854406364,337.922605059969
738346.45990186335984617472,0.0861639250872321,-0.861639250872321,337.885677663503
738346.45990195381455123425,0.0738547929319132,-0.812402722251045,337.848750267037
738346.45990204426925629377,0.0861639250872321,-0.837020986561683,337.861059399192
738346.45990213472396135330,0.0861639250872321,-0.837020986561683,337.910295927814
738346.45990222517866641283,0.0861639250872321,-0.824711854406364,337.910295927814
738346.45990231563337147236,0.0984730572425509,-0.837020986561683,337.922605059969
738346.45990240608807653189,0.0861639250872321,-0.824711854406364,337.873368531348
738346.45990249654278159142,0.0738547929319132,-0.849330118717002,337.922605059969
738346.45990258699748665094,0.0738547929319132,-0.837020986561683,337.959532456435
738346.45990267745219171047,0.0861639250872321,-0.837020986561683,337.922605059969
738346.45990276779048144817,0.0738547929319132,-0.837020986561683,337.836441134882
738346.45990285824518650770,0.0861639250872321,-0.837020986561683,337.897986795658
738346.45990294869989156723,0.0861639250872321,-0.837020986561683,337.922605059969
738346.45990303915459662676,0.0861639250872321,-0.837020986561683,337.885677663503
738346.45990312960930168629,0.0861639250872321,-0.824711854406364,337.910295927814
738346.45990322006400674582,0.0861639250872321,-0.837020986561683,337.910295927814
738346.45990331051871180534,0.0861639250872321,-0.837020986561683,337.873368531348
738346.45990340097341686487,0.11078218939787,-0.824711854406364,337.897986795658
738346.45990349142812192440,0.135400453708508,-0.787784457940408,337.910295927814
738346.45990358188282698393,0.147709585863826,-0.750857061474451,337.861059399192
738346.45990367233753204346,0.160018718019145,-0.76316619362977,337.799513738416
738346.45990376267582178116,0.22156437879574,-0.689311400697857,337.750277209794
738346.45990385313052684069,0.209255246640421,-0.689311400697857,337.774895474105
738346.45990394358523190022,0.196946114485102,-0.726238797163813,337.811822870571
738346.45990403403993695974,0.160018718019145,-0.726238797163813,337.836441134882
738346.45990412449464201927,0.160018718019145,-0.738547929319132,337.873368531348
738346.45990421494934707880,0.147709585863826,-0.76316619362977,337.861059399192
738346.45990430540405213833,0.0984730572425509,-0.76316619362977,337.897986795658
738346.45990439585875719786,0.0861639250872321,-0.824711854406364,337.922605059969
738346.45990448631346225739,0.0738547929319132,-0.87394838302764,337.873368531348
738346.45990457676816731691,0.0738547929319132,-0.837020986561683,337.861059399192
738346.45990466722287237644,0.0738547929319132,-0.837020986561683,337.76258634195
738346.45990475767757743597,0.0738547929319132,-0.849330118717002,337.922605059969
738346.45990484801586717367,0.0615456607765943,-0.849330118717002,337.873368531348
738346.45990493847057223320,0.0615456607765943,-0.849330118717002,337.897986795658
738346.45990502892527729273,0.0615456607765943,-0.861639250872321,337.885677663503
738346.45990511937998235226,0.0615456607765943,-0.861639250872321,337.910295927814
738346.45990520983468741179,0.0615456607765943,-0.824711854406364,337.897986795658
738346.45990530028939247131,0.0246182643106377,-0.898566647338277,337.861059399192
738346.45990539074409753084,-0.0492365286212755,-0.947803175959553,337.947223324279
738346.45990548119880259037,0.0738547929319132,-0.787784457940408,337.885677663503
738346.45990557165350764990,0.504674418368074,-0.270800907417015,337.799513738416
738346.45990566210821270943,1.02165796889147,0.246182643106377,337.676422416862
738346.45990575256291776896,1.58787804803613,0.76316619362977,337.430239773756
738346.45990584290120750666,1.5632597837255,0.898566647338277,337.294839320048
738346.45990593335591256618,0.775475325785089,-0.603147475610625,337.159438866339
738346.45990602381061762571,0.0615456607765943,-1.60018718019145,337.233293659271
738346.45990611426532268524,-0.0123091321553189,-1.52633238725954,337.528712830999
738346.45990620472002774477,0.0246182643106377,-1.1078218939787,337.651804152552
738346.45990629517473280430,0.172327850174464,-0.750857061474451,337.78720460626
738346.45990638562943786383,0.147709585863826,-0.713929665008494,337.836441134882
738346.45990647608414292336,0.11078218939787,-0.726238797163813,337.78720460626
738346.45990656653884798288,0.123091321553189,-0.726238797163813,337.848750267037
738346.45990665699355304241,0.11078218939787,-0.713929665008494,337.910295927814
738346.45990674744825810194,0.123091321553189,-0.689311400697857,337.97184158859
738346.45990683778654783964,0.123091321553189,-0.689311400697857,337.885677663503
738346.45990692824125289917,0.123091321553189,-0.689311400697857,337.947223324279
738346.45990701869595795870,0.123091321553189,-0.689311400697857,337.959532456435
738346.45990710915066301823,0.123091321553189,-0.6523840042319,337.922605059969
738346.45990719960536807775,0.135400453708508,-0.640074872076581,337.947223324279
738346.45990729006007313728,0.147709585863826,-0.615456607765943,337.996459852901
738346.45990738051477819681,0.147709585863826,-0.590838343455306,337.959532456435
738346.45990747096948325634,0.172327850174464,-0.590838343455306,337.947223324279
738346.45990756142418831587,0.172327850174464,-0.553910946989349,337.959532456435
738346.45990765187889337540,0.196946114485102,-0.516983550523392,338.021078117211
738346.45990774233359843493,0.184636982329783,-0.529292682678711,337.934914192124
738346.45990783278830349445,0.22156437879574,-0.480056154057436,337.97184158859
738346.45990792312659323215,0.233873510951058,-0.455437889746798,337.996459852901
738346.45990801358129829168,0.233873510951058,-0.467747021902117,338.021078117211
738346.45990810403600335121,0.258491775261696,-0.393892228970204,337.861059399192
738346.45990819449070841074,0.270800907417015,-0.356964832504247,337.811822870571
738346.45990828494541347027,0.295419171727653,-0.307728303882972,338.008768985056
738346.45990837540011852980,0.295419171727653,-0.270800907417015,338.008768985056
738346.45990846585482358932,0.320037436038291,-0.209255246640421,338.008768985056
738346.45990855630952864885,0.344655700348928,-0.160018718019145,338.033387249367
738346.45990864676423370838,0.369273964659566,-0.11078218939787,338.021078117211
738346.45990873721893876791,0.369273964659566,-0.0984730572425509,337.984150720745
738346.45990882767364382744,0.393892228970204,-0.0369273964659566,338.070314645833
738346.45990891801193356514,0.406201361125523,-0.0246182643106377,338.058005513677
738346.45990900846663862467,0.418510493280842,-0.0246182643106377,337.996459852901
738346.45990909892134368420,0.393892228970204,-0.0492365286212755,337.996459852901
738346.45990918937604874372,0.393892228970204,-0.11078218939787,338.033387249367
738346.45990927983075380325,0.369273964659566,-0.184636982329783,337.97184158859
738346.45990937028545886278,0.356964832504247,-0.270800907417015,337.910295927814
738346.45990946074016392231,0.320037436038291,-0.393892228970204,337.873368531348
738346.45990955119486898184,0.270800907417015,-0.467747021902117,337.934914192124
738346.45990964164957404137,0.246182643106377,-0.54160181483403,337.861059399192
738346.45990973210427910089,0.22156437879574,-0.590838343455306,337.861059399192
738346.45990982255898416042,0.209255246640421,-0.615456607765943,337.873368531348
738346.45990991289727389812,0.160018718019145,-0.689311400697857,337.836441134882
738346.45991000335197895765,0.172327850174464,-0.713929665008494,337.799513738416
738346.45991009380668401718,0.147709585863826,-0.726238797163813,337.885677663503
738346.45991018426138907671,0.135400453708508,-0.726238797163813,337.848750267037
738346.45991027471609413624,0.135400453708508,-0.750857061474451,337.811822870571
738346.45991036517079919577,0.160018718019145,-0.750857061474451,337.885677663503
738346.45991045562550425529,0.160018718019145,-0.76316619362977,337.861059399192
738346.45991054608020931482,0.135400453708508,-0.76316619362977,337.947223324279
738346.45991063653491437435,0.147709585863826,-0.750857061474451,337.885677663503
738346.45991072698961943388,0.147709585863826,-0.76316619362977,337.922605059969
738346.45991081744432449341,0.135400453708508,-0.738547929319132,337.947223324279
738346.45991090789902955294,0.147709585863826,-0.750857061474451,337.922605059969
738346.45991099823731929064,0.147709585863826,-0.775475325785089,337.947223324279
738346.45991108869202435017,0.160018718019145,-0.726238797163813,337.947223324279
738346.45991117914672940969,0.147709585863826,-0.76316619362977,337.922605059969
738346.45991126960143446922,0.160018718019145,-0.750857061474451,337.873368531348
738346.45991136005613952875,0.147709585863826,-0.750857061474451,337.922605059969
738346.45991145051084458828,0.147709585863826,-0.750857061474451,337.984150720745
738346.45991154096554964781,0.147709585863826,-0.76316619362977,337.897986795658
738346.45991163142025470734,0.135400453708508,-0.787784457940408,337.934914192124
738346.45991172187495976686,0.147709585863826,-0.775475325785089,337.984150720745
738346.45991181232966482639,0.135400453708508,-0.775475325785089,337.934914192124
738346.45991190278436988592,0.135400453708508,-0.787784457940408,337.873368531348
738346.45991199312265962362,0.123091321553189,-0.787784457940408,337.959532456435
738346.45991208357736468315,0.135400453708508,-0.775475325785089,337.996459852901
738346.45991217403206974268,0.123091321553189,-0.800093590095726,337.885677663503
738346.45991226448677480221,0.135400453708508,-0.800093590095726,337.897986795658
738346.45991235494147986174,0.11078218939787,-0.800093590095726,337.811822870571
738346.45991244539618492126,0.11078218939787,-0.800093590095726,337.824132002726
738346.45991253585088998079,0.11078218939787,-0.800093590095726,337.885677663503
738346.45991262630559504032,0.0984730572425509,-0.812402722251045,337.873368531348
738346.45991271676030009985,0.11078218939787,-0.812402722251045,337.836441134882
738346.45991280721500515938,0.11078218939787,-0.812402722251045,337.836441134882
738346.45991289766971021891,0.123091321553189,-0.812402722251045,337.848750267037
738346.45991298800799995661,0.11078218939787,-0.812402722251045,337.848750267037
738346.45991307846270501614,0.11078218939787,-0.824711854406364,337.897986795658
738346.45991316891741007566,0.0984730572425509,-0.824711854406364,337.861059399192
738346.45991325937211513519,0.11078218939787,-0.824711854406364,337.873368531348
738346.45991334982682019472,0.0984730572425509,-0.824711854406364,337.922605059969
738346.45991344028152525425,0.11078218939787,-0.812402722251045,337.897986795658
738346.45991353073623031378,0.0984730572425509,-0.837020986561683,337.848750267037
738346.45991362119093537331,0.11078218939787,-0.824711854406364,337.78720460626
738346.45991371164564043283,0.123091321553189,-0.812402722251045,337.836441134882
738346.45991380210034549236,0.0984730572425509,-0.837020986561683,337.848750267037
738346.45991389255505055189,0.11078218939787,-0.837020986561683,337.811822870571
738346.45991398300975561142,0.11078218939787,-0.824711854406364,337.848750267037
738346.45991407334804534912,0.11078218939787,-0.824711854406364,337.848750267037
738346.45991416380275040865,0.0984730572425509,-0.824711854406364,337.897986795658
738346.45991425425745546818,0.11078218939787,-0.837020986561683,337.836441134882
738346.45991434471216052771,0.0984730572425509,-0.824711854406364,337.873368531348
738346.45991443516686558723,0.11078218939787,-0.824711854406364,337.873368531348
738346.45991452562157064676,0.0984730572425509,-0.824711854406364,337.910295927814
738346.45991461607627570629,0.123091321553189,-0.824711854406364,337.947223324279
738346.45991470653098076582,0.0984730572425509,-0.837020986561683,337.811822870571
738346.45991479698568582535,0.123091321553189,-0.824711854406364,337.885677663503
738346.45991488744039088488,0.0861639250872321,-0.824711854406364,337.897986795658
738346.45991497789509594440,0.0984730572425509,-0.849330118717002,337.910295927814
738346.45991506823338568211,0.11078218939787,-0.812402722251045,337.947223324279
738346.45991515868809074163,0.11078218939787,-0.824711854406364,337.701040681173
738346.45991524914279580116,0.0984730572425509,-0.837020986561683,337.836441134882
738346.45991533959750086069,0.0984730572425509,-0.824711854406364,337.934914192124
738346.45991543005220592022,0.11078218939787,-0.837020986561683,337.97184158859
738346.45991552050691097975,0.11078218939787,-0.824711854406364,337.885677663503
738346.45991561096161603928,0.0984730572425509,-0.837020986561683,337.922605059969
738346.45991570141632109880,0.0984730572425509,-0.837020986561683,337.934914192124
738346.45991579187102615833,0.11078218939787,-0.824711854406364,337.922605059969
738346.45991588232573121786,0.0984730572425509,-0.837020986561683,337.922605059969
738346.45991597278043627739,0.11078218939787,-0.837020986561683,337.934914192124
738346.45991606311872601509,0.11078218939787,-0.812402722251045,337.922605059969
738346.45991615357343107462,0.135400453708508,-0.775475325785089,337.910295927814
738346.45991624402813613415,0.172327850174464,-0.750857061474451,337.934914192124
738346.45991633448284119368,0.172327850174464,-0.76316619362977,337.934914192124
738346.45991642493754625320,0.22156437879574,-0.701620532853175,337.861059399192
738346.45991651539225131273,0.246182643106377,-0.6523840042319,337.897986795658
738346.45991660584695637226,0.22156437879574,-0.677002268542538,337.897986795658
738346.45991669630166143179,0.184636982329783,-0.76316619362977,337.885677663503
738346.45991678675636649132,0.160018718019145,-0.726238797163813,337.922605059969
738346.45991687721107155085,0.160018718019145,-0.713929665008494,337.76258634195
738346.45991696766577661037,0.147709585863826,-0.76316619362977,337.861059399192
738346.45991705812048166990,0.11078218939787,-0.837020986561683,337.873368531348
738346.45991714845877140760,0.0984730572425509,-0.849330118717002,337.848750267037
738346.45991723891347646713,0.0861639250872321,-0.824711854406364,337.861059399192
738346.45991732936818152666,0.0861639250872321,-0.837020986561683,337.848750267037
738346.45991741982288658619,0.0861639250872321,-0.849330118717002,337.897986795658
738346.45991751027759164572,0.0861639250872321,-0.837020986561683,337.861059399192
738346.45991760073229670525,0.0738547929319132,-0.861639250872321,337.897986795658
738346.45991769118700176477,0.0738547929319132,-0.861639250872321,337.922605059969
738346.45991778164170682430,0.0738547929319132,-0.861639250872321,337.934914192124
738346.45991787209641188383,0.0861639250872321,-0.837020986561683,337.947223324279
738346.45991796255111694336,0.0984730572425509,-0.837020986561683,337.910295927814
738346.45991805300582200289,0.0615456607765943,-0.87394838302764,337.897986795658
738346.45991814334411174059,-0.0246182643106377,-0.947803175959553,337.873368531348
738346.45991823379881680012,0.0738547929319132,-0.837020986561683,337.873368531348
738346.45991832425352185965,0.467747021902117,-0.320037436038291,337.799513738416
738346.45991841470822691917,0.997039704580828,0.22156437879574,337.688731549018
738346.45991850516293197870,1.57556891588082,0.738547929319132,337.356384980824
738346.45991859561763703823,1.62480544450209,0.935494043804234,337.282530187892
738346.45991868607234209776,0.861639250872321,-0.455437889746798,336.937874487543
738346.45991877652704715729,0.123091321553189,-1.57556891588082,337.171747998494
738346.45991886698175221682,0,-1.37862280139571,337.57794935962
738346.45991895743645727634,0.160018718019145,-0.861639250872321,337.701040681173
738346.45991904789116233587,0.196946114485102,-0.689311400697857,337.811822870571
738346.45991913822945207357,0.160018718019145,-0.726238797163813,337.799513738416
738346.45991922868415713310,0.160018718019145,-0.750857061474451,337.799513738416
738346.45991931913886219263,0.147709585863826,-0.713929665008494,337.873368531348
738346.45991940959356725216,0.147709585863826,-0.701620532853175,337.910295927814
738346.45991950004827231169,0.135400453708508,-0.713929665008494,337.848750267037
738346.45991959050297737122,0.135400453708508,-0.689311400697857,337.934914192124
738346.45991968095768243074,0.160018718019145,-0.664693136387219,337.984150720745
738346.45991977141238749027,0.160018718019145,-0.689311400697857,337.873368531348
738346.45991986186709254980,0.172327850174464,-0.640074872076581,337.947223324279
738346.45991995232179760933,0.160018718019145,-0.640074872076581,337.984150720745
738346.45992004277650266886,0.172327850174464,-0.640074872076581,337.934914192124
738346.45992013323120772839,0.184636982329783,-0.615456607765943,337.910295927814
738346.45992022356949746609,0.196946114485102,-0.578529211299987,337.947223324279
738346.45992031402420252562,0.184636982329783,-0.578529211299987,337.959532456435
738346.45992040447890758514,0.233873510951058,-0.516983550523392,337.885677663503
738346.45992049493361264467,0.22156437879574,-0.516983550523392,337.984150720745
738346.45992058538831770420,0.233873510951058,-0.504674418368074,337.97184158859
738346.45992067584302276373,0.258491775261696,-0.455437889746798,337.885677663503
738346.45992076629772782326,0.270800907417015,-0.418510493280842,337.959532456435
738346.45992085675243288279,0.283110039572334,-0.356964832504247,337.959532456435
738346.45992094720713794231,0.320037436038291,-0.369273964659566,337.984150720745
738346.45992103766184300184,0.320037436038291,-0.283110039572334,337.934914192124
738346.45992112811654806137,0.320037436038291,-0.258491775261696,337.910295927814
738346.45992121845483779907,0.344655700348928,-0.209255246640421,337.922605059969
738346.45992130890954285860,0.369273964659566,-0.160018718019145,337.959532456435
738346.45992139936424791813,0.393892228970204,-0.11078218939787,337.959532456435
738346.45992148981895297766,0.406201361125523,-0.0492365286212755,337.984150720745
738346.45992158027365803719,0.418510493280842,-0.0615456607765943,338.021078117211
738346.45992167072836309671,0.418510493280842,0,337.97184158859
738346.45992176118306815624,0.443128757591479,-0.0123091321553189,337.984150720745
738346.45992185163777321577,0.43081962543616,-0.0492365286212755,337.984150720745
738346.45992194209247827530,0.418510493280842,-0.0861639250872321,337.984150720745
738346.45992203254718333483,0.393892228970204,-0.160018718019145,338.021078117211
738346.45992212300188839436,0.369273964659566,-0.258491775261696,337.984150720745
738346.45992221334017813206,0.332346568193609,-0.356964832504247,337.725658945484
738346.45992230379488319159,0.320037436038291,-0.455437889746798,337.799513738416
738346.45992239424958825111,0.270800907417015,-0.492365286212755,337.947223324279
738346.45992248470429331064,0.258491775261696,-0.603147475610625,337.836441134882
738346.45992257515899837017,0.22156437879574,-0.640074872076581,337.836441134882
738346.45992266561370342970,0.184636982329783,-0.689311400697857,337.885677663503
738346.45992275606840848923,0.160018718019145,-0.726238797163813,337.897986795658
738346.45992284652311354876,0.172327850174464,-0.738547929319132,337.897986795658
738346.45992293697781860828,0.172327850174464,-0.713929665008494,337.897986795658
738346.45992302743252366781,0.160018718019145,-0.738547929319132,337.836441134882
738346.45992311788722872734,0.160018718019145,-0.750857061474451,337.824132002726
738346.45992320834193378687,0.160018718019145,-0.738547929319132,337.836441134882
738346.45992329868022352457,0.172327850174464,-0.750857061474451,337.910295927814
738346.45992338913492858410,0.160018718019145,-0.750857061474451,337.799513738416
738346.45992347958963364363,0.160018718019145,-0.750857061474451,337.873368531348
738346.45992357004433870316,0.160018718019145,-0.738547929319132,337.885677663503
738346.45992366049904376268,0.160018718019145,-0.750857061474451,337.910295927814
738346.45992375095374882221,0.172327850174464,-0.750857061474451,337.885677663503
738346.45992384140845388174,0.172327850174464,-0.738547929319132,337.934914192124
738346.45992393186315894127,0.160018718019145,-0.750857061474451,337.910295927814
738346.45992402231786400080,0.172327850174464,-0.738547929319132,337.811822870571
738346.45992411277256906033,0.160018718019145,-0.738547929319132,337.799513738416
738346.45992420322727411985,0.160018718019145,-0.750857061474451,337.824132002726
738346.45992429356556385756,0.160018718019145,-0.738547929319132,337.799513738416
738346.45992438402026891708,0.147709585863826,-0.775475325785089,337.848750267037
738346.45992447447497397661,0.147709585863826,-0.750857061474451,337.910295927814
738346.45992456492967903614,0.135400453708508,-0.775475325785089,337.873368531348
738346.45992465538438409567,0.135400453708508,-0.775475325785089,337.885677663503
738346.45992474583908915520,0.123091321553189,-0.800093590095726,337.922605059969
738346.45992483629379421473,0.123091321553189,-0.787784457940408,337.922605059969
738346.45992492674849927425,0.11078218939787,-0.812402722251045,337.897986795658
738346.45992501720320433378,0.123091321553189,-0.787784457940408,337.78720460626
738346.45992510765790939331,0.11078218939787,-0.800093590095726,337.811822870571
738346.45992519811261445284,0.135400453708508,-0.800093590095726,337.824132002726
738346.45992528845090419054,0.123091321553189,-0.812402722251045,337.897986795658
738346.45992537890560925007,0.11078218939787,-0.812402722251045,337.811822870571
738346.45992546936031430960,0.11078218939787,-0.812402722251045,337.824132002726
738346.45992555981501936913,0.11078218939787,-0.800093590095726,337.885677663503
738346.45992565026972442865,0.11078218939787,-0.800093590095726,337.873368531348
738346.45992574072442948818,0.0984730572425509,-0.837020986561683,337.78720460626
738346.45992583117913454771,0.11078218939787,-0.812402722251045,337.725658945484
738346.45992592163383960724,0.0984730572425509,-0.812402722251045,337.861059399192
738346.45992601208854466677,0.11078218939787,-0.800093590095726,337.873368531348
738346.45992610254324972630,0.11078218939787,-0.824711854406364,337.873368531348
738346.45992619299795478582,0.11078218939787,-0.812402722251045,337.922605059969
738346.45992628345265984535,0.0861639250872321,-0.824711854406364,337.934914192124
738346.45992637379094958305,0.0984730572425509,-0.812402722251045,337.78720460626
738346.45992646424565464258,0.0984730572425509,-0.837020986561683,337.885677663503
738346.45992655470035970211,0.0984730572425509,-0.812402722251045,337.861059399192
738346.45992664515506476164,0.0861639250872321,-0.824711854406364,337.861059399192
738346.45992673560976982117,0.0984730572425509,-0.824711854406364,337.861059399192
738346.45992682606447488070,0.0861639250872321,-0.837020986561683,337.885677663503
738346.45992691651917994022,0.0984730572425509,-0.824711854406364,337.885677663503
738346.45992700697388499975,0.0984730572425509,-0.812402722251045,337.947223324279
738346.45992709742859005928,0.0861639250872321,-0.824711854406364,337.922605059969
738346.45992718788329511881,0.0984730572425509,-0.787784457940408,337.836441134882
738346.45992727833800017834,0.0861639250872321,-0.849330118717002,337.910295927814
738346.45992736867628991604,0.11078218939787,-0.800093590095726,337.934914192124
738346.45992745913099497557,0.0861639250872321,-0.812402722251045,337.824132002726
738346.45992754958570003510,0.0984730572425509,-0.837020986561683,337.848750267037
738346.45992764004040509462,0.0861639250872321,-0.824711854406364,337.897986795658
738346.45992773049511015415,0.0984730572425509,-0.837020986561683,337.922605059969
738346.45992782094981521368,0.0984730572425509,-0.824711854406364,337.947223324279
738346.45992791140452027321,0.0861639250872321,-0.824711854406364,337.934914192124
738346.45992800185922533274,0.0738547929319132,-0.837020986561683,337.910295927814
738346.45992809231393039227,0.11078218939787,-0.800093590095726,337.934914192124
738346.45992818276863545179,0.135400453708508,-0.738547929319132,337.947223324279
738346.45992827322334051132,0.172327850174464,-0.738547929319132,337.848750267037
738346.45992836356163024902,0.184636982329783,-0.713929665008494,337.910295927814
738346.45992845401633530855,0.246182643106377,-0.6523840042319,337.947223324279
738346.45992854447104036808,0.233873510951058,-0.664693136387219,337.811822870571
738346.45992863492574542761,0.209255246640421,-0.677002268542538,337.922605059969
738346.45992872538045048714,0.160018718019145,-0.726238797163813,337.959532456435
738346.45992881583515554667,0.147709585863826,-0.726238797163813,337.947223324279
738346.45992890628986060619,0.147709585863826,-0.738547929319132,337.873368531348
738346.45992899674456566572,0.123091321553189,-0.750857061474451,337.922605059969
738346.45992908719927072525,0.0984730572425509,-0.787784457940408,337.97184158859
738346.45992917765397578478,0.0738547929319132,-0.861639250872321,337.861059399192
738346.45992926810868084431,0.0615456607765943,-0.824711854406364,337.861059399192
738346.45992935856338590384,0.0492365286212755,-0.824711854406364,337.799513738416
738346.45992944890167564154,0.0738547929319132,-0.861639250872321,337.836441134882
738346.45992953935638070107,0.0492365286212755,-0.837020986561683,337.861059399192
738346.45992962981108576059,0.0615456607765943,-0.849330118717002,337.824132002726
738346.45992972026579082012,0.0738547929319132,-0.849330118717002,337.836441134882
738346.45992981072049587965,0.0861639250872321,-0.812402722251045,337.824132002726
738346.45992990117520093918,0.0861639250872321,-0.861639250872321,337.824132002726
738346.45992999162990599871,0.0738547929319132,-0.837020986561683,337.873368531348
738346.45993008208461105824,0.0369273964659566,-0.849330118717002,337.934914192124
738346.45993017253931611776,-0.0369273964659566,-0.923184911648915,337.947223324279
738346.45993026299402117729,0.0738547929319132,-0.800093590095726,337.947223324279
738346.45993035344872623682,0.492365286212755,-0.209255246640421,337.848750267037
738346.45993044378701597452,1.03396710104678,0.332346568193609,337.651804152552
738346.45993053424172103405,1.34169540492976,0.603147475610625,337.504094566688
738346.45993062469642609358,1.71096936958932,1.00934883673615,337.344075848669
738346.45993071515113115311,1.21860408337657,0.233873510951058,337.196366262805
738346.45993080560583621264,0.332346568193609,-1.39093193355103,337.257911923582
738346.45993089606054127216,-0.0369273964659566,-1.60018718019145,337.504094566688
738346.45993098651524633169,0,-1.14474929044465,337.76258634195
738346.45993107696995139122,0.135400453708508,-0.76316619362977,337.910295927814
738346.45993116742465645075,0.147709585863826,-0.689311400697857,337.848750267037
738346.45993125787936151028,0.11078218939787,-0.713929665008494,337.897986795658
738346.45993134833406656981,0.0984730572425509,-0.713929665008494,337.947223324279
738346.45993143867235630751,0.11078218939787,-0.701620532853175,337.910295927814
738346.45993152912706136703,0.0984730572425509,-0.713929665008494,337.922605059969
738346.45993161958176642656,0.0984730572425509,-0.689311400697857,337.934914192124
738346.45993171003647148609,0.11078218939787,-0.6523840042319,337.897986795658
738346.45993180049117654562,0.11078218939787,-0.6523840042319,337.934914192124
738346.45993189094588160515,0.11078218939787,-0.6523840042319,337.897986795658
738346.45993198140058666468,0.123091321553189,-0.6523840042319,337.959532456435
738346.45993207185529172421,0.123091321553189,-0.590838343455306,337.97184158859
738346.45993216230999678373,0.147709585863826,-0.578529211299987,337.996459852901
738346.45993225276470184326,0.135400453708508,-0.590838343455306,337.959532456435
738346.45993234321940690279,0.160018718019145,-0.529292682678711,338.021078117211
738346.45993243367411196232,0.160018718019145,-0.529292682678711,337.984150720745
738346.45993252401240170002,0.160018718019145,-0.529292682678711,338.008768985056
738346.45993261446710675955,0.172327850174464,-0.492365286212755,337.959532456435
738346.45993270492181181908,0.196946114485102,-0.467747021902117,337.984150720745
738346.45993279537651687860,0.209255246640421,-0.43081962543616,337.984150720745
738346.45993288583122193813,0.22156437879574,-0.393892228970204,337.836441134882
738346.45993297628592699766,0.246182643106377,-0.344655700348928,337.996459852901
738346.45993306674063205719,0.258491775261696,-0.295419171727653,337.996459852901
738346.45993315719533711672,0.295419171727653,-0.233873510951058,337.959532456435
738346.45993324765004217625,0.295419171727653,-0.22156437879574,338.008768985056
738346.45993333810474723577,0.332346568193609,-0.147709585863826,338.021078117211
738346.45993342855945229530,0.332346568193609,-0.0738547929319132,337.947223324279
738346.45993351889774203300,0.381583096814885,-0.0492365286212755,337.947223324279
738346.45993360935244709253,0.369273964659566,-0.0369273964659566,337.959532456435
738346.45993369980715215206,0.393892228970204,-0.0123091321553189,337.984150720745
738346.45993379026185721159,0.393892228970204,0.0123091321553189,337.996459852901
738346.45993388071656227112,0.393892228970204,-0.0369273964659566,338.021078117211
738346.45993397117126733065,0.356964832504247,-0.11078218939787,338.008768985056
738346.45993406162597239017,0.344655700348928,-0.184636982329783,337.97184158859
738346.45993415208067744970,0.320037436038291,-0.283110039572334,337.97184158859
738346.45993424253538250923,0.270800907417015,-0.393892228970204,337.97184158859
738346.45993433299008756876,0.258491775261696,-0.43081962543616,337.97184158859
738346.45993442344479262829,0.196946114485102,-0.516983550523392,337.947223324279
738346.45993451378308236599,0.184636982329783,-0.578529211299987,337.947223324279
738346.45993460423778742552,0.147709585863826,-0.640074872076581,337.934914192124
738346.45993469469249248505,0.147709585863826,-0.6523840042319,337.897986795658
738346.45993478514719754457,0.123091321553189,-0.750857061474451,337.922605059969
738346.45993487560190260410,0.11078218939787,-0.713929665008494,337.885677663503
738346.45993496605660766363,0.0861639250872321,-0.750857061474451,337.873368531348
738346.45993505651131272316,0.0861639250872321,-0.738547929319132,337.873368531348
738346.45993514696601778269,0.0861639250872321,-0.76316619362977,337.848750267037
738346.45993523742072284222,0.0984730572425509,-0.76316619362977,337.873368531348
738346.45993532787542790174,0.0861639250872321,-0.750857061474451,337.861059399192
738346.45993541833013296127,0.0984730572425509,-0.76316619362977,337.922605059969
738346.45993550878483802080,0.0984730572425509,-0.76316619362977,337.934914192124
738346.45993559912312775850,0.11078218939787,-0.750857061474451,337.885677663503
738346.45993568957783281803,0.0984730572425509,-0.738547929319132,337.910295927814
738346.45993578003253787756,0.0984730572425509,-0.775475325785089,337.984150720745
738346.45993587048724293709,0.0861639250872321,-0.750857061474451,337.922605059969
738346.45993596094194799662,0.0861639250872321,-0.76316619362977,337.885677663503
738346.45993605139665305614,0.0861639250872321,-0.76316619362977,337.922605059969
738346.45993614185135811567,0.0738547929319132,-0.775475325785089,337.848750267037
738346.45993623230606317520,0.0861639250872321,-0.76316619362977,337.873368531348
738346.45993632276076823473,0.0738547929319132,-0.76316619362977,337.873368531348
738346.45993641321547329426,0.0861639250872321,-0.800093590095726,337.774895474105
738346.45993650367017835379,0.0738547929319132,-0.787784457940408,337.885677663503
738346.45993659400846809149,0.0738547929319132,-0.775475325785089,337.934914192124
738346.45993668446317315102,0.0615456607765943,-0.812402722251045,337.922605059969
738346.45993677491787821054,0.0369273964659566,-0.812402722251045,337.848750267037
738346.45993686537258327007,0.0492365286212755,-0.812402722251045,337.947223324279
738346.45993695582728832960,0.0615456607765943,-0.812402722251045,337.97184158859
738346.45993704628199338913,0.0615456607765943,-0.837020986561683,337.934914192124
738346.45993713673669844866,0.0492365286212755,-0.787784457940408,337.947223324279
738346.45993722719140350819,0.0615456607765943,-0.87394838302764,337.947223324279
738346.45993731764610856771,0.0369273964659566,-0.824711854406364,337.97184158859
738346.45993740810081362724,0.0369273964659566,-0.837020986561683,337.947223324279
738346.45993749855551868677,0.0246182643106377,-0.849330118717002,337.922605059969
738346.45993758889380842447,0.0369273964659566,-0.849330118717002,337.947223324279
738346.45993767934851348400,0.0246182643106377,-0.849330118717002,337.885677663503
738346.45993776980321854353,0.0369273964659566,-0.837020986561683,337.836441134882
738346.45993786025792360306,0.0369273964659566,-0.849330118717002,337.861059399192
738346.45993795071262866259,0.0369273964659566,-0.849330118717002,337.885677663503
738346.45993804116733372211,0.0369273964659566,-0.849330118717002,337.897986795658
738346.45993813162203878164,0.0369273964659566,-0.886257515182958,337.873368531348
738346.45993822207674384117,0.0246182643106377,-0.837020986561683,337.885677663503
738346.45993831253144890070,0.0246182643106377,-0.87394838302764,337.873368531348
738346.45993840298615396023,0.0246182643106377,-0.87394838302764,337.922605059969
738346.45993849344085901976,0.0123091321553189,-0.837020986561683,337.934914192124
738346.45993858389556407928,0.0246182643106377,-0.886257515182958,337.947223324279
738346.45993867423385381699,0.0123091321553189,-0.861639250872321,337.97184158859
738346.45993876468855887651,0.0123091321553189,-0.87394838302764,337.959532456435
738346.45993885514326393604,0.0123091321553189,-0.87394838302764,337.922605059969
738346.45993894559796899557,0.0246182643106377,-0.87394838302764,337.885677663503
738346.45993903605267405510,0.0123091321553189,-0.87394838302764,337.885677663503
738346.45993912650737911463,0,-0.861639250872321,337.848750267037
738346.45993921696208417416,0.0123091321553189,-0.886257515182958,337.848750267037
738346.45993930741678923368,0.0246182643106377,-0.861639250872321,337.861059399192
738346.45993939787149429321,0.0123091321553189,-0.87394838302764,337.836441134882
738346.45993948832619935274,0.0123091321553189,-0.87394838302764,337.836441134882
738346.45993957878090441227,0.0123091321553189,-0.898566647338277,337.897986795658
738346.45993966911919414997,0.0123091321553189,-0.861639250872321,337.922605059969
738346.45993975957389920950,0.0123091321553189,-0.87394838302764,337.910295927814
738346.45993985002860426903,0.0123091321553189,-0.861639250872321,337.836441134882
738346.45993994048330932856,0.0123091321553189,-0.861639250872321,337.701040681173
738346.45994003093801438808,0,-0.898566647338277,337.861059399192
738346.45994012139271944761,0.0123091321553189,-0.87394838302764,337.861059399192
738346.45994021184742450714,0.0123091321553189,-0.87394838302764,337.885677663503
738346.45994030230212956667,0.0246182643106377,-0.886257515182958,337.885677663503
738346.45994039275683462620,0,-0.886257515182958,337.922605059969
738346.45994048321153968573,0.0246182643106377,-0.886257515182958,337.922605059969
738346.45994057366624474525,0.0123091321553189,-0.898566647338277,337.922605059969
738346.45994066400453448296,0.0246182643106377,-0.87394838302764,337.934914192124
738346.45994075445923954248,0.0369273964659566,-0.824711854406364,337.984150720745
738346.45994084491394460201,0.0861639250872321,-0.787784457940408,337.934914192124
738346.45994093536864966154,0.0738547929319132,-0.800093590095726,337.848750267037
738346.45994102582335472107,0.11078218939787,-0.775475325785089,337.947223324279
738346.45994111627805978060,0.160018718019145,-0.701620532853175,337.922605059969
738346.45994120673276484013,0.147709585863826,-0.726238797163813,337.873368531348
738346.45994129718746989965,0.0861639250872321,-0.800093590095726,337.959532456435
738346.45994138764217495918,0.0861639250872321,-0.787784457940408,337.959532456435
738346.45994147809688001871,0.0738547929319132,-0.787784457940408,337.947223324279
738346.45994156855158507824,0.0615456607765943,-0.824711854406364,337.934914192124
738346.45994165900629013777,0.0246182643106377,-0.861639250872321,337.947223324279
738346.45994174934457987547,0.0123091321553189,-0.886257515182958,337.959532456435
738346.45994183979928493500,0,-0.898566647338277,337.922605059969
738346.45994193025398999453,-0.0123091321553189,-0.898566647338277,337.934914192124
738346.45994202070869505405,0,-0.910875779493596,337.97184158859
738346.45994211116340011358,-0.0123091321553189,-0.910875779493596,337.922605059969
738346.45994220161810517311,0.0123091321553189,-0.898566647338277,337.836441134882
738346.45994229207281023264,0,-0.910875779493596,337.885677663503
738346.45994238252751529217,0.0123091321553189,-0.923184911648915,337.873368531348
738346.45994247298222035170,-0.0123091321553189,-0.923184911648915,337.824132002726
738346.45994256343692541122,0,-0.910875779493596,337.873368531348
738346.45994265389163047075,0,-0.923184911648915,337.885677663503
738346.45994274422992020845,-0.0738547929319132,-0.972421440270191,337.910295927814
738346.45994283468462526798,-0.0861639250872321,-0.997039704580828,337.97184158859
738346.45994292513933032751,0.209255246640421,-0.627765739921262,337.885677663503
738346.45994301559403538704,0.689311400697857,-0.0369273964659566,337.76258634195
738346.45994310604874044657,1.26784061199784,0.492365286212755,337.528712830999
738346.45994319650344550610,1.61249631234677,0.972421440270191,337.319457584358
738346.45994328695815056562,1.1078218939787,0.184636982329783,337.147129734184
738346.45994337741285562515,0.22156437879574,-1.42785933001699,337.085584073407
738346.45994346786756068468,-0.0615456607765943,-1.57556891588082,337.504094566688
738346.45994355832226574421,-0.0123091321553189,-1.13244015828934,337.688731549018
738346.45994364877697080374,0.123091321553189,-0.775475325785089,337.750277209794
738346.45994373911526054144,0.123091321553189,-0.750857061474451,337.873368531348
738346.45994382956996560097,0.0861639250872321,-0.76316619362977,337.897986795658
738346.45994392002467066050,0.0738547929319132,-0.775475325785089,337.861059399192
738346.45994401047937572002,0.0738547929319132,-0.76316619362977,337.885677663503
738346.45994410093408077955,0.0615456607765943,-0.750857061474451,337.922605059969
738346.45994419138878583908,0.0615456607765943,-0.76316619362977,337.934914192124
738346.45994428184349089861,0.0738547929319132,-0.738547929319132,337.897986795658
738346.45994437229819595814,0.0861639250872321,-0.726238797163813,337.934914192124
738346.45994446275290101767,0.0861639250872321,-0.701620532853175,337.885677663503
738346.45994455320760607719,0.0984730572425509,-0.689311400697857,337.947223324279
738346.45994464366231113672,0.0984730572425509,-0.677002268542538,337.934914192124
738346.45994473411701619625,0.11078218939787,-0.6523840042319,337.97184158859
738346.45994482445530593395,0.0984730572425509,-0.640074872076581,337.97184158859
738346.45994491491001099348,0.135400453708508,-0.615456607765943,338.021078117211
738346.45994500536471605301,0.135400453708508,-0.603147475610625,337.947223324279
738346.45994509581942111254,0.160018718019145,-0.566220079144668,337.97184158859
738346.45994518627412617207,0.160018718019145,-0.553910946989349,337.996459852901
738346.45994527672883123159,0.184636982329783,-0.504674418368074,337.910295927814
738346.45994536718353629112,0.184636982329783,-0.480056154057436,337.97184158859
738346.45994545763824135065,0.22156437879574,-0.443128757591479,337.984150720745
738346.45994554809294641018,0.22156437879574,-0.418510493280842,338.045696381522
738346.45994563854765146971,0.233873510951058,-0.381583096814885,337.861059399192
738346.45994572900235652924,0.258491775261696,-0.320037436038291,337.996459852901
738346.45994581934064626694,0.283110039572334,-0.270800907417015,338.008768985056
738346.45994590979535132647,0.307728303882972,-0.22156437879574,338.021078117211
738346.45994600025005638599,0.307728303882972,-0.160018718019145,337.996459852901
738346.45994609070476144552,0.356964832504247,-0.123091321553189,338.045696381522
738346.45994618115946650505,0.356964832504247,-0.0861639250872321,338.070314645833
738346.45994627161417156458,0.381583096814885,-0.0615456607765943,338.021078117211
738346.45994636206887662411,0.381583096814885,-0.0492365286212755,338.058005513677
738346.45994645252358168364,0.381583096814885,-0.0492365286212755,338.058005513677
738346.45994654297828674316,0.356964832504247,-0.0861639250872321,337.97184158859
738346.45994663343299180269,0.356964832504247,-0.160018718019145,337.984150720745
738346.45994672388769686222,0.320037436038291,-0.246182643106377,337.996459852901
738346.45994681434240192175,0.307728303882972,-0.332346568193609,337.836441134882
738346.45994690468069165945,0.258491775261696,-0.443128757591479,337.76258634195
738346.45994699513539671898,0.233873510951058,-0.529292682678711,337.799513738416
738346.45994708559010177851,0.196946114485102,-0.603147475610625,337.811822870571
738346.45994717604480683804,0.172327850174464,-0.6523840042319,337.799513738416
738346.45994726649951189756,0.147709585863826,-0.701620532853175,337.836441134882
738346.45994735695421695709,0.123091321553189,-0.726238797163813,337.824132002726
738346.45994744740892201662,0.123091321553189,-0.738547929319132,337.824132002726
738346.45994753786362707615,0.11078218939787,-0.76316619362977,337.848750267037
738346.45994762831833213568,0.11078218939787,-0.775475325785089,337.824132002726
738346.45994771877303719521,0.11078218939787,-0.76316619362977,337.824132002726
738346.45994780922774225473,0.123091321553189,-0.787784457940408,337.799513738416
738346.45994789956603199244,0.0861639250872321,-0.787784457940408,337.824132002726
738346.45994799002073705196,0.11078218939787,-0.76316619362977,337.873368531348
738346.45994808047544211149,0.11078218939787,-0.775475325785089,337.897986795658
738346.45994817093014717102,0.11078218939787,-0.76316619362977,337.861059399192
738346.45994826138485223055,0.11078218939787,-0.76316619362977,337.897986795658
738346.45994835183955729008,0.11078218939787,-0.76316619362977,337.934914192124
738346.45994844229426234961,0.11078218939787,-0.775475325785089,337.959532456435
738346.45994853274896740913,0.123091321553189,-0.76316619362977,337.811822870571
738346.45994862320367246866,0.11078218939787,-0.775475325785089,337.922605059969
738346.45994871365837752819,0.123091321553189,-0.775475325785089,337.934914192124
738346.45994880411308258772,0.11078218939787,-0.775475325785089,337.897986795658
738346.45994889445137232542,0.11078218939787,-0.775475325785089,337.934914192124
738346.45994898490607738495,0.0984730572425509,-0.787784457940408,337.934914192124
738346.45994907536078244448,0.0984730572425509,-0.775475325785089,337.97184158859
738346.45994916581548750401,0.11078218939787,-0.787784457940408,337.824132002726
738346.45994925627019256353,0.11078218939787,-0.787784457940408,337.885677663503
738346.45994934672489762306,0.11078218939787,-0.787784457940408,337.984150720745
738346.45994943717960268259,0.0984730572425509,-0.800093590095726,337.97184158859
738346.45994952763430774212,0.0984730572425509,-0.800093590095726,337.885677663503
738346.45994961808901280165,0.0984730572425509,-0.812402722251045,337.947223324279
738346.45994970854371786118,0.0984730572425509,-0.812402722251045,337.97184158859
738346.45994979899842292070,0.0861639250872321,-0.824711854406364,337.922605059969
738346.45994988945312798023,0.11078218939787,-0.824711854406364,337.947223324279
738346.45994997979141771793,0.0861639250872321,-0.824711854406364,337.947223324279
738346.45995007024612277746,0.0984730572425509,-0.812402722251045,337.934914192124
738346.45995016070082783699,0.0984730572425509,-0.824711854406364,337.922605059969
738346.45995025115553289652,0.0861639250872321,-0.824711854406364,337.984150720745
738346.45995034161023795605,0.0861639250872321,-0.824711854406364,337.97184158859
738346.45995043206494301558,0.0861639250872321,-0.824711854406364,337.774895474105
738346.45995052251964807510,0.0984730572425509,-0.837020986561683,337.824132002726
738346.45995061297435313463,0.0738547929319132,-0.837020986561683,337.97184158859
738346.45995070342905819416,0.0861639250872321,-0.837020986561683,337.984150720745
738346.45995079388376325369,0.0861639250872321,-0.824711854406364,337.934914192124
738346.45995088433846831322,0.0984730572425509,-0.824711854406364,338.008768985056
738346.45995097467675805092,0.0861639250872321,-0.837020986561683,337.959532456435
738346.45995106513146311045,0.0861639250872321,-0.824711854406364,337.897986795658
738346.45995115558616816998,0.0738547929319132,-0.837020986561683,337.947223324279
738346.45995124604087322950,0.0861639250872321,-0.824711854406364,337.97184158859
738346.45995133649557828903,0.0984730572425509,-0.837020986561683,337.947223324279
738346.45995142695028334856,0.0861639250872321,-0.837020986561683,337.897986795658
738346.45995151740498840809,0.0984730572425509,-0.837020986561683,337.922605059969
738346.45995160785969346762,0.0861639250872321,-0.824711854406364,337.922605059969
738346.45995169831439852715,0.0738547929319132,-0.849330118717002,337.947223324279
738346.45995178876910358667,0.0984730572425509,-0.812402722251045,337.885677663503
738346.45995187922380864620,0.147709585863826,-0.76316619362977,337.934914192124
738346.45995196956209838390,0.160018718019145,-0.738547929319132,337.897986795658
738346.45995206001680344343,0.184636982329783,-0.701620532853175,337.873368531348
738346.45995215047150850296,0.196946114485102,-0.689311400697857,337.873368531348
738346.45995224092621356249,0.258491775261696,-0.640074872076581,337.934914192124
738346.45995233138091862202,0.233873510951058,-0.677002268542538,337.897986795658
738346.45995242183562368155,0.196946114485102,-0.726238797163813,337.836441134882
738346.45995251229032874107,0.160018718019145,-0.726238797163813,337.885677663503
738346.45995260274503380060,0.172327850174464,-0.713929665008494,337.885677663503
738346.45995269319973886013,0.135400453708508,-0.738547929319132,337.885677663503
738346.45995278365444391966,0.123091321553189,-0.800093590095726,337.897986795658
738346.45995287410914897919,0.0984730572425509,-0.812402722251045,337.910295927814
738346.45995296456385403872,0.0984730572425509,-0.812402722251045,337.959532456435
738346.45995305490214377642,0.0861639250872321,-0.812402722251045,337.934914192124
738346.45995314535684883595,0.0861639250872321,-0.824711854406364,338.008768985056
738346.45995323581155389547,0.0984730572425509,-0.824711854406364,338.021078117211
738346.45995332626625895500,0.0861639250872321,-0.837020986561683,337.996459852901
738346.45995341672096401453,0.0861639250872321,-0.812402722251045,337.996459852901
738346.45995350717566907406,0.0984730572425509,-0.812402722251045,338.021078117211
738346.45995359763037413359,0.11078218939787,-0.812402722251045,337.984150720745
738346.45995368808507919312,0.11078218939787,-0.812402722251045,337.947223324279
738346.45995377853978425264,0.11078218939787,-0.824711854406364,337.97184158859
738346.45995386899448931217,0.0369273964659566,-0.849330118717002,338.008768985056
738346.45995395944919437170,0.0246182643106377,-0.837020986561683,337.811822870571
738346.45995404978748410940,0.320037436038291,-0.492365286212755,337.824132002726
738346.45995414024218916893,0.824711854406364,0.147709585863826,337.873368531348
738346.45995423069689422846,1.45247759432763,0.627765739921262,337.57794935962
738346.45995432115159928799,1.82175155898719,0.935494043804234,337.405621509445
738346.45995441160630434752,1.36631366924039,0.233873510951058,337.344075848669
738346.45995450206100940704,0.381583096814885,-1.42785933001699,337.294839320048
738346.45995459251571446657,-0.0738547929319132,-1.74789676605528,337.467167170222
738346.45995468297041952610,-0.0492365286212755,-1.23091321553189,337.799513738416
738346.45995477342512458563,0.147709585863826,-0.787784457940408,337.922605059969
738346.45995486387982964516,0.184636982329783,-0.677002268542538,337.922605059969
738346.45995495433453470469,0.184636982329783,-0.677002268542538,337.934914192124
738346.45995504467282444239,0.172327850174464,-0.677002268542538,337.984150720745
738346.45995513512752950191,0.160018718019145,-0.664693136387219,337.97184158859
738346.45995522558223456144,0.160018718019145,-0.640074872076581,337.97184158859
738346.45995531603693962097,0.184636982329783,-0.640074872076581,337.97184158859
738346.45995540649164468050,0.172327850174464,-0.615456607765943,337.996459852901
738346.45995549694634974003,0.196946114485102,-0.603147475610625,337.996459852901
738346.45995558740105479956,0.172327850174464,-0.578529211299987,337.922605059969
738346.45995567785575985909,0.196946114485102,-0.590838343455306,337.97184158859
738346.45995576831046491861,0.209255246640421,-0.529292682678711,337.97184158859
738346.45995585876516997814,0.233873510951058,-0.566220079144668,337.947223324279
738346.45995594921987503767,0.246182643106377,-0.492365286212755,337.984150720745
738346.45995603967458009720,0.258491775261696,-0.467747021902117,337.959532456435
738346.45995613001286983490,0.258491775261696,-0.467747021902117,337.934914192124
738346.45995622046757489443,0.246182643106377,-0.455437889746798,338.008768985056
738346.45995631092227995396,0.270800907417015,-0.418510493280842,338.008768985056
738346.45995640137698501348,0.295419171727653,-0.393892228970204,337.947223324279
738346.45995649183169007301,0.320037436038291,-0.344655700348928,338.021078117211
738346.45995658228639513254,0.320037436038291,-0.295419171727653,338.033387249367
738346.45995667274110019207,0.344655700348928,-0.233873510951058,338.045696381522
738346.45995676319580525160,0.356964832504247,-0.233873510951058,337.959532456435
738346.45995685365051031113,0.369273964659566,-0.196946114485102,337.97184158859
738346.45995694410521537066,0.393892228970204,-0.11078218939787,337.984150720745
738346.45995703455992043018,0.418510493280842,-0.0492365286212755,337.97184158859
738346.45995712489821016788,0.443128757591479,0.0123091321553189,337.996459852901
738346.45995721535291522741,0.455437889746798,0.0369273964659566,338.008768985056
738346.45995730580762028694,0.480056154057436,0.0984730572425509,338.021078117211
738346.45995739626232534647,0.480056154057436,0.123091321553189,338.045696381522
738346.45995748671703040600,0.492365286212755,0.123091321553189,337.996459852901
738346.45995757717173546553,0.492365286212755,0.11078218939787,337.97184158859
738346.45995766762644052505,0.492365286212755,0.0492365286212755,338.045696381522
738346.45995775808114558458,0.467747021902117,-0.0123091321553189,338.082623777988
738346.45995784853585064411,0.455437889746798,-0.123091321553189,338.033387249367
738346.45995793899055570364,0.406201361125523,-0.209255246640421,338.008768985056
738346.45995802944526076317,0.369273964659566,-0.332346568193609,337.97184158859
738346.45995811978355050087,0.320037436038291,-0.443128757591479,337.984150720745
738346.45995821023825556040,0.320037436038291,-0.504674418368074,337.996459852901
738346.45995830069296061993,0.270800907417015,-0.553910946989349,337.947223324279
738346.45995839114766567945,0.246182643106377,-0.578529211299987,337.947223324279
738346.45995848160237073898,0.22156437879574,-0.6523840042319,337.934914192124
738346.45995857205707579851,0.22156437879574,-0.640074872076581,337.885677663503
738346.45995866251178085804,0.22156437879574,-0.664693136387219,337.922605059969
738346.45995875296648591757,0.209255246640421,-0.677002268542538,337.947223324279
738346.45995884342119097710,0.209255246640421,-0.677002268542538,337.947223324279
738346.45995893387589603662,0.196946114485102,-0.6523840042319,337.910295927814
738346.45995902433060109615,0.196946114485102,-0.689311400697857,337.947223324279
738346.45995911478530615568,0.209255246640421,-0.6523840042319,337.947223324279
738346.45995920512359589338,0.209255246640421,-0.677002268542538,337.897986795658
738346.45995929557830095291,0.209255246640421,-0.677002268542538,337.934914192124
738346.45995938603300601244,0.22156437879574,-0.627765739921262,337.922605059969
738346.45995947648771107197,0.196946114485102,-0.701620532853175,337.897986795658
738346.45995956694241613150,0.22156437879574,-0.640074872076581,337.934914192124
738346.45995965739712119102,0.209255246640421,-0.701620532853175,337.897986795658
738346.45995974785182625055,0.22156437879574,-0.6523840042319,337.873368531348
738346.45995983830653131008,0.209255246640421,-0.677002268542538,337.873368531348
738346.45995992876123636961,0.209255246640421,-0.677002268542538,337.885677663503
738346.45996001921594142914,0.196946114485102,-0.664693136387219,337.873368531348
738346.45996010967064648867,0.184636982329783,-0.701620532853175,337.848750267037
738346.45996020000893622637,0.184636982329783,-0.701620532853175,337.836441134882
738346.45996029046364128590,0.209255246640421,-0.677002268542538,337.873368531348
738346.45996038091834634542,0.172327850174464,-0.701620532853175,337.861059399192
738346.45996047137305140495,0.184636982329783,-0.713929665008494,337.836441134882
738346.45996056182775646448,0.184636982329783,-0.689311400697857,337.873368531348
738346.45996065228246152401,0.172327850174464,-0.677002268542538,337.897986795658
738346.45996074273716658354,0.172327850174464,-0.726238797163813,337.885677663503
738346.45996083319187164307,0.147709585863826,-0.726238797163813,337.861059399192
738346.45996092364657670259,0.160018718019145,-0.726238797163813,337.897986795658
738346.45996101410128176212,0.160018718019145,-0.738547929319132,337.676422416862
738346.45996110455598682165,0.160018718019145,-0.726238797163813,337.885677663503
738346.45996119489427655935,0.147709585863826,-0.738547929319132,337.873368531348
738346.45996128534898161888,0.160018718019145,-0.726238797163813,337.897986795658
738346.45996137580368667841,0.160018718019145,-0.713929665008494,337.947223324279
738346.45996146625839173794,0.160018718019145,-0.726238797163813,337.910295927814
738346.45996155671309679747,0.172327850174464,-0.738547929319132,337.947223324279
738346.45996164716780185699,0.147709585863826,-0.726238797163813,337.996459852901
738346.45996173762250691652,0.147709585863826,-0.750857061474451,337.996459852901
738346.45996182807721197605,0.135400453708508,-0.775475325785089,337.897986795658
738346.45996191853191703558,0.160018718019145,-0.738547929319132,338.008768985056
738346.45996200898662209511,0.160018718019145,-0.713929665008494,337.996459852901
738346.45996209944132715464,0.160018718019145,-0.738547929319132,337.97184158859
738346.45996218989603221416,0.147709585863826,-0.76316619362977,337.922605059969
738346.45996228023432195187,0.160018718019145,-0.738547929319132,337.97184158859
738346.45996237068902701139,0.184636982329783,-0.713929665008494,337.97184158859
738346.45996246114373207092,0.22156437879574,-0.677002268542538,337.996459852901
738346.45996255159843713045,0.22156437879574,-0.664693136387219,337.910295927814
738346.45996264205314218998,0.270800907417015,-0.627765739921262,337.959532456435
738346.45996273250784724951,0.295419171727653,-0.578529211299987,337.959532456435
738346.45996282296255230904,0.270800907417015,-0.615456607765943,337.922605059969
738346.45996291341725736856,0.233873510951058,-0.627765739921262,338.008768985056
738346.45996300387196242809,0.233873510951058,-0.640074872076581,337.984150720745
738346.45996309432666748762,0.22156437879574,-0.640074872076581,337.873368531348
738346.45996318478137254715,0.184636982329783,-0.689311400697857,337.934914192124
738346.45996327511966228485,0.160018718019145,-0.713929665008494,337.861059399192
738346.45996336557436734438,0.147709585863826,-0.738547929319132,337.910295927814
738346.45996345602907240391,0.135400453708508,-0.76316619362977,337.897986795658
738346.45996354648377746344,0.147709585863826,-0.76316619362977,337.959532456435
738346.45996363693848252296,0.135400453708508,-0.738547929319132,337.959532456435
738346.45996372739318758249,0.123091321553189,-0.750857061474451,337.910295927814
738346.45996381784789264202,0.135400453708508,-0.750857061474451,337.922605059969
738346.45996390830259770155,0.135400453708508,-0.750857061474451,337.910295927814
738346.45996399875730276108,0.135400453708508,-0.787784457940408,337.922605059969
738346.45996408921200782061,0.135400453708508,-0.775475325785089,337.861059399192
738346.45996417966671288013,0.147709585863826,-0.775475325785089,337.897986795658
738346.45996427000500261784,0.135400453708508,-0.750857061474451,337.922605059969
738346.45996436045970767736,0.0615456607765943,-0.812402722251045,337.934914192124
738346.45996445091441273689,0.0246182643106377,-0.861639250872321,337.922605059969
738346.45996454136911779642,0.283110039572334,-0.590838343455306,337.824132002726
738346.45996463182382285595,0.775475325785089,-0.0123091321553189,337.664113284707
738346.45996472227852791548,1.36631366924039,0.504674418368074,337.590258491775
738346.45996481273323297501,1.84636982329783,0.898566647338277,337.36869411298
738346.45996490318793803453,1.48940499079358,0.455437889746798,337.282530187892
738346.45996499364264309406,0.553910946989349,-1.1078218939787,337.294839320048
738346.45996508409734815359,0.0738547929319132,-1.48940499079358,337.565640227465
738346.45996517455205321312,0.0861639250872321,-1.1078218939787,337.701040681173
738346.45996526500675827265,0.233873510951058,-0.677002268542538,337.897986795658
738346.45996535534504801035,0.246182643106377,-0.615456607765943,337.947223324279
738346.45996544579975306988,0.209255246640421,-0.640074872076581,337.848750267037
738346.45996553625445812941,0.184636982329783,-0.615456607765943,337.984150720745
738346.45996562670916318893,0.184636982329783,-0.627765739921262,337.947223324279
738346.45996571716386824846,0.209255246640421,-0.615456607765943,337.996459852901
738346.45996580761857330799,0.196946114485102,-0.603147475610625,337.947223324279
738346.45996589807327836752,0.209255246640421,-0.566220079144668,338.008768985056
738346.45996598852798342705,0.209255246640421,-0.566220079144668,338.033387249367
738346.45996607898268848658,0.209255246640421,-0.566220079144668,337.996459852901
738346.45996616943739354610,0.22156437879574,-0.54160181483403,337.984150720745
738346.45996625989209860563,0.22156437879574,-0.54160181483403,338.045696381522
738346.45996635023038834333,0.233873510951058,-0.529292682678711,338.058005513677
738346.45996644068509340286,0.22156437879574,-0.504674418368074,337.934914192124
738346.45996653113979846239,0.246182643106377,-0.492365286212755,338.008768985056
738346.45996662159450352192,0.258491775261696,-0.455437889746798,338.033387249367
738346.45996671204920858145,0.283110039572334,-0.467747021902117,337.959532456435
738346.45996680250391364098,0.295419171727653,-0.393892228970204,338.033387249367
738346.45996689295861870050,0.307728303882972,-0.356964832504247,337.996459852901
738346.45996698341332376003,0.307728303882972,-0.356964832504247,338.008768985056
738346.45996707386802881956,0.332346568193609,-0.307728303882972,337.984150720745
738346.45996716432273387909,0.344655700348928,-0.270800907417015,337.922605059969
738346.45996725477743893862,0.356964832504247,-0.209255246640421,337.934914192124
738346.45996734511572867632,0.381583096814885,-0.160018718019145,337.910295927814
738346.45996743557043373585,0.406201361125523,-0.11078218939787,337.984150720745
738346.45996752602513879538,0.455437889746798,-0.0123091321553189,337.996459852901
738346.45996761647984385490,0.467747021902117,-0.0123091321553189,338.021078117211
738346.45996770693454891443,0.467747021902117,0.0369273964659566,338.045696381522
738346.45996779738925397396,0.492365286212755,0.0861639250872321,338.070314645833
738346.45996788784395903349,0.516983550523392,0.123091321553189,338.008768985056
738346.45996797829866409302,0.516983550523392,0.123091321553189,338.058005513677
738346.45996806875336915255,0.504674418368074,0.0615456607765943,338.021078117211
738346.45996815920807421207,0.492365286212755,0.0492365286212755,337.811822870571
738346.45996824966277927160,0.480056154057436,-0.0492365286212755,337.934914192124
738346.45996834011748433113,0.43081962543616,-0.147709585863826,338.021078117211
738346.45996843045577406883,0.418510493280842,-0.233873510951058,337.97184158859
738346.45996852091047912836,0.356964832504247,-0.356964832504247,337.910295927814
738346.45996861136518418789,0.320037436038291,-0.418510493280842,337.996459852901
738346.45996870181988924742,0.295419171727653,-0.492365286212755,337.959532456435
738346.45996879227459430695,0.258491775261696,-0.566220079144668,337.922605059969
738346.45996888272929936647,0.246182643106377,-0.578529211299987,337.934914192124
738346.45996897318400442600,0.22156437879574,-0.640074872076581,337.947223324279
738346.45996906363870948553,0.22156437879574,-0.640074872076581,337.885677663503
738346.45996915409341454506,0.196946114485102,-0.664693136387219,337.873368531348
738346.45996924454811960459,0.196946114485102,-0.6523840042319,337.934914192124
738346.45996933500282466412,0.184636982329783,-0.664693136387219,337.959532456435
738346.45996942534111440182,0.209255246640421,-0.664693136387219,337.984150720745
738346.45996951579581946135,0.196946114485102,-0.677002268542538,337.848750267037
738346.45996960625052452087,0.209255246640421,-0.664693136387219,337.947223324279
738346.45996969670522958040,0.196946114485102,-0.664693136387219,337.996459852901
738346.45996978715993463993,0.209255246640421,-0.689311400697857,337.97184158859
738346.45996987761463969946,0.196946114485102,-0.677002268542538,337.78720460626
738346.45996996806934475899,0.196946114485102,-0.664693136387219,337.910295927814
738346.45997005852404981852,0.184636982329783,-0.677002268542538,337.959532456435
738346.45997014897875487804,0.196946114485102,-0.664693136387219,338.021078117211
738346.45997023943345993757,0.209255246640421,-0.664693136387219,337.934914192124
738346.45997032988816499710,0.209255246640421,-0.677002268542538,337.959532456435
738346.45997042022645473480,0.209255246640421,-0.677002268542538,337.947223324279
738346.45997051068115979433,0.209255246640421,-0.664693136387219,337.922605059969
738346.45997060113586485386,0.209255246640421,-0.689311400697857,337.947223324279
738346.45997069159056991339,0.172327850174464,-0.689311400697857,337.934914192124
