time_dn,ecg_projection_ll_ra_mV,ecg_projection_la_ra_mV,ecg_projection_vx_rl_mV
738472.43669837480410933495,3.60965300454726,0,-298.34566789758
738472.43669846525881439447,3.61888485366375,-0.00923184911648915,-298.34566789758
738472.43669855571351945400,3.61888485366375,-0.0184636982329783,-298.354899746696
738472.43669864616822451353,3.62811670278024,0,-298.354899746696
738472.43669873650651425123,3.60042115543077,-0.0184636982329783,-298.327204199347
738472.43669882696121931076,3.60965300454726,-0.00923184911648915,-298.364131595813
738472.43669891741592437029,3.60965300454726,-0.00923184911648915,-298.354899746696
738472.43669900787062942982,3.60965300454726,-0.0184636982329783,-298.336436048463
738472.43669909820891916752,3.60965300454726,-0.0184636982329783,-298.364131595813
738472.43669918866362422705,3.61888485366375,-0.00923184911648915,-298.364131595813
738472.43669927911832928658,3.61888485366375,-0.00923184911648915,-298.308740501114
738472.43669936957303434610,3.60042115543077,-0.0184636982329783,-298.142567217017
738472.43669945991132408381,3.60965300454726,-0.00923184911648915,-298.253349406415
738472.43669955036602914333,3.60965300454726,-0.0184636982329783,-298.31797235023
738472.43669964082073420286,3.62811670278024,0,-298.31797235023
738472.43669973127543926239,3.60965300454726,-0.0184636982329783,-298.336436048463
738472.43669982161372900009,3.60042115543077,-0.0369273964659566,-298.373363444929
738472.43669991206843405962,3.60965300454726,-0.0276955473494674,-298.31797235023
738472.43670000252313911915,3.62811670278024,0,-298.391827143162
738472.43670009297784417868,3.70197149571215,0.0184636982329783,-298.373363444929
738472.43670018331613391638,3.72966704306162,0.0369273964659566,-298.327204199347
738472.43670027377083897591,3.74813074129459,0.0461592455824458,-298.373363444929
738472.43670036422554403543,3.78505813776055,0.0369273964659566,-298.382595294046
738472.43670045468024909496,3.85891293069246,0.0461592455824458,-298.364131595813
738472.43670054501853883266,3.82198553422651,0.0553910946989349,-298.364131595813
738472.43670063547324389219,3.831217383343,0.0738547929319132,-298.373363444929
738472.43670072592794895172,3.77582628864406,0.0461592455824458,-298.364131595813
738472.43670081638265401125,3.74813074129459,0.0369273964659566,-298.34566789758
738472.43670090672094374895,3.69273964659566,0.00923184911648915,-298.354899746696
738472.43670099717564880848,3.68350779747917,0.00923184911648915,-298.364131595813
738472.43670108763035386801,3.62811670278024,-0.00923184911648915,-298.373363444929
738472.43670117808505892754,3.60965300454726,-0.00923184911648915,-298.308740501114
738472.43670126842334866524,3.60965300454726,-0.00923184911648915,-298.373363444929
738472.43670135887805372477,3.58195745719779,-0.0184636982329783,-298.364131595813
738472.43670144933275878429,3.56349375896481,-0.0276955473494674,-298.308740501114
738472.43670153978746384382,3.58195745719779,-0.0276955473494674,-298.308740501114
738472.43670163012575358152,3.58195745719779,-0.00923184911648915,-298.290276802881
738472.43670172058045864105,3.55426190984832,-0.0369273964659566,-298.354899746696
738472.43670181103516370058,3.56349375896481,-0.0276955473494674,-298.327204199347
738472.43670190148986876011,3.55426190984832,-0.00923184911648915,-298.31797235023
738472.43670199182815849781,3.49887081514939,0.00923184911648915,-298.336436048463
738472.43670208228286355734,3.58195745719779,0.0369273964659566,-298.327204199347
738472.43670217273756861687,3.831217383343,0.0830866420484024,-298.327204199347
738472.43670226319227367640,4.3389690847499,0.0738547929319132,-298.271813104648
738472.43670235353056341410,5.08674886318552,-0.0830866420484024,-298.262581255531
738472.43670244398526847363,4.82825708792383,-0.22156437879574,-298.253349406415
738472.43670253443997353315,4.11740470595416,-0.286187322611164,-298.34566789758
738472.43670262489467859268,3.47117526779992,-0.43389690847499,-298.484145634327
738472.43670271523296833038,3.19421979430525,-0.258491775261696,-298.428754539628
738472.43670280568767338991,3.19421979430525,-0.0923184911648915,-298.419522690512
738472.43670289614237844944,3.26807458723716,0.0369273964659566,-298.1887264626
738472.43670298659708350897,3.36962492751854,0.00923184911648915,-298.31797235023
738472.43670307693537324667,3.55426190984832,0.0461592455824458,-298.354899746696
738472.43670316739007830620,3.62811670278024,0.0461592455824458,-298.290276802881
738472.43670325784478336573,3.6558122501297,0.0369273964659566,-298.364131595813
738472.43670334829948842525,3.6558122501297,0.0184636982329783,-298.373363444929
738472.43670343863777816296,3.66504409924619,0.0184636982329783,-298.364131595813
738472.43670352909248322248,3.70197149571215,0.0369273964659566,-298.290276802881
738472.43670361954718828201,3.71120334482864,0.0369273964659566,-298.34566789758
738472.43670371000189334154,3.73889889217811,0.0553910946989349,-298.354899746696
738472.43670380034018307924,3.76659443952757,0.064622943815424,-298.299508651997
738472.43670389079488813877,3.76659443952757,0.0553910946989349,-298.34566789758
738472.43670398124959319830,3.78505813776055,0.064622943815424,-298.34566789758
738472.43670407170429825783,3.81275368511002,0.0738547929319132,-298.336436048463
738472.43670416204258799553,3.85891293069246,0.11078218939787,-298.327204199347
738472.43670425249729305506,3.85891293069246,0.11078218939787,-298.34566789758
738472.43670434295199811459,3.84968108157598,0.0923184911648915,-298.336436048463
738472.43670443340670317411,3.86814477980895,0.101550340281381,-298.281044953764
738472.43670452374499291182,3.90507217627491,0.138477736747337,-298.336436048463
738472.43670461419969797134,3.90507217627491,0.147709585863826,-298.327204199347
738472.43670470465440303087,3.90507217627491,0.147709585863826,-298.262581255531
738472.43670479510910809040,3.92353587450789,0.166173284096805,-298.262581255531
738472.43670488544739782810,3.92353587450789,0.184636982329783,-298.262581255531
738472.43670497590210288763,4.00662251655629,0.267723624378185,-298.244117557298
738472.43670506635680794716,3.95123142185736,0.230796227912229,-298.262581255531
738472.43670515681151300669,3.88660847804193,0.175405133213294,-298.281044953764
738472.43670524714980274439,3.89584032715842,0.193868831446272,-298.31797235023
738472.43670533760450780392,3.88660847804193,0.193868831446272,-298.271813104648
738472.43670542805921286345,3.88660847804193,0.193868831446272,-298.327204199347
738472.43670551851391792297,3.96969512009033,0.267723624378185,-298.327204199347
738472.43670560885220766068,3.90507217627491,0.184636982329783,-298.31797235023
738472.43670569930691272020,3.85891293069246,0.138477736747337,-298.281044953764
738472.43670578976161777973,3.84968108157598,0.129245887630848,-298.271813104648
738472.43670588021632283926,3.81275368511002,0.11078218939787,-298.336436048463
738472.43670597055461257696,3.80352183599353,0.0830866420484024,-298.308740501114
738472.43670606100931763649,3.78505813776055,0.0830866420484024,-298.308740501114
738472.43670615146402269602,3.73889889217811,0.0461592455824458,-298.290276802881
738472.43670624191872775555,3.75736259041108,0.064622943815424,-298.290276802881
738472.43670633225701749325,3.72043519394513,0.0369273964659566,-298.281044953764
738472.43670642271172255278,3.71120334482864,0.0276955473494674,-298.133335367901
738472.43670651316642761230,3.69273964659566,0.0184636982329783,-298.281044953764
738472.43670660362113267183,3.72966704306162,0.0461592455824458,-298.391827143162
738472.43670669395942240953,3.77582628864406,0.0923184911648915,-298.391827143162
738472.43670678441412746906,3.72043519394513,0.0369273964659566,-298.382595294046
738472.43670687486883252859,3.70197149571215,0.0276955473494674,-298.373363444929
738472.43670696520712226629,3.73889889217811,0.0553910946989349,-298.364131595813
738472.43670705566182732582,3.69273964659566,0.0184636982329783,-298.327204199347
738472.43670714611653238535,3.69273964659566,0.0276955473494674,-298.364131595813
738472.43670723657123744488,3.74813074129459,0.0738547929319132,-298.373363444929
738472.43670732690952718258,3.73889889217811,0.0738547929319132,-298.364131595813
738472.43670741736423224211,3.71120334482864,0.0553910946989349,-298.34566789758
738472.43670750781893730164,3.72043519394513,0.0553910946989349,-298.373363444929
738472.43670759827364236116,3.6558122501297,0,-298.382595294046
738472.43670768861193209887,3.63734855189673,-0.00923184911648915,-298.327204199347
738472.43670777906663715839,3.66504409924619,0.0184636982329783,-298.373363444929
738472.43670786952134221792,3.64658040101321,0.00923184911648915,-298.382595294046
738472.43670795997604727745,3.67427594836268,0.0369273964659566,-298.34566789758
738472.43670805031433701515,3.62811670278024,-0.00923184911648915,-298.373363444929
738472.43670814076904207468,3.62811670278024,0,-298.391827143162
738472.43670823122374713421,3.60042115543077,-0.0184636982329783,-298.382595294046
738472.43670832167845219374,3.62811670278024,-0.00923184911648915,-298.354899746696
738472.43670841201674193144,3.62811670278024,-0.0184636982329783,-298.382595294046
738472.43670850247144699097,3.60965300454726,-0.0553910946989349,-298.382595294046
738472.43670859292615205050,3.60042115543077,0.00923184911648915,-298.299508651997
738472.43670868338085711002,3.60042115543077,0.0276955473494674,-298.373363444929
738472.43670877371914684772,3.59118930631428,0,-298.382595294046
738472.43670886417385190725,3.59118930631428,0,-298.327204199347
738472.43670895462855696678,3.58195745719779,-0.0184636982329783,-298.327204199347
738472.43670904508326202631,3.60042115543077,0.00923184911648915,-298.364131595813
738472.43670913542155176401,3.63734855189673,0.0184636982329783,-298.373363444929
738472.43670922587625682354,3.56349375896481,-0.0553910946989349,-298.299508651997
738472.43670931633096188307,3.54503006073183,-0.0830866420484024,-298.382595294046
738472.43670940678566694260,3.5727256080813,-0.0276955473494674,-298.373363444929
738472.43670949712395668030,3.58195745719779,0,-298.34566789758
738472.43670958757866173983,3.5727256080813,-0.0276955473494674,-298.364131595813
738472.43670967803336679935,3.60042115543077,0.0184636982329783,-298.373363444929
738472.43670976848807185888,3.5727256080813,0.00923184911648915,-298.373363444929
738472.43670985882636159658,3.59118930631428,0.0276955473494674,-298.290276802881
738472.43670994928106665611,3.58195745719779,0,-298.087176122318
738472.43671003973577171564,3.55426190984832,-0.0184636982329783,-298.225653859066
738472.43671013019047677517,3.56349375896481,-0.0184636982329783,-298.327204199347
738472.43671022052876651287,3.56349375896481,-0.0184636982329783,-298.31797235023
738472.43671031098347157240,3.56349375896481,-0.0184636982329783,-298.327204199347
738472.43671040143817663193,3.5727256080813,-0.00923184911648915,-298.382595294046
738472.43671049189288169146,3.62811670278024,0.0276955473494674,-298.373363444929
738472.43671058223117142916,3.66504409924619,0.0369273964659566,-298.290276802881
738472.43671067268587648869,3.70197149571215,0.0461592455824458,-298.290276802881
738472.43671076314058154821,3.72966704306162,0.064622943815424,-298.364131595813
738472.43671085359528660774,3.68350779747917,0,-298.373363444929
738472.43671094393357634544,3.71120334482864,0.0276955473494674,-298.308740501114
738472.43671103438828140497,3.72966704306162,0.0461592455824458,-298.364131595813
738472.43671112484298646450,3.72043519394513,0.0553910946989349,-298.364131595813
738472.43671121529769152403,3.66504409924619,0.0184636982329783,-298.299508651997
738472.43671130563598126173,3.70197149571215,0.0461592455824458,-298.364131595813
738472.43671139609068632126,3.60042115543077,0.0184636982329783,-298.354899746696
738472.43671148654539138079,3.56349375896481,-0.0276955473494674,-298.354899746696
738472.43671157700009644032,3.56349375896481,-0.00923184911648915,-298.364131595813
738472.43671166733838617802,3.52656636249886,-0.0369273964659566,-298.382595294046
738472.43671175779309123755,3.55426190984832,0,-298.364131595813
738472.43671184824779629707,3.51733451338237,-0.00923184911648915,-298.336436048463
738472.43671193870250135660,3.51733451338237,-0.0184636982329783,-298.382595294046
738472.43671202904079109430,3.4896389660329,-0.0369273964659566,-298.373363444929
738472.43671211949549615383,3.4896389660329,-0.0276955473494674,-298.364131595813
738472.43671220995020121336,3.48040711691641,-0.0461592455824458,-298.31797235023
738472.43671230040490627289,3.48040711691641,-0.0369273964659566,-298.373363444929
738472.43671239074319601059,3.42501602221747,-0.0276955473494674,-298.373363444929
738472.43671248119790107012,3.46194341868343,0.00923184911648915,-298.364131595813
738472.43671257165260612965,3.4896389660329,-0.00923184911648915,-298.299508651997
738472.43671266210731118917,3.70197149571215,0.0276955473494674,-298.34566789758
738472.43671275244560092688,4.21895504623554,0.064622943815424,-298.299508651997
738472.43671284290030598640,5.04058961760308,-0.0553910946989349,-298.253349406415
738472.43671293335501104593,4.92057557908872,-0.230796227912229,-298.281044953764
738472.43671302380971610546,4.14510025330363,-0.313882869960631,-298.364131595813
738472.43671311414800584316,3.48040711691641,-0.424665059358501,-298.428754539628
738472.43671320460271090269,3.10190130314035,-0.295419171727653,-298.465681936094
738472.43671329505741596222,3.10190130314035,-0.129245887630848,-298.401058992279
738472.43671338551212102175,3.18498794518876,0.0184636982329783,-298.336436048463
738472.43671347585041075945,3.28653828547014,-0.0184636982329783,-298.170262764367
738472.43671356630511581898,3.41578417310099,-0.0276955473494674,-298.271813104648
738472.43671365675982087851,3.56349375896481,0.0184636982329783,-298.364131595813
738472.43671374721452593803,3.55426190984832,0,-298.271813104648
738472.43671383755281567574,3.60042115543077,0.00923184911648915,-298.354899746696
738472.43671392800752073526,3.60042115543077,-0.00923184911648915,-298.34566789758
738472.43671401846222579479,3.61888485366375,0,-298.308740501114
738472.43671410891693085432,3.67427594836268,0.0369273964659566,-298.253349406415
738472.43671419925522059202,3.68350779747917,0.0276955473494674,-298.308740501114
738472.43671428970992565155,3.67427594836268,0.00923184911648915,-298.299508651997
738472.43671438016463071108,3.66504409924619,0.00923184911648915,-298.299508651997
738472.43671447061933577061,3.70197149571215,0.0184636982329783,-298.234885708182
738472.43671456095762550831,3.73889889217811,0.0369273964659566,-298.299508651997
738472.43671465141233056784,3.75736259041108,0.0461592455824458,-298.34566789758
738472.43671474186703562737,3.79428998687704,0.0738547929319132,-298.327204199347
738472.43671483232174068689,3.80352183599353,0.0738547929319132,-298.299508651997
738472.43671492266003042459,3.78505813776055,0.0461592455824458,-298.327204199347
738472.43671501311473548412,3.831217383343,0.0830866420484024,-298.327204199347
738472.43671510356944054365,3.86814477980895,0.11078218939787,-298.308740501114
738472.43671519402414560318,3.86814477980895,0.129245887630848,-298.31797235023
738472.43671528436243534088,3.85891293069246,0.129245887630848,-298.31797235023
738472.43671537481714040041,3.90507217627491,0.175405133213294,-298.271813104648
738472.43671546527184545994,3.9143040253914,0.203100680562761,-298.299508651997
738472.43671555572655051947,3.90507217627491,0.203100680562761,-298.31797235023
738472.43671564606484025717,3.87737662892544,0.193868831446272,-298.299508651997
738472.43671573651954531670,3.89584032715842,0.193868831446272,-298.281044953764
738472.43671582697425037622,3.86814477980895,0.203100680562761,-298.308740501114
738472.43671591742895543575,3.85891293069246,0.22156437879574,-298.308740501114
738472.43671600776724517345,3.80352183599353,0.175405133213294,-298.262581255531
738472.43671609822195023298,3.80352183599353,0.156941434980316,-298.327204199347
738472.43671618867665529251,3.77582628864406,0.147709585863826,-298.31797235023
738472.43671627913136035204,3.73889889217811,0.11078218939787,-298.336436048463
738472.43671636946965008974,3.69273964659566,0.0830866420484024,-298.299508651997
738472.43671645992435514927,3.66504409924619,0.064622943815424,-298.34566789758
738472.43671655037906020880,3.6558122501297,0.0461592455824458,-298.34566789758
738472.43671664083376526833,3.60965300454726,0.0184636982329783,-298.281044953764
738472.43671673117205500603,3.60965300454726,0.00923184911648915,-298.364131595813
738472.43671682162676006556,3.56349375896481,-0.0184636982329783,-298.364131595813
738472.43671691208146512508,3.59118930631428,0.00923184911648915,-298.364131595813
738472.43671700253617018461,3.56349375896481,-0.0184636982329783,-298.207190160833
738472.43671709287445992231,3.5727256080813,-0.0184636982329783,-298.271813104648
738472.43671718332916498184,3.59118930631428,0,-298.354899746696
738472.43671727378387004137,3.58195745719779,-0.00923184911648915,-298.336436048463
738472.43671736423857510090,3.60965300454726,0.0184636982329783,-298.354899746696
738472.43671745457686483860,3.62811670278024,0.0276955473494674,-298.364131595813
738472.43671754503156989813,3.60042115543077,-0.00923184911648915,-298.354899746696
738472.43671763548627495766,3.60042115543077,0,-298.336436048463
738472.43671772594098001719,3.6558122501297,0.064622943815424,-298.34566789758
738472.43671781627926975489,3.60042115543077,-0.00923184911648915,-298.364131595813
738472.43671790673397481441,3.60042115543077,-0.0184636982329783,-298.31797235023
738472.43671799718867987394,3.58195745719779,0,-298.364131595813
738472.43671808764338493347,3.60042115543077,-0.00923184911648915,-298.364131595813
738472.43671817798167467117,3.60042115543077,-0.0276955473494674,-298.354899746696
738472.43671826843637973070,3.54503006073183,-0.00923184911648915,-298.34566789758
738472.43671835889108479023,3.55426190984832,0,-298.364131595813
738472.43671844934578984976,3.5727256080813,0.0184636982329783,-298.354899746696
738472.43671853968407958746,3.54503006073183,-0.00923184911648915,-298.308740501114
738472.43671863013878464699,3.55426190984832,-0.00923184911648915,-298.364131595813
738472.43671872059348970652,3.52656636249886,-0.0276955473494674,-298.364131595813
738472.43671881104819476604,3.55426190984832,0,-298.290276802881
738472.43671890138648450375,3.51733451338237,-0.0184636982329783,-298.354899746696
738472.43671899184118956327,3.53579821161534,0.00923184911648915,-298.34566789758
738472.43671908229589462280,3.53579821161534,0,-298.34566789758
738472.43671917275059968233,3.49887081514939,-0.0738547929319132,-298.34566789758
738472.43671926308888942003,3.50810266426588,-0.0276955473494674,-298.354899746696
738472.43671935354359447956,3.51733451338237,-0.0184636982329783,-298.34566789758
738472.43671944399829953909,3.51733451338237,-0.0461592455824458,-298.31797235023
738472.43671953445300459862,3.50810266426588,-0.0184636982329783,-298.336436048463
738472.43671962479129433632,3.50810266426588,-0.00923184911648915,-298.354899746696
738472.43671971524599939585,3.4896389660329,-0.0276955473494674,-298.31797235023
738472.43671980570070445538,3.52656636249886,0,-298.354899746696
738472.43671989603899419308,3.53579821161534,-0.0184636982329783,-298.354899746696
738472.43671998649369925261,3.52656636249886,-0.0461592455824458,-298.364131595813
738472.43672007694840431213,3.49887081514939,-0.0461592455824458,-298.308740501114
738472.43672016740310937166,3.51733451338237,0.00923184911648915,-298.364131595813
738472.43672025774139910936,3.49887081514939,-0.064622943815424,-298.373363444929
738472.43672034819610416889,3.48040711691641,-0.064622943815424,-298.34566789758
738472.43672043865080922842,3.49887081514939,-0.0184636982329783,-298.308740501114
738472.43672052910551428795,3.49887081514939,-0.0184636982329783,-298.290276802881
738472.43672061944380402565,3.50810266426588,0,-298.262581255531
738472.43672070989850908518,3.52656636249886,0.00923184911648915,-298.290276802881
738472.43672080035321414471,3.50810266426588,-0.0553910946989349,-298.364131595813
738472.43672089080791920424,3.4896389660329,-0.0553910946989349,-298.364131595813
738472.43672098114620894194,3.4896389660329,-0.0276955473494674,-298.34566789758
738472.43672107160091400146,3.52656636249886,-0.00923184911648915,-298.364131595813
738472.43672116205561906099,3.51733451338237,-0.0276955473494674,-298.354899746696
738472.43672125251032412052,3.54503006073183,-0.0461592455824458,-298.364131595813
738472.43672134284861385822,3.60965300454726,0.00923184911648915,-298.34566789758
738472.43672143330331891775,3.60965300454726,0.0184636982329783,-298.354899746696
738472.43672152375802397728,3.63734855189673,0.0461592455824458,-298.364131595813
738472.43672161421272903681,3.63734855189673,-0.00923184911648915,-298.327204199347
738472.43672170455101877451,3.68350779747917,0.0553910946989349,-298.373363444929
738472.43672179500572383404,3.69273964659566,0.0738547929319132,-298.364131595813
738472.43672188546042889357,3.69273964659566,0.064622943815424,-298.364131595813
738472.43672197591513395309,3.6558122501297,0.0461592455824458,-298.327204199347
738472.43672206625342369080,3.56349375896481,0,-298.308740501114
738472.43672215670812875032,3.53579821161534,-0.00923184911648915,-298.336436048463
738472.43672224716283380985,3.50810266426588,-0.0276955473494674,-298.373363444929
738472.43672233761753886938,3.51733451338237,-0.0276955473494674,-298.364131595813
738472.43672242795582860708,3.48040711691641,-0.0276955473494674,-298.299508651997
738472.43672251841053366661,3.4896389660329,-0.0276955473494674,-298.31797235023
738472.43672260886523872614,3.48040711691641,-0.0276955473494674,-298.327204199347
738472.43672269931994378567,3.49887081514939,0.00923184911648915,-298.290276802881
738472.43672278965823352337,3.41578417310099,-0.064622943815424,-298.31797235023
738472.43672288011293858290,3.45271156956694,-0.0553910946989349,-298.327204199347
738472.43672297056764364243,3.43424787133396,-0.0553910946989349,-298.308740501114
738472.43672306102234870195,3.4896389660329,0.00923184911648915,-298.34566789758
738472.43672315136063843966,3.37885677663503,-0.0276955473494674,-298.364131595813
738472.43672324181534349918,3.41578417310099,-0.00923184911648915,-298.354899746696
738472.43672333227004855871,3.59118930631428,0.0553910946989349,-298.327204199347
738472.43672342272475361824,3.96969512009033,0.0923184911648915,-298.308740501114
738472.43672351306304335594,4.65285195471053,-0.064622943815424,-298.244117557298
738472.43672360351774841547,5.03135776848659,-0.175405133213294,-298.225653859066
738472.43672369397245347500,4.89288003173925,-0.230796227912229,-298.253349406415
738472.43672378442715853453,4.13586840418714,-0.341578417310099,-298.336436048463
738472.43672387476544827223,3.45271156956694,-0.461592455824458,-298.465681936094
738472.43672396522015333176,3.03727835932493,-0.332346568193609,-298.474913785211
738472.43672405567485839128,3.05574205755791,-0.129245887630848,-298.308740501114
738472.43672414612956345081,3.13882869960631,-0.0369273964659566,-298.271813104648
738472.43672423646785318851,3.31423383281961,-0.0184636982329783,-298.373363444929
738472.43672432692255824804,3.49887081514939,0.0553910946989349,-298.354899746696
738472.43672441737726330757,3.53579821161534,-0.00923184911648915,-298.364131595813
738472.43672450783196836710,3.51733451338237,-0.0276955473494674,-298.354899746696
738472.43672459817025810480,3.55426190984832,0,-298.354899746696
738472.43672468862496316433,3.56349375896481,0,-298.299508651997
738472.43672477907966822386,3.59118930631428,0,-298.354899746696
738472.43672486953437328339,3.63734855189673,0.0276955473494674,-298.354899746696
738472.43672495987266302109,3.68350779747917,0.064622943815424,-298.290276802881
738472.43672505032736808062,3.68350779747917,0.0461592455824458,-298.354899746696
738472.43672514078207314014,3.64658040101321,0.00923184911648915,-298.34566789758
738472.43672523123677819967,3.67427594836268,0.0276955473494674,-298.308740501114
738472.43672532157506793737,3.71120334482864,0.0184636982329783,-298.34566789758
738472.43672541202977299690,3.75736259041108,0.064622943815424,-298.336436048463
738472.43672550248447805643,3.76659443952757,0.0738547929319132,-298.336436048463
738472.43672559293918311596,3.80352183599353,0.101550340281381,-298.327204199347
738472.43672568327747285366,3.78505813776055,0.064622943815424,-298.327204199347
738472.43672577373217791319,3.84044923245949,0.120014038514359,-298.327204199347
738472.43672586418688297272,3.831217383343,0.11078218939787,-298.327204199347
738472.43672595464158803225,3.87737662892544,0.156941434980316,-298.290276802881
738472.43672604497987776995,3.88660847804193,0.166173284096805,-298.31797235023
738472.43672613543458282948,3.92353587450789,0.193868831446272,-298.31797235023
738472.43672622588928788900,3.9143040253914,0.21233252967925,-298.234885708182
738472.43672631634399294853,3.9143040253914,0.22156437879574,-298.244117557298
738472.43672640668228268623,3.93276772362438,0.240028077028718,-298.253349406415
738472.43672649713698774576,3.94199957274087,0.230796227912229,-298.234885708182
738472.43672658759169280529,3.9143040253914,0.249259926145207,-298.225653859066
738472.43672667804639786482,3.88660847804193,0.230796227912229,-298.216422009949
738472.43672676838468760252,3.87737662892544,0.21233252967925,-298.216422009949
738472.43672685883939266205,3.831217383343,0.193868831446272,-298.262581255531
738472.43672694929409772158,3.79428998687704,0.156941434980316,-298.281044953764
738472.43672703974880278111,3.74813074129459,0.120014038514359,-298.290276802881
738472.43672713008709251881,3.70197149571215,0.101550340281381,-298.34566789758
738472.43672722054179757833,3.64658040101321,0.064622943815424,-298.327204199347
738472.43672731099650263786,3.62811670278024,0.0553910946989349,-298.281044953764
738472.43672740145120769739,3.60042115543077,0.0369273964659566,-298.299508651997
738472.43672749178949743509,3.5727256080813,0.00923184911648915,-298.327204199347
738472.43672758224420249462,3.55426190984832,0,-298.34566789758
738472.43672767269890755415,3.54503006073183,0,-298.170262764367
738472.43672776315361261368,3.56349375896481,0.0184636982329783,-298.290276802881
738472.43672785349190235138,3.54503006073183,0,-298.31797235023
738472.43672794394660741091,3.55426190984832,0.00923184911648915,-298.373363444929
738472.43672803440131247044,3.56349375896481,0.00923184911648915,-298.34566789758
738472.43672812485601752996,3.59118930631428,0.0184636982329783,-298.364131595813
738472.43672821519430726767,3.5727256080813,0.00923184911648915,-298.336436048463
738472.43672830564901232719,3.60042115543077,0.0184636982329783,-298.364131595813
738472.43672839610371738672,3.60042115543077,0.0369273964659566,-298.382595294046
738472.43672848655842244625,3.61888485366375,0.0184636982329783,-298.391827143162
738472.43672857689671218395,3.59118930631428,0.0276955473494674,-298.299508651997
738472.43672866735141724348,3.60042115543077,0.0276955473494674,-298.410290841395
738472.43672875780612230301,3.5727256080813,-0.00923184911648915,-298.382595294046
738472.43672884826082736254,3.60965300454726,0.0184636982329783,-298.336436048463
738472.43672893859911710024,3.56349375896481,0.00923184911648915,-298.364131595813
738472.43672902905382215977,3.56349375896481,0,-298.410290841395
738472.43672911950852721930,3.54503006073183,-0.0184636982329783,-298.391827143162
738472.43672920996323227882,3.55426190984832,0,-298.31797235023
738472.43672930030152201653,3.55426190984832,-0.00923184911648915,-298.401058992279
738472.43672939075622707605,3.51733451338237,-0.0276955473494674,-298.410290841395
738472.43672948121093213558,3.52656636249886,-0.0276955473494674,-298.364131595813
738472.43672957166563719511,3.51733451338237,-0.0276955473494674,-298.373363444929
738472.43672966200392693281,3.53579821161534,0.00923184911648915,-298.428754539628
738472.43672975245863199234,3.49887081514939,-0.0276955473494674,-298.401058992279
738472.43672984291333705187,3.49887081514939,-0.0276955473494674,-298.354899746696
738472.43672993336804211140,3.52656636249886,0,-298.410290841395
738472.43673002370633184910,3.49887081514939,-0.0369273964659566,-298.401058992279
738472.43673011416103690863,3.4896389660329,-0.0369273964659566,-298.336436048463
738472.43673020461574196815,3.4896389660329,-0.0276955473494674,-298.437986388745
738472.43673029507044702768,3.48040711691641,-0.0276955473494674,-298.419522690512
738472.43673038540873676538,3.50810266426588,-0.00923184911648915,-298.354899746696
738472.43673047586344182491,3.49887081514939,-0.0369273964659566,-298.382595294046
738472.43673056631814688444,3.49887081514939,-0.0553910946989349,-298.308740501114
738472.43673065677285194397,3.50810266426588,-0.0276955473494674,-298.299508651997
738472.43673074711114168167,3.4896389660329,-0.0184636982329783,-298.299508651997
738472.43673083756584674120,3.4896389660329,-0.0184636982329783,-298.31797235023
738472.43673092802055180073,3.4896389660329,-0.0184636982329783,-298.299508651997
738472.43673101847525686026,3.4896389660329,-0.0276955473494674,-298.308740501114
738472.43673110881354659796,3.48040711691641,-0.0830866420484024,-298.271813104648
738472.43673119926825165749,3.4896389660329,-0.0553910946989349,-298.216422009949
738472.43673128972295671701,3.49887081514939,-0.0553910946989349,-298.327204199347
738472.43673138017766177654,3.50810266426588,-0.00923184911648915,-298.373363444929
738472.43673147051595151424,3.4896389660329,-0.0184636982329783,-298.373363444929
738472.43673156097065657377,3.49887081514939,-0.00923184911648915,-298.327204199347
738472.43673165142536163330,3.4896389660329,0,-298.382595294046
738472.43673174188006669283,3.49887081514939,-0.0276955473494674,-298.419522690512
738472.43673183221835643053,3.4896389660329,-0.0184636982329783,-298.428754539628
738472.43673192267306149006,3.51733451338237,-0.0276955473494674,-298.382595294046
738472.43673201312776654959,3.4896389660329,-0.0369273964659566,-298.373363444929
738472.43673210358247160912,3.49887081514939,0.0184636982329783,-298.401058992279
738472.43673219392076134682,3.49887081514939,0,-298.410290841395
738472.43673228437546640635,3.50810266426588,-0.00923184911648915,-298.281044953764
738472.43673237483017146587,3.49887081514939,0,-298.401058992279
738472.43673246516846120358,3.51733451338237,-0.0184636982329783,-298.391827143162
738472.43673255562316626310,3.55426190984832,0.00923184911648915,-298.382595294046
738472.43673264607787132263,3.59118930631428,0.0369273964659566,-298.391827143162
738472.43673273653257638216,3.64658040101321,0.064622943815424,-298.364131595813
738472.43673282687086611986,3.66504409924619,0.0369273964659566,-298.336436048463
738472.43673291732557117939,3.67427594836268,0.0184636982329783,-298.410290841395
738472.43673300778027623892,3.71120334482864,0.0369273964659566,-298.437986388745
738472.43673309823498129845,3.70197149571215,0.0553910946989349,-298.410290841395
738472.43673318857327103615,3.69273964659566,0.0184636982329783,-298.244117557298
738472.43673327902797609568,3.66504409924619,0.0184636982329783,-298.373363444929
738472.43673336948268115520,3.6558122501297,0.0738547929319132,-298.401058992279
738472.43673345993738621473,3.60042115543077,0.0369273964659566,-298.382595294046
738472.43673355027567595243,3.53579821161534,0,-298.281044953764
738472.43673364073038101196,3.53579821161534,0,-298.327204199347
738472.43673373118508607149,3.49887081514939,0.0184636982329783,-298.31797235023
738472.43673382163979113102,3.4896389660329,0.0184636982329783,-298.308740501114
738472.43673391197808086872,3.49887081514939,0.00923184911648915,-298.299508651997
738472.43673400243278592825,3.47117526779992,-0.0276955473494674,-298.364131595813
738472.43673409288749098778,3.4896389660329,-0.0184636982329783,-298.437986388745
738472.43673418334219604731,3.46194341868343,-0.0276955473494674,-298.31797235023
738472.43673427368048578501,3.48040711691641,-0.00923184911648915,-298.382595294046
738472.43673436413519084454,3.46194341868343,0.0184636982329783,-298.428754539628
738472.43673445458989590406,3.42501602221747,0.0276955473494674,-298.31797235023
738472.43673454504460096359,3.42501602221747,0.0276955473494674,-298.382595294046
738472.43673463538289070129,3.62811670278024,0.101550340281381,-298.382595294046
738472.43673472583759576082,3.75736259041108,0.11078218939787,-298.207190160833
738472.43673481629230082035,4.27434614093448,0.0738547929319132,-298.281044953764
738472.43673490674700587988,5.05905331583605,-0.120014038514359,-298.244117557298
738472.43673499708529561758,4.8467207861568,-0.22156437879574,-298.290276802881
738472.43673508754000067711,4.09894100772118,-0.32311471907712,-298.373363444929
738472.43673517799470573664,3.42501602221747,-0.452360606707968,-298.474913785211
738472.43673526844941079617,3.09266945402387,-0.304651020844142,-298.437986388745
738472.43673535878770053387,3.07420575579089,-0.120014038514359,-298.401058992279
738472.43673544924240559340,3.19421979430525,0.0276955473494674,-298.354899746696
738472.43673553969711065292,3.31423383281961,0.00923184911648915,-298.290276802881
738472.43673563015181571245,3.47117526779992,0.0461592455824458,-298.354899746696
738472.43673572049010545015,3.53579821161534,0.0276955473494674,-298.354899746696
738472.43673581094481050968,3.59118930631428,0.0553910946989349,-298.354899746696
738472.43673590139951556921,3.60042115543077,0.0369273964659566,-298.299508651997
738472.43673599185422062874,3.60965300454726,0.0369273964659566,-298.34566789758
738472.43673608219251036644,3.62811670278024,0.0461592455824458,-298.34566789758
738472.43673617264721542597,3.6558122501297,0.064622943815424,-298.281044953764
738472.43673626310192048550,3.66504409924619,0.0553910946989349,-298.34566789758
738472.43673635355662554502,3.70197149571215,0.0738547929319132,-298.34566789758
738472.43673644389491528273,3.70197149571215,0.064622943815424,-298.308740501114
738472.43673653434962034225,3.71120334482864,0.064622943815424,-298.290276802881
738472.43673662480432540178,3.74813074129459,0.0738547929319132,-298.34566789758
738472.43673671525903046131,3.76659443952757,0.0923184911648915,-298.290276802881
738472.43673680559732019901,3.79428998687704,0.11078218939787,-298.308740501114
738472.43673689605202525854,3.80352183599353,0.129245887630848,-298.336436048463
738472.43673698650673031807,3.831217383343,0.147709585863826,-298.336436048463
738472.43673707696143537760,3.85891293069246,0.156941434980316,-298.327204199347
738472.43673716729972511530,3.88660847804193,0.184636982329783,-298.31797235023
738472.43673725775443017483,3.89584032715842,0.193868831446272,-298.31797235023
738472.43673734820913523436,3.92353587450789,0.22156437879574,-298.31797235023
738472.43673743866384029388,3.93276772362438,0.240028077028718,-298.271813104648
738472.43673752900213003159,3.95123142185736,0.258491775261696,-298.31797235023
738472.43673761945683509111,3.95123142185736,0.267723624378185,-298.31797235023
738472.43673770991154015064,3.96969512009033,0.276955473494675,-298.253349406415
738472.43673780036624521017,3.96046327097385,0.276955473494675,-298.327204199347
738472.43673789070453494787,3.95123142185736,0.276955473494675,-298.327204199347
738472.43673798115924000740,3.95123142185736,0.276955473494675,-298.290276802881
738472.43673807161394506693,3.94199957274087,0.267723624378185,-298.31797235023
738472.43673816206865012646,3.9143040253914,0.240028077028718,-298.114871669668
738472.43673825240693986416,3.86814477980895,0.203100680562761,-298.207190160833
738472.43673834286164492369,3.81275368511002,0.166173284096805,-298.244117557298
738472.43673843331634998322,3.79428998687704,0.147709585863826,-298.34566789758
738472.43673852377105504274,3.76659443952757,0.138477736747337,-298.34566789758
738472.43673861410934478045,3.71120334482864,0.11078218939787,-298.354899746696
738472.43673870456404983997,3.68350779747917,0.0830866420484024,-298.336436048463
738472.43673879501875489950,3.63734855189673,0.064622943815424,-298.34566789758
738472.43673888547345995903,3.64658040101321,0.064622943815424,-298.354899746696
738472.43673897581174969673,3.62811670278024,0.064622943815424,-298.281044953764
738472.43673906626645475626,3.62811670278024,0.064622943815424,-298.308740501114
738472.43673915672115981579,3.63734855189673,0.0553910946989349,-298.308740501114
738472.43673924717586487532,3.63734855189673,0.064622943815424,-298.308740501114
738472.43673933751415461302,3.63734855189673,0.0553910946989349,-298.299508651997
738472.43673942796885967255,3.64658040101321,0.0553910946989349,-298.327204199347
738472.43673951842356473207,3.6558122501297,0.0553910946989349,-298.364131595813
738472.43673960887826979160,3.66504409924619,0.064622943815424,-298.327204199347
738472.43673969921655952930,3.67427594836268,0.064622943815424,-298.364131595813
738472.43673978967126458883,3.6558122501297,0.064622943815424,-298.364131595813
738472.43673988012596964836,3.67427594836268,0.0830866420484024,-298.31797235023
738472.43673997058067470789,3.66504409924619,0.0738547929319132,-298.382595294046
738472.43674006091896444559,3.66504409924619,0.0738547929319132,-298.382595294046
738472.43674015137366950512,3.64658040101321,0.0553910946989349,-298.382595294046
738472.43674024182837456465,3.64658040101321,0.064622943815424,-298.373363444929
738472.43674033228307962418,3.62811670278024,0.0461592455824458,-298.327204199347
738472.43674042262136936188,3.62811670278024,0.0553910946989349,-298.364131595813
738472.43674051307607442141,3.62811670278024,0.0461592455824458,-298.354899746696
738472.43674060353077948093,3.60965300454726,0.0369273964659566,-298.354899746696
738472.43674069398548454046,3.60042115543077,0.0184636982329783,-298.354899746696
738472.43674078432377427816,3.60965300454726,0.0276955473494674,-298.373363444929
738472.43674087477847933769,3.60042115543077,0.0461592455824458,-298.336436048463
738472.43674096523318439722,3.59118930631428,0.0276955473494674,-298.336436048463
738472.43674105568788945675,3.58195745719779,0.0276955473494674,-298.281044953764
738472.43674114602617919445,3.5727256080813,0.0369273964659566,-298.382595294046
738472.43674123648088425398,3.60042115543077,0.0369273964659566,-298.410290841395
738472.43674132693558931351,3.5727256080813,0.00923184911648915,-298.336436048463
738472.43674141739029437304,3.58195745719779,0.0184636982329783,-298.382595294046
738472.43674150772858411074,3.56349375896481,0.00923184911648915,-298.373363444929
738472.43674159818328917027,3.59118930631428,0.0184636982329783,-298.354899746696
738472.43674168863799422979,3.5727256080813,0,-298.197958311716
738472.43674177909269928932,3.58195745719779,0.0184636982329783,-298.31797235023
738472.43674186943098902702,3.56349375896481,0.0184636982329783,-298.382595294046
738472.43674195988569408655,3.58195745719779,0.0276955473494674,-298.34566789758
738472.43674205034039914608,3.5727256080813,0.00923184911648915,-298.382595294046
738472.43674214079510420561,3.56349375896481,0,-298.382595294046
738472.43674223113339394331,3.5727256080813,0.0184636982329783,-298.364131595813
738472.43674232158809900284,3.58195745719779,0.0184636982329783,-298.391827143162
738472.43674241204280406237,3.58195745719779,0.0184636982329783,-298.391827143162
738472.43674250249750912189,3.56349375896481,0.0184636982329783,-298.373363444929
738472.43674259283579885960,3.59118930631428,0.0276955473494674,-298.364131595813
738472.43674268329050391912,3.5727256080813,0.0184636982329783,-298.391827143162
738472.43674277374520897865,3.58195745719779,0.0276955473494674,-298.382595294046
738472.43674286419991403818,3.59118930631428,0.0276955473494674,-298.327204199347
738472.43674295453820377588,3.67427594836268,0.0738547929319132,-298.382595294046
738472.43674304499290883541,3.68350779747917,0.0738547929319132,-298.391827143162
738472.43674313544761389494,3.73889889217811,0.0738547929319132,-298.308740501114
738472.43674322590231895447,3.73889889217811,0.0369273964659566,-298.327204199347
738472.43674331624060869217,3.78505813776055,0.0738547929319132,-298.31797235023
738472.43674340669531375170,3.78505813776055,0.0830866420484024,-298.299508651997
738472.43674349715001881123,3.75736259041108,0.0923184911648915,-298.327204199347
738472.43674358760472387075,3.72043519394513,0.0923184911648915,-298.327204199347
738472.43674367794301360846,3.70197149571215,0.0738547929319132,-298.31797235023
738472.43674376839771866798,3.63734855189673,0.0369273964659566,-298.364131595813
738472.43674385885242372751,3.60042115543077,0.0276955473494674,-298.382595294046
738472.43674394930712878704,3.60965300454726,0.0369273964659566,-298.382595294046
738472.43674403964541852474,3.56349375896481,0.00923184911648915,-298.34566789758
738472.43674413010012358427,3.56349375896481,0.0184636982329783,-298.373363444929
738472.43674422055482864380,3.55426190984832,0.0276955473494674,-298.373363444929
738472.43674431100953370333,3.54503006073183,0.0184636982329783,-298.281044953764
738472.43674440134782344103,3.53579821161534,0.00923184911648915,-298.373363444929
738472.43674449180252850056,3.55426190984832,0.0276955473494674,-298.373363444929
738472.43674458225723356009,3.52656636249886,0.0184636982329783,-298.354899746696
738472.43674467271193861961,3.52656636249886,0.0276955473494674,-298.382595294046
738472.43674476305022835732,3.47117526779992,0.0276955473494674,-298.382595294046
738472.43674485350493341684,3.47117526779992,0.0553910946989349,-298.373363444929
738472.43674494395963847637,3.58195745719779,0.0738547929319132,-298.327204199347
738472.43674503441434353590,3.89584032715842,0.11078218939787,-298.336436048463
738472.43674512475263327360,4.48667867061373,0.0738547929319132,-298.271813104648
738472.43674521520733833313,5.01289407025361,-0.101550340281381,-298.114871669668
738472.43674530566204339266,4.53283791619617,-0.193868831446272,-298.207190160833
738472.43674539600033313036,3.85891293069246,-0.258491775261696,-298.428754539628
738472.43674548645503818989,3.28653828547014,-0.369273964659566,-298.50260933256
738472.43674557690974324942,3.13882869960631,-0.156941434980316,-298.419522690512
738472.43674566736444830894,3.15729239783929,0.00923184911648915,-298.382595294046
738472.43674575770273804665,3.17575609607227,0.064622943815424,-298.373363444929
738472.43674584815744310617,3.32346568193609,0.101550340281381,-298.373363444929
738472.43674593861214816570,3.4896389660329,0.129245887630848,-298.299508651997
738472.43674602906685322523,3.64658040101321,0.156941434980316,-298.364131595813
738472.43674611940514296293,3.68350779747917,0.138477736747337,-298.364131595813
738472.43674620985984802246,3.70197149571215,0.147709585863826,-298.31797235023
738472.43674630031455308199,3.77582628864406,0.184636982329783,-298.354899746696
738472.43674639076925814152,3.56349375896481,-0.064622943815424,-298.382595294046
738472.43674648110754787922,3.61888485366375,-0.00923184911648915,-298.354899746696
738472.43674657156225293875,3.68350779747917,0.0369273964659566,-298.336436048463
738472.43674666201695799828,3.71120334482864,0.064622943815424,-298.373363444929
738472.43674675247166305780,3.73889889217811,0.0923184911648915,-298.364131595813
738472.43674684280995279551,3.76659443952757,0.0923184911648915,-298.299508651997
738472.43674693326465785503,3.78505813776055,0.0923184911648915,-298.364131595813
738472.43674702371936291456,3.81275368511002,0.11078218939787,-298.34566789758
738472.43674711417406797409,3.831217383343,0.120014038514359,-298.290276802881
738472.43674720451235771179,3.85891293069246,0.129245887630848,-298.354899746696
738472.43674729496706277132,3.87737662892544,0.138477736747337,-298.354899746696
738472.43674738542176783085,3.90507217627491,0.166173284096805,-298.327204199347
738472.43674747587647289038,3.92353587450789,0.184636982329783,-298.336436048463
738472.43674756621476262808,3.94199957274087,0.230796227912229,-298.34566789758
738472.43674765666946768761,3.93276772362438,0.230796227912229,-298.34566789758
738472.43674774712417274714,3.94199957274087,0.230796227912229,-298.34566789758
738472.43674783757887780666,3.96969512009033,0.249259926145207,-298.271813104648
738472.43674792791716754436,3.96046327097385,0.258491775261696,-298.327204199347
738472.43674801837187260389,3.96046327097385,0.276955473494675,-298.31797235023
738472.43674810882657766342,3.95123142185736,0.276955473494675,-298.308740501114
738472.43674819928128272295,3.96046327097385,0.267723624378185,-298.225653859066
738472.43674828961957246065,3.93276772362438,0.267723624378185,-298.327204199347
738472.43674838007427752018,3.9143040253914,0.249259926145207,-298.336436048463
738472.43674847052898257971,3.88660847804193,0.22156437879574,-298.336436048463
738472.43674856098368763924,3.85891293069246,0.203100680562761,-298.290276802881
738472.43674865132197737694,3.81275368511002,0.175405133213294,-298.34566789758
738472.43674874177668243647,3.78505813776055,0.147709585863826,-298.225653859066
738472.43674883223138749599,3.73889889217811,0.11078218939787,-298.216422009949
738472.43674892268609255552,3.72966704306162,0.101550340281381,-298.373363444929
738472.43674901302438229322,3.68350779747917,0.064622943815424,-298.373363444929
738472.43674910347908735275,3.69273964659566,0.064622943815424,-298.364131595813
738472.43674919393379241228,3.67427594836268,0.0369273964659566,-298.382595294046
738472.43674928438849747181,3.67427594836268,0.0553910946989349,-298.382595294046
738472.43674937472678720951,3.66504409924619,0.064622943815424,-298.391827143162
738472.43674946518149226904,3.67427594836268,0.0738547929319132,-298.354899746696
738472.43674955563619732857,3.68350779747917,0.0830866420484024,-298.364131595813
738472.43674964609090238810,3.66504409924619,0.0738547929319132,-298.382595294046
738472.43674973642919212580,3.68350779747917,0.0830866420484024,-298.373363444929
738472.43674982688389718533,3.67427594836268,0.0738547929319132,-298.308740501114
738472.43674991733860224485,3.69273964659566,0.064622943815424,-298.382595294046
738472.43675000779330730438,3.66504409924619,0.064622943815424,-298.382595294046
738472.43675009813159704208,3.68350779747917,0.0738547929319132,-298.364131595813
738472.43675018858630210161,3.66504409924619,0.064622943815424,-298.364131595813
738472.43675027904100716114,3.67427594836268,0.064622943815424,-298.373363444929
738472.43675036949571222067,3.64658040101321,0.0553910946989349,-298.373363444929
738472.43675045983400195837,3.6558122501297,0.0738547929319132,-298.34566789758
738472.43675055028870701790,3.62811670278024,0.064622943815424,-298.391827143162
738472.43675064074341207743,3.62811670278024,0.0461592455824458,-298.382595294046
738472.43675073119811713696,3.60965300454726,0.0369273964659566,-298.327204199347
738472.43675082153640687466,3.60965300454726,0.0369273964659566,-298.401058992279
738472.43675091199111193419,3.60042115543077,0.0184636982329783,-298.391827143162
738472.43675100244581699371,3.60042115543077,0.0276955473494674,-298.336436048463
738472.43675109290052205324,3.58195745719779,0.0276955473494674,-298.382595294046
738472.43675118323881179094,3.60042115543077,0.0461592455824458,-298.391827143162
738472.43675127369351685047,3.59118930631428,0.0184636982329783,-298.391827143162
738472.43675136414822191000,3.5727256080813,0,-298.382595294046
738472.43675145460292696953,3.59118930631428,0.00923184911648915,-298.391827143162
738472.43675154494121670723,3.58195745719779,0.0276955473494674,-298.382595294046
738472.43675163539592176676,3.58195745719779,0.0369273964659566,-298.382595294046
738472.43675172585062682629,3.5727256080813,0,-298.354899746696
738472.43675181630533188581,3.56349375896481,-0.0461592455824458,-298.401058992279
738472.43675190664362162352,3.59118930631428,0.064622943815424,-298.373363444929
738472.43675199709832668304,3.58195745719779,0.0830866420484024,-298.31797235023
738472.43675208755303174257,3.5727256080813,0.0553910946989349,-298.373363444929
738472.43675217800773680210,3.58195745719779,0.064622943815424,-298.382595294046
738472.43675226834602653980,3.5727256080813,0.0369273964659566,-298.244117557298
738472.43675235880073159933,3.5727256080813,0.0276955473494674,-298.290276802881
738472.43675244925543665886,3.59118930631428,0.0461592455824458,-298.391827143162
738472.43675253971014171839,3.59118930631428,0.0369273964659566,-298.382595294046
738472.43675263004843145609,3.62811670278024,0.0553910946989349,-298.336436048463
738472.43675272050313651562,3.68350779747917,0.0923184911648915,-298.382595294046
738472.43675281095784157515,3.72966704306162,0.120014038514359,-298.382595294046
738472.43675290141254663467,3.76659443952757,0.0738547929319132,-298.391827143162
738472.43675299175083637238,3.77582628864406,0.0553910946989349,-298.34566789758
738472.43675308220554143190,3.75736259041108,0.0738547929319132,-298.34566789758
738472.43675317266024649143,3.76659443952757,0.101550340281381,-298.327204199347
738472.43675326311495155096,3.75736259041108,0.0830866420484024,-298.373363444929
738472.43675335345324128866,3.73889889217811,0.101550340281381,-298.290276802881
738472.43675344390794634819,3.70197149571215,0.0461592455824458,-298.327204199347
738472.43675353436265140772,3.64658040101321,0,-298.410290841395
738472.43675362481735646725,3.60965300454726,0.0369273964659566,-298.391827143162
738472.43675371515564620495,3.58195745719779,0.0553910946989349,-298.364131595813
738472.43675380561035126448,3.56349375896481,0.0830866420484024,-298.354899746696
738472.43675389606505632401,3.54503006073183,0.0553910946989349,-298.437986388745
738472.43675398651976138353,3.53579821161534,0.0369273964659566,-298.419522690512
738472.43675407685805112123,3.52656636249886,0.0184636982329783,-298.31797235023
738472.43675416731275618076,3.52656636249886,0,-298.336436048463
738472.43675425776746124029,3.49887081514939,0.0184636982329783,-298.336436048463
738472.43675434822216629982,3.51733451338237,0.0276955473494674,-298.31797235023
738472.43675443856045603752,3.48040711691641,0.0184636982329783,-298.336436048463
738472.43675452901516109705,3.44347972045045,0.064622943815424,-298.382595294046
738472.43675461946986615658,3.54503006073183,0.0738547929319132,-298.336436048463
738472.43675470992457121611,3.75736259041108,0.101550340281381,-298.364131595813
738472.43675480026286095381,4.26511429181799,0.11078218939787,-298.327204199347
738472.43675489071756601334,5.05905331583605,-0.064622943815424,-298.271813104648
738472.43675498117227107286,4.97596667378765,-0.193868831446272,-298.290276802881
738472.43675507162697613239,4.62515640736106,-0.258491775261696,-298.327204199347
738472.43675516196526587009,3.90507217627491,-0.369273964659566,-298.437986388745
738472.43675525241997092962,3.19421979430525,-0.424665059358501,-298.484145634327
738472.43675534287467598915,3.07420575579089,-0.21233252967925,-298.447218237861
738472.43675543332938104868,3.12036500137333,-0.0184636982329783,-298.391827143162
738472.43675552366767078638,3.27730643635365,0.0369273964659566,-298.364131595813
738472.43675561412237584591,3.42501602221747,0.0369273964659566,-298.290276802881
738472.43675570457708090544,3.55426190984832,0.0830866420484024,-298.373363444929
738472.43675579503178596497,3.59118930631428,0.064622943815424,-298.262581255531
738472.43675588537007570267,3.61888485366375,0.064622943815424,-298.225653859066
738472.43675597582478076220,3.61888485366375,0.064622943815424,-298.373363444929
738472.43675606627948582172,3.6558122501297,0.0738547929319132,-298.364131595813
738472.43675615673419088125,3.6558122501297,0.064622943815424,-298.364131595813
738472.43675624707248061895,3.68350779747917,0.064622943815424,-298.244117557298
738472.43675633752718567848,3.69273964659566,0.0830866420484024,-298.290276802881
738472.43675642798189073801,3.72043519394513,0.0830866420484024,-298.327204199347
738472.43675651843659579754,3.72966704306162,0.0830866420484024,-298.336436048463
738472.43675660877488553524,3.77582628864406,0.11078218939787,-298.308740501114
738472.43675669922959059477,3.79428998687704,0.11078218939787,-298.290276802881
738472.43675678968429565430,3.81275368511002,0.11078218939787,-298.299508651997
738472.43675688013900071383,3.82198553422651,0.120014038514359,-298.336436048463
738472.43675697047729045153,3.84044923245949,0.129245887630848,-298.401058992279
738472.43675706093199551105,3.87737662892544,0.147709585863826,-298.299508651997
738472.43675715138670057058,3.89584032715842,0.175405133213294,-298.327204199347
738472.43675724184140563011,3.93276772362438,0.193868831446272,-298.354899746696
738472.43675733217969536781,3.93276772362438,0.203100680562761,-298.336436048463
738472.43675742263440042734,3.97892696920682,0.240028077028718,-298.290276802881
738472.43675751308910548687,3.98815881832331,0.249259926145207,-298.373363444929
738472.43675760354381054640,4.02508621478927,0.276955473494675,-298.34566789758
738472.43675769388210028410,4.00662251655629,0.258491775261696,-298.271813104648
738472.43675778433680534363,4.03431806390576,0.295419171727653,-298.299508651997
738472.43675787479151040316,4.00662251655629,0.313882869960631,-298.336436048463
738472.43675796524621546268,3.98815881832331,0.313882869960631,-298.271813104648
738472.43675805558450520039,3.96046327097385,0.286187322611164,-298.308740501114
738472.43675814603921025991,3.93276772362438,0.22156437879574,-298.354899746696
738472.43675823649391531944,3.85891293069246,0.21233252967925,-298.364131595813
738472.43675832683220505714,3.81275368511002,0.21233252967925,-298.308740501114
738472.43675841728691011667,3.76659443952757,0.175405133213294,-298.382595294046
738472.43675850774161517620,3.71120334482864,0.11078218939787,-298.364131595813
738472.43675859819632023573,3.67427594836268,0.0830866420484024,-298.308740501114
738472.43675868853460997343,3.64658040101321,0.0553910946989349,-298.373363444929
738472.43675877898931503296,3.63734855189673,0.0830866420484024,-298.382595294046
738472.43675886944402009249,3.59118930631428,0.064622943815424,-298.336436048463
738472.43675895989872515202,3.60042115543077,0.0461592455824458,-298.327204199347
738472.43675905023701488972,3.59118930631428,0.0553910946989349,-298.31797235023
738472.43675914069171994925,3.59118930631428,0.064622943815424,-298.31797235023
738472.43675923114642500877,3.59118930631428,0.0553910946989349,-298.308740501114
738472.43675932160113006830,3.60965300454726,0.0553910946989349,-298.290276802881
738472.43675941193941980600,3.60965300454726,0.0553910946989349,-298.271813104648
738472.43675950239412486553,3.61888485366375,0.064622943815424,-298.373363444929
738472.43675959284882992506,3.63734855189673,0.0553910946989349,-298.327204199347
738472.43675968330353498459,3.64658040101321,0.0276955473494674,-298.382595294046
738472.43675977364182472229,3.63734855189673,0.0369273964659566,-298.382595294046
738472.43675986409652978182,3.62811670278024,0.064622943815424,-298.364131595813
738472.43675995455123484135,3.63734855189673,0.064622943815424,-298.354899746696
738472.43676004500593990088,3.62811670278024,0.0553910946989349,-298.364131595813
738472.43676013534422963858,3.62811670278024,0.0369273964659566,-298.354899746696
738472.43676022579893469810,3.60965300454726,0.064622943815424,-298.31797235023
738472.43676031625363975763,3.61888485366375,0.0830866420484024,-298.364131595813
738472.43676040670834481716,3.59118930631428,0.0553910946989349,-298.327204199347
738472.43676049704663455486,3.60042115543077,0.0553910946989349,-298.31797235023
738472.43676058750133961439,3.58195745719779,0.0461592455824458,-298.336436048463
738472.43676067795604467392,3.58195745719779,0.0369273964659566,-298.327204199347
738472.43676076841074973345,3.56349375896481,0.0461592455824458,-298.373363444929
738472.43676085874903947115,3.56349375896481,0.0369273964659566,-298.327204199347
738472.43676094920374453068,3.56349375896481,0.0369273964659566,-298.327204199347
738472.43676103965844959021,3.55426190984832,0.0276955473494674,-298.336436048463
738472.43676113011315464973,3.55426190984832,0.0369273964659566,-298.354899746696
738472.43676122045144438744,3.55426190984832,0.0276955473494674,-298.354899746696
738472.43676131090614944696,3.56349375896481,0.0276955473494674,-298.364131595813
738472.43676140136085450649,3.54503006073183,0,-298.354899746696
738472.43676149181555956602,3.54503006073183,0.0184636982329783,-298.327204199347
738472.43676158215384930372,3.52656636249886,0.0369273964659566,-298.31797235023
738472.43676167260855436325,3.54503006073183,0.0184636982329783,-298.354899746696
738472.43676176306325942278,3.52656636249886,0.0184636982329783,-298.336436048463
738472.43676185351796448231,3.55426190984832,0.0369273964659566,-298.299508651997
738472.43676194385625422001,3.52656636249886,0,-298.391827143162
738472.43676203431095927954,3.53579821161534,0.00923184911648915,-298.428754539628
738472.43676212476566433907,3.54503006073183,0.00923184911648915,-298.401058992279
738472.43676221522036939859,3.60042115543077,0.0276955473494674,-298.373363444929
738472.43676230555865913630,3.62811670278024,0.064622943815424,-298.419522690512
738472.43676239601336419582,3.66504409924619,0.0830866420484024,-298.401058992279
738472.43676248646806925535,3.70197149571215,0.11078218939787,-298.382595294046
738472.43676257692277431488,3.70197149571215,0.0461592455824458,-298.401058992279
738472.43676266726106405258,3.74813074129459,0.064622943815424,-298.410290841395
738472.43676275771576911211,3.72043519394513,0.064622943815424,-298.410290841395
738472.43676284817047417164,3.72043519394513,0.0923184911648915,-298.31797235023
738472.43676293862517923117,3.69273964659566,0.0738547929319132,-298.31797235023
738472.43676302896346896887,3.70197149571215,0.0738547929319132,-298.382595294046
738472.43676311941817402840,3.60042115543077,0.0276955473494674,-298.308740501114
738472.43676320987287908792,3.5727256080813,0.0461592455824458,-298.391827143162
738472.43676330032758414745,3.53579821161534,0,-298.391827143162
738472.43676339066587388515,3.52656636249886,0.00923184911648915,-298.354899746696
738472.43676348112057894468,3.49887081514939,0.0184636982329783,-298.354899746696
738472.43676357157528400421,3.49887081514939,0.0184636982329783,-298.391827143162
738472.43676366202998906374,3.4896389660329,0,-298.410290841395
738472.43676375236827880144,3.49887081514939,0.00923184911648915,-298.281044953764
738472.43676384282298386097,3.47117526779992,0,-298.308740501114
738472.43676393327768892050,3.48040711691641,0.00923184911648915,-298.31797235023
738472.43676402373239398003,3.47117526779992,-0.00923184911648915,-298.290276802881
738472.43676411407068371773,3.41578417310099,0,-298.31797235023
738472.43676420452538877726,3.48040711691641,0.064622943815424,-298.354899746696
738472.43676429498009383678,3.54503006073183,0.11078218939787,-298.354899746696
738472.43676438543479889631,3.84968108157598,0.156941434980316,-298.281044953764
738472.43676447577308863401,4.44051942503128,0.0553910946989349,-298.327204199347
738472.43676456622779369354,5.14213995788446,-0.138477736747337,-298.336436048463
738472.43676465668249875307,4.71747489852596,-0.276955473494675,-298.281044953764
738472.43676474713720381260,4.00662251655629,-0.378505813776055,-298.419522690512
738472.43676483747549355030,3.27730643635365,-0.480056154057436,-298.511841181677
738472.43676492793019860983,3.04651020844142,-0.295419171727653,-298.484145634327
738472.43676501838490366936,3.07420575579089,-0.0738547929319132,-298.382595294046
738472.43676510883960872889,3.2311471907712,0.0184636982329783,-298.373363444929
738472.43676519917789846659,3.36962492751854,0.0276955473494674,-298.391827143162
738472.43676528963260352612,3.49887081514939,0.064622943815424,-298.31797235023
738472.43676538008730858564,3.54503006073183,0.0461592455824458,-298.401058992279
738472.43676547054201364517,3.5727256080813,0.0553910946989349,-298.327204199347
738472.43676556088030338287,3.59118930631428,0.0553910946989349,-298.327204199347
738472.43676565133500844240,3.60965300454726,0.0553910946989349,-298.391827143162
738472.43676574178971350193,3.61888485366375,0.0553910946989349,-298.401058992279
738472.43676583224441856146,3.61888485366375,0.064622943815424,-298.327204199347
738472.43676592258270829916,3.6558122501297,0.0738547929319132,-298.391827143162
738472.43676601303741335869,3.67427594836268,0.0738547929319132,-298.410290841395
738472.43676610349211841822,3.68350779747917,0.0738547929319132,-298.382595294046
738472.43676619394682347775,3.69273964659566,0.0738547929319132,-298.327204199347
738472.43676628428511321545,3.72043519394513,0.0923184911648915,-298.373363444929
738472.43676637473981827497,3.72966704306162,0.0923184911648915,-298.336436048463
738472.43676646519452333450,3.76659443952757,0.120014038514359,-298.197958311716
738472.43676655564922839403,3.80352183599353,0.129245887630848,-298.336436048463
738472.43676664598751813173,3.831217383343,0.147709585863826,-298.391827143162
738472.43676673644222319126,3.84044923245949,0.166173284096805,-298.382595294046
738472.43676682689692825079,3.85891293069246,0.175405133213294,-298.364131595813
738472.43676691735163331032,3.90507217627491,0.21233252967925,-298.31797235023
738472.43676700768992304802,3.92353587450789,0.230796227912229,-298.391827143162
738472.43676709814462810755,3.96969512009033,0.258491775261696,-298.382595294046
738472.43676718859933316708,3.96046327097385,0.276955473494675,-298.271813104648
738472.43676727905403822660,3.96969512009033,0.295419171727653,-298.336436048463
738472.43676736939232796431,3.97892696920682,0.304651020844142,-298.354899746696
738472.43676745984703302383,3.98815881832331,0.32311471907712,-298.327204199347
738472.43676755030173808336,3.95123142185736,0.295419171727653,-298.327204199347
738472.43676764075644314289,3.95123142185736,0.295419171727653,-298.364131595813
738472.43676773109473288059,3.88660847804193,0.249259926145207,-298.354899746696
738472.43676782154943794012,3.84968108157598,0.230796227912229,-298.299508651997
738472.43676791200414299965,3.82198553422651,0.21233252967925,-298.299508651997
738472.43676800245884805918,3.75736259041108,0.175405133213294,-298.299508651997
738472.43676809279713779688,3.72043519394513,0.138477736747337,-298.299508651997
738472.43676818325184285641,3.67427594836268,0.11078218939787,-298.31797235023
738472.43676827370654791594,3.62811670278024,0.0830866420484024,-298.327204199347
738472.43676836416125297546,3.58195745719779,0.064622943815424,-298.382595294046
738472.43676845449954271317,3.5727256080813,0.0553910946989349,-298.382595294046
738472.43676854495424777269,3.56349375896481,0.0461592455824458,-298.382595294046
738472.43676863540895283222,3.56349375896481,0.0461592455824458,-298.382595294046
738472.43676872586365789175,3.54503006073183,0.0369273964659566,-298.364131595813
738472.43676881620194762945,3.5727256080813,0.0553910946989349,-298.34566789758
738472.43676890665665268898,3.56349375896481,0.0461592455824458,-298.34566789758
738472.43676899711135774851,3.58195745719779,0.0553910946989349,-298.327204199347
738472.43676908756606280804,3.58195745719779,0.0553910946989349,-298.410290841395
738472.43676917790435254574,3.60042115543077,0.064622943815424,-298.437986388745
738472.43676926835905760527,3.60042115543077,0.0553910946989349,-298.336436048463
738472.43676935881376266479,3.61888485366375,0.064622943815424,-298.382595294046
738472.43676944926846772432,3.60042115543077,0.0553910946989349,-298.391827143162
738472.43676953960675746202,3.60965300454726,0.064622943815424,-298.364131595813
738472.43676963006146252155,3.59118930631428,0.0553910946989349,-298.382595294046
738472.43676972051616758108,3.60042115543077,0.0553910946989349,-298.382595294046
738472.43676981097087264061,3.60042115543077,0.0553910946989349,-298.382595294046
738472.43676990130916237831,3.56349375896481,0.0461592455824458,-298.354899746696
738472.43676999176386743784,3.5727256080813,0.0461592455824458,-298.253349406415
738472.43677008221857249737,3.56349375896481,0.0369273964659566,-298.336436048463
738472.43677017267327755690,3.55426190984832,0.0369273964659566,-298.373363444929
738472.43677026301156729460,3.52656636249886,0.0276955473494674,-298.382595294046
738472.43677035346627235413,3.54503006073183,0.0369273964659566,-298.327204199347
738472.43677044392097741365,3.51733451338237,0.0184636982329783,-298.391827143162
738472.43677053437568247318,3.53579821161534,0.0369273964659566,-298.401058992279
738472.43677062471397221088,3.50810266426588,0.0184636982329783,-298.354899746696
738472.43677071516867727041,3.52656636249886,0.0276955473494674,-298.391827143162
738472.43677080562338232994,3.51733451338237,0.0276955473494674,-298.401058992279
738472.43677089607808738947,3.52656636249886,0.0184636982329783,-298.382595294046
738472.43677098641637712717,3.49887081514939,0.00923184911648915,-298.373363444929
738472.43677107687108218670,3.49887081514939,0.00923184911648915,-298.401058992279
738472.43677116732578724623,3.50810266426588,0.0184636982329783,-298.401058992279
738472.43677125766407698393,3.49887081514939,0.0184636982329783,-298.336436048463
738472.43677134811878204346,3.49887081514939,0.00923184911648915,-298.401058992279
738472.43677143857348710299,3.51733451338237,0.0184636982329783,-298.401058992279
738472.43677152902819216251,3.50810266426588,0.00923184911648915,-298.34566789758
738472.43677161936648190022,3.49887081514939,0.00923184911648915,-298.364131595813
738472.43677170982118695974,3.52656636249886,0.0184636982329783,-298.401058992279
738472.43677180027589201927,3.50810266426588,0.0184636982329783,-298.401058992279
738472.43677189073059707880,3.52656636249886,0.0184636982329783,-298.327204199347
738472.43677198106888681650,3.50810266426588,0,-298.401058992279
738472.43677207152359187603,3.53579821161534,0.0184636982329783,-298.391827143162
738472.43677216197829693556,3.53579821161534,0.0184636982329783,-298.373363444929
738472.43677225243300199509,3.60042115543077,0.0461592455824458,-298.401058992279
738472.43677234277129173279,3.6558122501297,0.064622943815424,-298.401058992279
738472.43677243322599679232,3.67427594836268,0.0738547929319132,-298.401058992279
738472.43677252368070185184,3.69273964659566,0.0369273964659566,-298.34566789758
738472.43677261413540691137,3.72043519394513,0.0553910946989349,-298.410290841395
738472.43677270447369664907,3.72043519394513,0.0738547929319132,-298.401058992279
738472.43677279492840170860,3.70197149571215,0.064622943815424,-298.336436048463
738472.43677288538310676813,3.67427594836268,0.064622943815424,-298.391827143162
738472.43677297583781182766,3.64658040101321,0.0461592455824458,-298.401058992279
738472.43677306617610156536,3.59118930631428,0.0184636982329783,-298.354899746696
738472.43677315663080662489,3.54503006073183,0.00923184911648915,-298.410290841395
738472.43677324708551168442,3.54503006073183,0.0184636982329783,-298.401058992279
738472.43677333754021674395,3.49887081514939,0,-298.391827143162
738472.43677342787850648165,3.49887081514939,0,-298.290276802881
738472.43677351833321154118,3.48040711691641,-0.0184636982329783,-298.216422009949
738472.43677360878791660070,3.47117526779992,-0.0184636982329783,-298.336436048463
738472.43677369924262166023,3.46194341868343,-0.0184636982329783,-298.299508651997
738472.43677378958091139793,3.48040711691641,-0.00923184911648915,-298.299508651997
738472.43677388003561645746,3.45271156956694,-0.00923184911648915,-298.34566789758
738472.43677397049032151699,3.45271156956694,-0.0184636982329783,-298.327204199347
738472.43677406094502657652,3.42501602221747,0,-298.373363444929
738472.43677415128331631422,3.4065523239845,0.0276955473494674,-298.327204199347
738472.43677424173802137375,3.55426190984832,0.0738547929319132,-298.34566789758
738472.43677433219272643328,3.85891293069246,0.11078218939787,-298.354899746696
738472.43677442264743149281,4.48667867061373,0.0553910946989349,-298.253349406415
738472.43677451298572123051,5.03135776848659,-0.138477736747337,-298.262581255531
738472.43677460344042629004,4.58822901089511,-0.249259926145207,-298.336436048463
738472.43677469389513134956,3.86814477980895,-0.360042115543077,-298.428754539628
738472.43677478434983640909,3.24961088900418,-0.43389690847499,-298.493377483444
738472.43677487468812614679,3.04651020844142,-0.258491775261696,-298.456450086978
738472.43677496514283120632,3.07420575579089,-0.0461592455824458,-298.391827143162
738472.43677505559753626585,3.18498794518876,0.0276955473494674,-298.34566789758
738472.43677514605224132538,3.35116122928556,0.0184636982329783,-298.419522690512
738472.43677523639053106308,3.48040711691641,0.0461592455824458,-298.437986388745
738472.43677532684523612261,3.52656636249886,0.0553910946989349,-298.410290841395
738472.43677541729994118214,3.56349375896481,0.0553910946989349,-298.428754539628
738472.43677550775464624166,3.5727256080813,0.0553910946989349,-298.419522690512
738472.43677559809293597937,3.60965300454726,0.0553910946989349,-298.465681936094
738472.43677568854764103889,3.61888485366375,0.064622943815424,-298.31797235023
738472.43677577900234609842,3.63734855189673,0.0553910946989349,-298.428754539628
738472.43677586945705115795,3.64658040101321,0.0553910946989349,-298.428754539628
738472.43677595979534089565,3.69273964659566,0.064622943815424,-298.410290841395
738472.43677605025004595518,3.69273964659566,0.064622943815424,-298.391827143162
738472.43677614070475101471,3.72966704306162,0.0923184911648915,-298.382595294046
738472.43677623115945607424,3.73889889217811,0.0923184911648915,-298.364131595813
738472.43677632149774581194,3.76659443952757,0.11078218939787,-298.364131595813
738472.43677641195245087147,3.78505813776055,0.120014038514359,-298.391827143162
738472.43677650240715593100,3.81275368511002,0.138477736747337,-298.364131595813
738472.43677659286186099052,3.831217383343,0.147709585863826,-298.31797235023
738472.43677668320015072823,3.86814477980895,0.166173284096805,-298.373363444929
738472.43677677365485578775,3.87737662892544,0.193868831446272,-298.364131595813
738472.43677686410956084728,3.9143040253914,0.21233252967925,-298.31797235023
738472.43677695456426590681,3.92353587450789,0.22156437879574,-298.170262764367
738472.43677704490255564451,3.94199957274087,0.249259926145207,-298.290276802881
738472.43677713535726070404,3.96046327097385,0.258491775261696,-298.354899746696
738472.43677722581196576357,3.96046327097385,0.267723624378185,-298.34566789758
738472.43677731626667082310,3.97892696920682,0.267723624378185,-298.354899746696
738472.43677740660496056080,3.96046327097385,0.267723624378185,-298.290276802881
738472.43677749705966562033,3.97892696920682,0.276955473494675,-298.34566789758
738472.43677758751437067986,3.95123142185736,0.267723624378185,-298.290276802881
738472.43677767796907573938,3.93276772362438,0.258491775261696,-298.354899746696
738472.43677776830736547709,3.88660847804193,0.230796227912229,-298.354899746696
738472.43677785876207053661,3.87737662892544,0.21233252967925,-298.31797235023
738472.43677794921677559614,3.81275368511002,0.166173284096805,-298.336436048463
738472.43677803967148065567,3.76659443952757,0.147709585863826,-298.373363444929
738472.43677813000977039337,3.71120334482864,0.11078218939787,-298.391827143162
738472.43677822046447545290,3.68350779747917,0.101550340281381,-298.336436048463
738472.43677831091918051243,3.64658040101321,0.0738547929319132,-298.401058992279
738472.43677840137388557196,3.62811670278024,0.064622943815424,-298.401058992279
738472.43677849171217530966,3.61888485366375,0.0553910946989349,-298.364131595813
738472.43677858216688036919,3.62811670278024,0.064622943815424,-298.401058992279
738472.43677867262158542871,3.60965300454726,0.0553910946989349,-298.410290841395
738472.43677876307629048824,3.61888485366375,0.0461592455824458,-298.401058992279
738472.43677885341458022594,3.62811670278024,0.0553910946989349,-298.354899746696
738472.43677894386928528547,3.63734855189673,0.064622943815424,-298.327204199347
738472.43677903432399034500,3.64658040101321,0.0738547929319132,-298.364131595813
738472.43677912477869540453,3.6558122501297,0.0738547929319132,-298.281044953764
738472.43677921511698514223,3.6558122501297,0.0738547929319132,-298.327204199347
738472.43677930557169020176,3.64658040101321,0.0461592455824458,-298.299508651997
738472.43677939602639526129,3.6558122501297,0.0830866420484024,-298.34566789758
738472.43677948648110032082,3.64658040101321,0.0830866420484024,-298.34566789758
738472.43677957681939005852,3.64658040101321,0.0461592455824458,-298.31797235023
738472.43677966727409511805,3.62811670278024,0.0276955473494674,-298.401058992279
738472.43677975772880017757,3.63734855189673,0.0738547929319132,-298.410290841395
738472.43677984818350523710,3.62811670278024,0.0738547929319132,-298.364131595813
738472.43677993852179497480,3.60042115543077,0.0553910946989349,-298.401058992279
738472.43678002897650003433,3.60965300454726,0.064622943815424,-298.419522690512
738472.43678011943120509386,3.59118930631428,0.0369273964659566,-298.401058992279
738472.43678020988591015339,3.58195745719779,0.0369273964659566,-298.391827143162
738472.43678030022419989109,3.5727256080813,0.0461592455824458,-298.410290841395
738472.43678039067890495062,3.5727256080813,0.0369273964659566,-298.401058992279
738472.43678048113361001015,3.5727256080813,0.0369273964659566,-298.216422009949
738472.43678057158831506968,3.5727256080813,0.0461592455824458,-298.336436048463
738472.43678066192660480738,3.55426190984832,0.0461592455824458,-298.401058992279
738472.43678075238130986691,3.56349375896481,0.0461592455824458,-298.401058992279
738472.43678084283601492643,3.55426190984832,0.0369273964659566,-298.373363444929
738472.43678093329071998596,3.55426190984832,0.0369273964659566,-298.410290841395
738472.43678102362900972366,3.53579821161534,0.0276955473494674,-298.401058992279
738472.43678111408371478319,3.55426190984832,0.0369273964659566,-298.410290841395
738472.43678120453841984272,3.56349375896481,0.0369273964659566,-298.364131595813
738472.43678129499312490225,3.55426190984832,0.0276955473494674,-298.401058992279
738472.43678138533141463995,3.60965300454726,0.0553910946989349,-298.401058992279
738472.43678147578611969948,3.64658040101321,0.064622943815424,-298.327204199347
738472.43678156624082475901,3.70197149571215,0.11078218939787,-298.401058992279
738472.43678165669552981853,3.70197149571215,0.064622943815424,-298.419522690512
738472.43678174703381955624,3.74813074129459,0.064622943815424,-298.419522690512
738472.43678183748852461576,3.73889889217811,0.0830866420484024,-298.373363444929
738472.43678192794322967529,3.74813074129459,0.0738547929319132,-298.410290841395
738472.43678201839793473482,3.70197149571215,0.11078218939787,-298.391827143162
738472.43678210873622447252,3.66504409924619,0.0923184911648915,-298.327204199347
738472.43678219919092953205,3.62811670278024,0.064622943815424,-298.391827143162
738472.43678228964563459158,3.5727256080813,0.0276955473494674,-298.401058992279
738472.43678238010033965111,3.56349375896481,0.0369273964659566,-298.327204199347
738472.43678247043862938881,3.53579821161534,0.0369273964659566,-298.382595294046
738472.43678256089333444834,3.50810266426588,0.0184636982329783,-298.382595294046
738472.43678265134803950787,3.51733451338237,0.0369273964659566,-298.382595294046
738472.43678274180274456739,3.51733451338237,0.0276955473494674,-298.401058992279
738472.43678283214103430510,3.4896389660329,0.00923184911648915,-298.391827143162
738472.43678292259573936462,3.49887081514939,0.0276955473494674,-298.34566789758
738472.43678301305044442415,3.47117526779992,0.0184636982329783,-298.364131595813
738472.43678310350514948368,3.49887081514939,0,-298.410290841395
738472.43678319384343922138,3.46194341868343,0,-298.391827143162
738472.43678328429814428091,3.42501602221747,0.064622943815424,-298.34566789758
738472.43678337475284934044,3.46194341868343,0.0553910946989349,-298.336436048463
738472.43678346520755439997,3.62811670278024,0.0738547929319132,-298.373363444929
738472.43678355554584413767,4.01585436567278,0.11078218939787,-298.373363444929
738472.43678364600054919720,4.74517044587542,0.0184636982329783,-298.34566789758
738472.43678373645525425673,4.92057557908872,-0.175405133213294,-298.308740501114
738472.43678382679354399443,4.24665059358501,-0.230796227912229,-298.401058992279
738472.43678391724824905396,3.59118930631428,-0.360042115543077,-298.53030487991
738472.43678400770295411348,3.10190130314035,-0.32311471907712,-298.336436048463
738472.43678409815765917301,3.0649739066744,-0.120014038514359,-298.410290841395
738472.43678418849594891071,3.10190130314035,0.0461592455824458,-298.447218237861
738472.43678427895065397024,3.22191534165471,0.0461592455824458,-298.364131595813
738472.43678436940535902977,3.37885677663503,0.0369273964659566,-298.428754539628
738472.43678445986006408930,3.51733451338237,0.0738547929319132,-298.447218237861
738472.43678455019835382700,3.53579821161534,0.0738547929319132,-298.437986388745
738472.43678464065305888653,3.56349375896481,0.0738547929319132,-298.354899746696
738472.43678473110776394606,3.60042115543077,0.064622943815424,-298.428754539628
738472.43678482156246900558,3.62811670278024,0.0830866420484024,-298.401058992279
738472.43678491190075874329,3.62811670278024,0.0369273964659566,-298.34566789758
738472.43678500235546380281,3.64658040101321,0.064622943815424,-298.401058992279
738472.43678509281016886234,3.67427594836268,0.0923184911648915,-298.391827143162
738472.43678518326487392187,3.69273964659566,0.0923184911648915,-298.373363444929
738472.43678527360316365957,3.71120334482864,0.0830866420484024,-298.382595294046
738472.43678536405786871910,3.74813074129459,0.0923184911648915,-298.391827143162
738472.43678545451257377863,3.74813074129459,0.0830866420484024,-298.391827143162
738472.43678554496727883816,3.77582628864406,0.129245887630848,-298.336436048463
738472.43678563530556857586,3.79428998687704,0.138477736747337,-298.382595294046
738472.43678572576027363539,3.82198553422651,0.147709585863826,-298.364131595813
738472.43678581621497869492,3.84968108157598,0.147709585863826,-298.336436048463
738472.43678590666968375444,3.85891293069246,0.166173284096805,-298.373363444929
738472.43678599700797349215,3.90507217627491,0.22156437879574,-298.373363444929
738472.43678608746267855167,3.90507217627491,0.230796227912229,-298.31797235023
738472.43678617791738361120,3.93276772362438,0.240028077028718,-298.364131595813
738472.43678626837208867073,3.94199957274087,0.249259926145207,-298.34566789758
738472.43678635871037840843,3.94199957274087,0.276955473494675,-298.34566789758
738472.43678644916508346796,3.92353587450789,0.276955473494675,-298.299508651997
738472.43678653961978852749,3.93276772362438,0.286187322611164,-298.34566789758
738472.43678663007449358702,3.93276772362438,0.286187322611164,-298.34566789758
738472.43678672041278332472,3.94199957274087,0.295419171727653,-298.31797235023
738472.43678681086748838425,3.90507217627491,0.258491775261696,-298.354899746696
738472.43678690132219344378,3.87737662892544,0.240028077028718,-298.364131595813
738472.43678699177689850330,3.84044923245949,0.22156437879574,-298.364131595813
738472.43678708211518824100,3.78505813776055,0.193868831446272,-298.271813104648
738472.43678717256989330053,3.75736259041108,0.166173284096805,-298.336436048463
738472.43678726302459836006,3.71120334482864,0.129245887630848,-298.336436048463
738472.43678735347930341959,3.70197149571215,0.11078218939787,-298.308740501114
738472.43678744381759315729,3.63734855189673,0.0830866420484024,-298.354899746696
738472.43678753427229821682,3.62811670278024,0.064622943815424,-298.225653859066
738472.43678762472700327635,3.60965300454726,0.0553910946989349,-298.299508651997
738472.43678771518170833588,3.61888485366375,0.0738547929319132,-298.364131595813
738472.43678780551999807358,3.61888485366375,0.0461592455824458,-298.373363444929
738472.43678789597470313311,3.61888485366375,0.064622943815424,-298.410290841395
738472.43678798642940819263,3.62811670278024,0.0738547929319132,-298.401058992279
738472.43678807688411325216,3.63734855189673,0.0738547929319132,-298.354899746696
738472.43678816722240298986,3.61888485366375,0.064622943815424,-298.391827143162
738472.43678825767710804939,3.62811670278024,0.0738547929319132,-298.410290841395
738472.43678834813181310892,3.64658040101321,0.0923184911648915,-298.391827143162
738472.43678843858651816845,3.64658040101321,0.0738547929319132,-298.382595294046
738472.43678852892480790615,3.61888485366375,0.0738547929319132,-298.410290841395
738472.43678861937951296568,3.63734855189673,0.0830866420484024,-298.419522690512
738472.43678870983421802521,3.62811670278024,0.0830866420484024,-298.373363444929
738472.43678880028892308474,3.61888485366375,0.0830866420484024,-298.410290841395
738472.43678889062721282244,3.60042115543077,0.0553910946989349,-298.419522690512
738472.43678898108191788197,3.59118930631428,0.0369273964659566,-298.373363444929
738472.43678907153662294149,3.59118930631428,0.0461592455824458,-298.419522690512
738472.43678916199132800102,3.56349375896481,0.0461592455824458,-298.419522690512
738472.43678925232961773872,3.5727256080813,0.0461592455824458,-298.410290841395
738472.43678934278432279825,3.55426190984832,0.0461592455824458,-298.391827143162
738472.43678943323902785778,3.58195745719779,0.0553910946989349,-298.419522690512
738472.43678952369373291731,3.53579821161534,0.0369273964659566,-298.419522690512
738472.43678961403202265501,3.54503006073183,0.0184636982329783,-298.364131595813
738472.43678970448672771454,3.55426190984832,0,-298.410290841395
738472.43678979494143277407,3.56349375896481,0.0553910946989349,-298.410290841395
738472.43678988539613783360,3.53579821161534,0.0738547929319132,-298.382595294046
738472.43678997573442757130,3.54503006073183,0.0461592455824458,-298.373363444929
738472.43679006618913263083,3.55426190984832,0.0369273964659566,-298.428754539628
738472.43679015664383769035,3.51733451338237,0.00923184911648915,-298.401058992279
738472.43679024709854274988,3.55426190984832,0.0369273964659566,-298.391827143162
738472.43679033743683248758,3.53579821161534,0.0461592455824458,-298.382595294046
738472.43679042789153754711,3.55426190984832,0.0461592455824458,-298.382595294046
738472.43679051834624260664,3.52656636249886,0.0184636982329783,-298.382595294046
738472.43679060880094766617,3.54503006073183,0.0276955473494674,-298.373363444929
738472.43679069913923740387,3.53579821161534,0.0369273964659566,-298.354899746696
738472.43679078959394246340,3.53579821161534,0.0276955473494674,-298.364131595813
738472.43679088004864752293,3.52656636249886,0.0276955473494674,-298.410290841395
738472.43679097050335258245,3.54503006073183,0.0276955473494674,-298.373363444929
738472.43679106084164232016,3.53579821161534,0.0184636982329783,-298.281044953764
738472.43679115129634737968,3.56349375896481,0.0553910946989349,-298.281044953764
738472.43679124175105243921,3.55426190984832,0.00923184911648915,-298.373363444929
738472.43679133220575749874,3.62811670278024,0.0461592455824458,-298.382595294046
738472.43679142254404723644,3.67427594836268,0.120014038514359,-298.382595294046
738472.43679151299875229597,3.70197149571215,0.120014038514359,-298.308740501114
738472.43679160345345735550,3.71120334482864,0.064622943815424,-298.428754539628
738472.43679169390816241503,3.72966704306162,0.0738547929319132,-298.419522690512
738472.43679178424645215273,3.74813074129459,0.11078218939787,-298.419522690512
738472.43679187470115721226,3.70197149571215,0.0738547929319132,-298.354899746696
738472.43679196515586227179,3.70197149571215,0.0830866420484024,-298.419522690512
738472.43679205561056733131,3.68350779747917,0.101550340281381,-298.34566789758
738472.43679214594885706902,3.66504409924619,0.0830866420484024,-298.327204199347
738472.43679223640356212854,3.56349375896481,-0.0184636982329783,-298.354899746696
738472.43679232685826718807,3.56349375896481,0.0184636982329783,-298.354899746696
738472.43679241731297224760,3.52656636249886,0.0553910946989349,-298.354899746696
738472.43679250765126198530,3.51733451338237,0.064622943815424,-298.382595294046
738472.43679259810596704483,3.50810266426588,0.0369273964659566,-298.401058992279
738472.43679268856067210436,3.4896389660329,-0.0276955473494674,-298.465681936094
738472.43679277901537716389,3.4896389660329,0.0276955473494674,-298.364131595813
738472.43679286935366690159,3.49887081514939,0.0461592455824458,-298.437986388745
738472.43679295980837196112,3.49887081514939,-0.00923184911648915,-298.447218237861
738472.43679305026307702065,3.47117526779992,-0.0369273964659566,-298.364131595813
738472.43679314071778208017,3.45271156956694,0.0923184911648915,-298.465681936094
738472.43679323105607181787,3.44347972045045,0.147709585863826,-298.437986388745
738472.43679332151077687740,3.5727256080813,0.138477736747337,-298.401058992279
738472.43679341196548193693,3.87737662892544,0.147709585863826,-298.364131595813
738472.43679350242018699646,4.53283791619617,0.0738547929319132,-298.373363444929
738472.43679359275847673416,5.14213995788446,-0.0923184911648915,-298.31797235023
738472.43679368321318179369,4.71747489852596,-0.193868831446272,-298.31797235023
738472.43679377366788685322,4.26511429181799,-0.286187322611164,-298.401058992279
738472.43679386412259191275,3.54503006073183,-0.443128757591479,-298.511841181677
738472.43679395446088165045,3.05574205755791,-0.332346568193609,-298.521073030793
738472.43679404491558670998,3.09266945402387,-0.0830866420484024,-298.401058992279
738472.43679413537029176950,3.21268349253822,0.101550340281381,-298.410290841395
738472.43679422582499682903,3.27730643635365,0.0461592455824458,-298.410290841395
738472.43679431616328656673,3.41578417310099,0.0369273964659566,-298.364131595813
738472.43679440661799162626,3.49887081514939,0.0553910946989349,-298.410290841395
738472.43679449707269668579,3.55426190984832,0.0553910946989349,-298.410290841395
738472.43679458752740174532,3.55426190984832,0.0461592455824458,-298.308740501114
738472.43679467786569148302,3.61888485366375,0.064622943815424,-298.31797235023
738472.43679476832039654255,3.60965300454726,0.0830866420484024,-298.401058992279
738472.43679485877510160208,3.72966704306162,0.184636982329783,-298.391827143162
738472.43679494922980666161,3.73889889217811,0.166173284096805,-298.34566789758
738472.43679503956809639931,3.55426190984832,-0.0553910946989349,-298.410290841395
738472.43679513002280145884,3.60042115543077,-0.0553910946989349,-298.401058992279
738472.43679522047750651836,3.69273964659566,0.0553910946989349,-298.31797235023
738472.43679531093221157789,3.73889889217811,0.193868831446272,-298.364131595813
738472.43679540127050131559,3.74813074129459,0.0923184911648915,-298.373363444929
738472.43679549172520637512,3.72966704306162,0.064622943815424,-298.31797235023
738472.43679558217991143465,3.77582628864406,0.120014038514359,-298.336436048463
738472.43679567263461649418,3.79428998687704,0.11078218939787,-298.364131595813
738472.43679576297290623188,3.90507217627491,0.22156437879574,-298.354899746696
738472.43679585342761129141,3.94199957274087,0.249259926145207,-298.253349406415
738472.43679594388231635094,3.89584032715842,0.240028077028718,-298.364131595813
738472.43679603433702141047,3.89584032715842,0.193868831446272,-298.364131595813
738472.43679612467531114817,3.95123142185736,0.21233252967925,-298.354899746696
738472.43679621513001620770,3.96969512009033,0.240028077028718,-298.354899746696
738472.43679630558472126722,4.15433210242012,0.424665059358501,-298.34566789758
738472.43679639603942632675,4.0804773094882,0.406201361125523,-298.354899746696
738472.43679648637771606445,3.95123142185736,0.203100680562761,-298.31797235023
738472.43679657683242112398,3.77582628864406,0.0276955473494674,-298.364131595813
738472.43679666728712618351,3.84968108157598,0.249259926145207,-298.290276802881
738472.43679675762541592121,3.88660847804193,0.267723624378185,-298.253349406415
738472.43679684808012098074,3.9143040253914,0.267723624378185,-298.308740501114
738472.43679693853482604027,3.93276772362438,0.21233252967925,-298.327204199347
738472.43679702898953109980,3.74813074129459,0.166173284096805,-298.308740501114
738472.43679711932782083750,3.71120334482864,0.064622943815424,-298.401058992279
738472.43679720978252589703,3.77582628864406,0.175405133213294,-298.391827143162
738472.43679730023723095655,3.69273964659566,0.147709585863826,-298.401058992279
738472.43679739069193601608,3.81275368511002,0.230796227912229,-298.354899746696
738472.43679748103022575378,3.61888485366375,0.0830866420484024,-298.419522690512
738472.43679757148493081331,3.36962492751854,-0.175405133213294,-298.456450086978
738472.43679766193963587284,3.49887081514939,-0.0461592455824458,-298.428754539628
738472.43679775239434093237,3.55426190984832,0.129245887630848,-298.401058992279
738472.43679784273263067007,3.49887081514939,-0.0553910946989349,-298.437986388745
738472.43679793318733572960,3.62811670278024,-0.0184636982329783,-298.437986388745
738472.43679802364204078913,3.54503006073183,-0.0738547929319132,-298.419522690512
738472.43679811409674584866,3.59118930631428,0.147709585863826,-298.327204199347
738472.43679820443503558636,3.50810266426588,0.0553910946989349,-298.308740501114
738472.43679829488974064589,3.54503006073183,0.0369273964659566,-298.401058992279
738472.43679838534444570541,3.55426190984832,0,-298.419522690512
738472.43679847579915076494,3.58195745719779,0.0461592455824458,-298.401058992279
738472.43679856613744050264,3.56349375896481,-0.0461592455824458,-298.354899746696
738472.43679865659214556217,3.5727256080813,-0.0738547929319132,-298.428754539628
738472.43679874704685062170,3.56349375896481,-0.0553910946989349,-298.410290841395
738472.43679883750155568123,3.5727256080813,0.129245887630848,-298.401058992279
738472.43679892783984541893,3.56349375896481,0.138477736747337,-298.34566789758
738472.43679901829455047846,3.54503006073183,0,-298.382595294046
738472.43679910874925553799,3.54503006073183,-0.0553910946989349,-298.419522690512
738472.43679919920396059752,3.53579821161534,0.11078218939787,-298.410290841395
738472.43679928954225033522,3.53579821161534,0.101550340281381,-298.391827143162
738472.43679937999695539474,3.51733451338237,0.0461592455824458,-298.410290841395
738472.43679947045166045427,3.53579821161534,0.0184636982329783,-298.437986388745
738472.43679956090636551380,3.51733451338237,-0.0461592455824458,-298.428754539628
738472.43679965124465525150,3.49887081514939,0.00923184911648915,-298.373363444929
738472.43679974169936031103,3.50810266426588,0.0738547929319132,-298.419522690512
738472.43679983215406537056,3.49887081514939,0.0461592455824458,-298.428754539628
738472.43679992260877043009,3.49887081514939,-0.0923184911648915,-298.382595294046
738472.43680001294706016779,3.50810266426588,-0.0461592455824458,-298.428754539628
738472.43680010340176522732,3.51733451338237,0.101550340281381,-298.401058992279
738472.43680019385647028685,3.47117526779992,0.064622943815424,-298.382595294046
738472.43680028431117534637,3.49887081514939,0.0553910946989349,-298.410290841395
738472.43680037464946508408,3.48040711691641,0.0184636982329783,-298.410290841395
738472.43680046510417014360,3.4896389660329,0.0184636982329783,-298.410290841395
738472.43680055555887520313,3.48040711691641,0.0184636982329783,-298.373363444929
738472.43680064601358026266,3.49887081514939,0.0276955473494674,-298.428754539628
738472.43680073635187000036,3.47117526779992,-0.0184636982329783,-298.428754539628
738472.43680082680657505989,3.4896389660329,-0.00923184911648915,-298.364131595813
738472.43680091726128011942,3.48040711691641,-0.0276955473494674,-298.428754539628
738472.43680100771598517895,3.49887081514939,0.0553910946989349,-298.410290841395
738472.43680109805427491665,3.50810266426588,0.0461592455824458,-298.419522690512
738472.43680118850897997618,3.52656636249886,0.0553910946989349,-298.401058992279
738472.43680127896368503571,3.59118930631428,0.064622943815424,-298.419522690512
738472.43680136941839009523,3.63734855189673,0.11078218939787,-298.428754539628
738472.43680145975667983294,3.6558122501297,0.0830866420484024,-298.419522690512
738472.43680155021138489246,3.63734855189673,0.0461592455824458,-298.437986388745
738472.43680164066608995199,3.70197149571215,0.0923184911648915,-298.364131595813
738472.43680173112079501152,3.68350779747917,0.0738547929319132,-298.327204199347
738472.43680182145908474922,3.63734855189673,0.0553910946989349,-298.391827143162
738472.43680191191378980875,3.61888485366375,0.0830866420484024,-298.428754539628
738472.43680200236849486828,3.61888485366375,0.0830866420484024,-298.401058992279
738472.43680209282319992781,3.51733451338237,0.0276955473494674,-298.336436048463
738472.43680218316148966551,3.49887081514939,0.0184636982329783,-298.373363444929
738472.43680227361619472504,3.49887081514939,0.0276955473494674,-298.373363444929
738472.43680236407089978456,3.45271156956694,-0.00923184911648915,-298.364131595813
738472.43680245452560484409,3.46194341868343,0.0369273964659566,-298.373363444929
738472.43680254486389458179,3.50810266426588,0.0830866420484024,-298.419522690512
738472.43680263531859964132,3.4065523239845,-0.0184636982329783,-298.428754539628
738472.43680272577330470085,3.39732047486801,-0.0184636982329783,-298.428754539628
738472.43680281622800976038,3.42501602221747,0.0276955473494674,-298.428754539628
738472.43680290656629949808,3.4065523239845,0,-298.382595294046
738472.43680299702100455761,3.41578417310099,0.00923184911648915,-298.410290841395
738472.43680308747570961714,3.43424787133396,0.101550340281381,-298.364131595813
738472.43680317793041467667,3.35116122928556,0.0276955473494674,-298.364131595813
738472.43680326826870441437,3.49887081514939,0.0738547929319132,-298.382595294046
738472.43680335872340947390,3.94199957274087,0.129245887630848,-298.373363444929
738472.43680344917811453342,4.65285195471053,-0.0369273964659566,-298.327204199347
738472.43680353963281959295,5.04058961760308,-0.166173284096805,-298.290276802881
738472.43680362997110933065,4.40359202856532,-0.304651020844142,-298.299508651997
738472.43680372042581439018,3.70197149571215,-0.406201361125523,-298.456450086978
738472.43680381088051944971,3.05574205755791,-0.415433210242012,-298.511841181677
738472.43680390133522450924,2.99111911374248,-0.22156437879574,-298.401058992279
738472.43680399167351424694,3.09266945402387,0,-298.382595294046
738472.43680408212821930647,3.21268349253822,0.00923184911648915,-298.34566789758
738472.43680417258292436600,3.38808862575152,0.0553910946989349,-298.364131595813
738472.43680426303762942553,3.44347972045045,0.0461592455824458,-298.382595294046
738472.43680435337591916323,3.54503006073183,0.0830866420484024,-298.354899746696
738472.43680444383062422276,3.53579821161534,0.0553910946989349,-298.364131595813
738472.43680453428532928228,3.49887081514939,0.0184636982329783,-298.401058992279
738472.43680462474003434181,3.53579821161534,0.064622943815424,-298.419522690512
738472.43680471507832407951,3.56349375896481,0.064622943815424,-298.382595294046
738472.43680480553302913904,3.6558122501297,0.147709585863826,-298.382595294046
738472.43680489598773419857,3.77582628864406,0.249259926145207,-298.382595294046
738472.43680498644243925810,3.5727256080813,0.0461592455824458,-298.419522690512
738472.43680507678072899580,3.69273964659566,0.138477736747337,-298.419522690512
738472.43680516723543405533,3.90507217627491,0.341578417310099,-298.308740501114
738472.43680525769013911486,3.60965300454726,0,-298.308740501114
738472.43680534814484417439,3.48040711691641,-0.101550340281381,-298.456450086978
738472.43680543848313391209,3.63734855189673,0.0276955473494674,-298.437986388745
738472.43680552893783897161,3.73889889217811,0.101550340281381,-298.373363444929
738472.43680561939254403114,3.71120334482864,0.0830866420484024,-298.410290841395
738472.43680570984724909067,3.81275368511002,0.184636982329783,-298.401058992279
738472.43680580018553882837,3.89584032715842,0.249259926145207,-298.299508651997
738472.43680589064024388790,3.94199957274087,0.286187322611164,-298.401058992279
738472.43680598109494894743,3.96046327097385,0.313882869960631,-298.391827143162
738472.43680607154965400696,3.79428998687704,0.166173284096805,-298.299508651997
738472.43680616188794374466,3.79428998687704,0.147709585863826,-298.401058992279
738472.43680625234264880419,3.85891293069246,0.22156437879574,-298.382595294046
738472.43680634279735386372,3.88660847804193,0.249259926145207,-298.364131595813
738472.43680643325205892324,3.86814477980895,0.249259926145207,-298.354899746696
738472.43680652359034866095,3.86814477980895,0.267723624378185,-298.382595294046
738472.43680661404505372047,3.87737662892544,0.276955473494675,-298.373363444929
738472.43680670449975878000,3.86814477980895,0.276955473494675,-298.31797235023
738472.43680679495446383953,3.77582628864406,0.193868831446272,-298.401058992279
738472.43680688529275357723,3.76659443952757,0.193868831446272,-298.410290841395
738472.43680697574745863676,3.6558122501297,0.11078218939787,-298.373363444929
738472.43680706620216369629,3.60965300454726,0.0830866420484024,-298.327204199347
738472.43680715665686875582,3.60042115543077,0.064622943815424,-298.354899746696
738472.43680724699515849352,3.55426190984832,0.0276955473494674,-298.373363444929
738472.43680733744986355305,3.56349375896481,0.0553910946989349,-298.373363444929
738472.43680742790456861258,3.59118930631428,0.0923184911648915,-298.354899746696
738472.43680751835927367210,3.49887081514939,0.0184636982329783,-298.437986388745
738472.43680760869756340981,3.48040711691641,-0.00923184911648915,-298.428754539628
738472.43680769915226846933,3.48040711691641,-0.0184636982329783,-298.401058992279
738472.43680778960697352886,3.48040711691641,-0.0276955473494674,-298.391827143162
738472.43680788006167858839,3.4896389660329,-0.00923184911648915,-298.382595294046
738472.43680797039996832609,3.53579821161534,0.0276955473494674,-298.327204199347
738472.43680806085467338562,3.52656636249886,0.0184636982329783,-298.373363444929
738472.43680815130937844515,3.54503006073183,0.0184636982329783,-298.437986388745
738472.43680824176408350468,3.55426190984832,0.0369273964659566,-298.447218237861
738472.43680833210237324238,3.56349375896481,0.0461592455824458,-298.465681936094
738472.43680842255707830191,3.52656636249886,0,-298.336436048463
738472.43680851301178336143,3.51733451338237,0,-298.336436048463
738472.43680860346648842096,3.51733451338237,0,-298.456450086978
738472.43680869380477815866,3.51733451338237,0,-298.419522690512
738472.43680878425948321819,3.53579821161534,0.0184636982329783,-298.327204199347
738472.43680887471418827772,3.52656636249886,0.00923184911648915,-298.419522690512
738472.43680896516889333725,3.54503006073183,0.0276955473494674,-298.456450086978
738472.43680905550718307495,3.4896389660329,-0.00923184911648915,-298.474913785211
738472.43680914596188813448,3.48040711691641,-0.0184636982329783,-298.391827143162
738472.43680923641659319401,3.4896389660329,-0.00923184911648915,-298.465681936094
738472.43680932687129825354,3.49887081514939,-0.00923184911648915,-298.447218237861
738472.43680941720958799124,3.48040711691641,-0.0184636982329783,-298.410290841395
738472.43680950766429305077,3.48040711691641,0,-298.465681936094
738472.43680959811899811029,3.46194341868343,-0.0184636982329783,-298.428754539628
738472.43680968845728784800,3.48040711691641,-0.00923184911648915,-298.391827143162
738472.43680977891199290752,3.47117526779992,-0.0184636982329783,-298.428754539628
738472.43680986936669796705,3.48040711691641,-0.00923184911648915,-298.419522690512
738472.43680995982140302658,3.47117526779992,-0.0276955473494674,-298.391827143162
738472.43681005015969276428,3.48040711691641,-0.00923184911648915,-298.419522690512
738472.43681014061439782381,3.47117526779992,-0.0184636982329783,-298.428754539628
738472.43681023106910288334,3.47117526779992,-0.0184636982329783,-298.410290841395
738472.43681032152380794287,3.46194341868343,-0.0184636982329783,-298.354899746696
738472.43681041186209768057,3.46194341868343,-0.0184636982329783,-298.410290841395
738472.43681050231680274010,3.48040711691641,-0.0184636982329783,-298.428754539628
738472.43681059277150779963,3.46194341868343,-0.0276955473494674,-298.410290841395
738472.43681068322621285915,3.48040711691641,-0.0184636982329783,-298.410290841395
738472.43681077356450259686,3.45271156956694,-0.0461592455824458,-298.382595294046
738472.43681086401920765638,3.4896389660329,-0.0184636982329783,-298.373363444929
738472.43681095447391271591,3.47117526779992,-0.0184636982329783,-298.290276802881
738472.43681104492861777544,3.48040711691641,-0.0276955473494674,-298.373363444929
738472.43681113526690751314,3.48040711691641,-0.00923184911648915,-298.373363444929
738472.43681122572161257267,3.56349375896481,0.0276955473494674,-298.364131595813
738472.43681131617631763220,3.58195745719779,0.0184636982329783,-298.428754539628
738472.43681140663102269173,3.62811670278024,0.0553910946989349,-298.419522690512
738472.43681149696931242943,3.66504409924619,0.0276955473494674,-298.401058992279
738472.43681158742401748896,3.68350779747917,0.0369273964659566,-298.419522690512
738472.43681167787872254848,3.68350779747917,0.0553910946989349,-298.419522690512
738472.43681176833342760801,3.67427594836268,0.0553910946989349,-298.410290841395
738472.43681185867171734571,3.62811670278024,0.0461592455824458,-298.373363444929
738472.43681194912642240524,3.62811670278024,0.0553910946989349,-298.401058992279
738472.43681203958112746477,3.5727256080813,0.0184636982329783,-298.401058992279
738472.43681213003583252430,3.50810266426588,-0.00923184911648915,-298.34566789758
738472.43681222037412226200,3.52656636249886,-0.00923184911648915,-298.373363444929
738472.43681231082882732153,3.4896389660329,-0.0276955473494674,-298.281044953764
738472.43681240128353238106,3.4896389660329,-0.0184636982329783,-298.410290841395
738472.43681249173823744059,3.45271156956694,-0.00923184911648915,-298.354899746696
738472.43681258207652717829,3.45271156956694,-0.0184636982329783,-298.410290841395
738472.43681267253123223782,3.44347972045045,-0.0184636982329783,-298.401058992279
738472.43681276298593729734,3.44347972045045,-0.0276955473494674,-298.34566789758
738472.43681285344064235687,3.42501602221747,-0.0369273964659566,-298.382595294046
738472.43681294377893209457,3.44347972045045,-0.0276955473494674,-298.382595294046
738472.43681303423363715410,3.39732047486801,-0.0184636982329783,-298.410290841395
738472.43681312468834221363,3.36039307840205,0.00923184911648915,-298.354899746696
738472.43681321514304727316,3.46194341868343,0.0369273964659566,-298.401058992279
738472.43681330548133701086,3.68350779747917,0.0923184911648915,-298.364131595813
738472.43681339593604207039,4.23741874446852,0.0738547929319132,-298.401058992279
738472.43681348639074712992,4.97596667378765,-0.120014038514359,-298.373363444929
738472.43681357684545218945,4.7636341441084,-0.249259926145207,-298.34566789758
738472.43681366718374192715,4.06201361125523,-0.396969512009033,-298.447218237861
738472.43681375763844698668,3.41578417310099,-0.498519852290414,-298.539536729026
738472.43681384809315204620,3.04651020844142,-0.360042115543077,-298.474913785211
738472.43681393854785710573,3.04651020844142,-0.129245887630848,-298.428754539628
738472.43681402888614684343,3.1480605487228,0.00923184911648915,-298.419522690512
738472.43681411934085190296,3.22191534165471,0.00923184911648915,-298.419522690512
738472.43681420979555696249,3.36962492751854,0.0276955473494674,-298.354899746696
738472.43681430025026202202,3.46194341868343,0.0276955473494674,-298.419522690512
738472.43681439058855175972,3.51733451338237,0.0276955473494674,-298.410290841395
738472.43681448104325681925,3.52656636249886,0.0276955473494674,-298.401058992279
738472.43681457149796187878,3.55426190984832,0.0369273964659566,-298.364131595813
738472.43681466195266693830,3.56349375896481,0.0276955473494674,-298.428754539628
738472.43681475229095667601,3.59118930631428,0.0369273964659566,-298.428754539628
738472.43681484274566173553,3.60965300454726,0.0461592455824458,-298.410290841395
738472.43681493320036679506,3.62811670278024,0.0553910946989349,-298.401058992279
738472.43681502365507185459,3.63734855189673,0.0553910946989349,-298.410290841395
738472.43681511399336159229,3.68350779747917,0.0738547929319132,-298.410290841395
738472.43681520444806665182,3.68350779747917,0.0738547929319132,-298.364131595813
738472.43681529490277171135,3.71120334482864,0.0923184911648915,-298.410290841395
738472.43681538535747677088,3.72966704306162,0.101550340281381,-298.410290841395
738472.43681547569576650858,3.77582628864406,0.129245887630848,-298.34566789758
738472.43681556615047156811,3.77582628864406,0.120014038514359,-298.401058992279
738472.43681565660517662764,3.831217383343,0.166173284096805,-298.391827143162
738472.43681574705988168716,3.831217383343,0.175405133213294,-298.1887264626
738472.43681583739817142487,3.86814477980895,0.21233252967925,-298.308740501114
738472.43681592785287648439,3.87737662892544,0.22156437879574,-298.373363444929
738472.43681601830758154392,3.89584032715842,0.240028077028718,-298.373363444929
738472.43681610876228660345,3.93276772362438,0.267723624378185,-298.327204199347
738472.43681619910057634115,3.93276772362438,0.276955473494675,-298.281044953764
738472.43681628955528140068,3.94199957274087,0.295419171727653,-298.354899746696
738472.43681638000998646021,3.92353587450789,0.295419171727653,-298.354899746696
738472.43681647046469151974,3.94199957274087,0.304651020844142,-298.354899746696
738472.43681656080298125744,3.92353587450789,0.295419171727653,-298.34566789758
738472.43681665125768631697,3.92353587450789,0.286187322611164,-298.364131595813
738472.43681674171239137650,3.86814477980895,0.249259926145207,-298.382595294046
738472.43681683216709643602,3.84044923245949,0.230796227912229,-298.262581255531
738472.43681692250538617373,3.77582628864406,0.184636982329783,-298.391827143162
738472.43681701296009123325,3.74813074129459,0.156941434980316,-298.410290841395
738472.43681710341479629278,3.69273964659566,0.11078218939787,-298.391827143162
738472.43681719386950135231,3.66504409924619,0.0923184911648915,-298.391827143162
738472.43681728420779109001,3.62811670278024,0.064622943815424,-298.401058992279
738472.43681737466249614954,3.60965300454726,0.0553910946989349,-298.410290841395
738472.43681746511720120907,3.60042115543077,0.0369273964659566,-298.364131595813
738472.43681755557190626860,3.60042115543077,0.0369273964659566,-298.428754539628
738472.43681764591019600630,3.59118930631428,0.0369273964659566,-298.428754539628
738472.43681773636490106583,3.60965300454726,0.0461592455824458,-298.419522690512
738472.43681782681960612535,3.61888485366375,0.0461592455824458,-298.428754539628
738472.43681791727431118488,3.61888485366375,0.0461592455824458,-298.419522690512
738472.43681800761260092258,3.62811670278024,0.0553910946989349,-298.419522690512
738472.43681809806730598211,3.61888485366375,0.0369273964659566,-298.327204199347
738472.43681818852201104164,3.64658040101321,0.0553910946989349,-298.410290841395
738472.43681827897671610117,3.62811670278024,0.0461592455824458,-298.410290841395
738472.43681836931500583887,3.64658040101321,0.0553910946989349,-298.419522690512
738472.43681845976971089840,3.63734855189673,0.0553910946989349,-298.382595294046
738472.43681855022441595793,3.63734855189673,0.0553910946989349,-298.419522690512
738472.43681864067912101746,3.61888485366375,0.0461592455824458,-298.419522690512
738472.43681873101741075516,3.61888485366375,0.0461592455824458,-298.382595294046
738472.43681882147211581469,3.60965300454726,0.0369273964659566,-298.419522690512
738472.43681891192682087421,3.60042115543077,0.0369273964659566,-298.419522690512
738472.43681900238152593374,3.58195745719779,0.0276955473494674,-298.428754539628
738472.43681909271981567144,3.58195745719779,0.0276955473494674,-298.410290841395
738472.43681918317452073097,3.5727256080813,0.0184636982329783,-298.428754539628
738472.43681927362922579050,3.56349375896481,0.0184636982329783,-298.437986388745
738472.43681936408393085003,3.56349375896481,0.0184636982329783,-298.373363444929
738472.43681945442222058773,3.56349375896481,0.00923184911648915,-298.428754539628
738472.43681954487692564726,3.56349375896481,0.0184636982329783,-298.419522690512
738472.43681963533163070679,3.55426190984832,0.00923184911648915,-298.364131595813
738472.43681972578633576632,3.56349375896481,0.0184636982329783,-298.34566789758
738472.43681981612462550402,3.55426190984832,0.00923184911648915,-298.364131595813
738472.43681990657933056355,3.55426190984832,0.00923184911648915,-298.364131595813
738472.43681999703403562307,3.54503006073183,0,-298.327204199347
738472.43682008748874068260,3.54503006073183,0.00923184911648915,-298.401058992279
738472.43682017782703042030,3.55426190984832,0.00923184911648915,-298.401058992279
738472.43682026828173547983,3.55426190984832,0.00923184911648915,-298.373363444929
738472.43682035873644053936,3.55426190984832,0.00923184911648915,-298.382595294046
738472.43682044919114559889,3.55426190984832,0,-298.410290841395
738472.43682053952943533659,3.55426190984832,0.00923184911648915,-298.373363444929
738472.43682062998414039612,3.54503006073183,0.00923184911648915,-298.419522690512
738472.43682072043884545565,3.56349375896481,0.00923184911648915,-298.410290841395
738472.43682081089355051517,3.55426190984832,0.00923184911648915,-298.391827143162
738472.43682090123184025288,3.60042115543077,0.0369273964659566,-298.354899746696
738472.43682099168654531240,3.63734855189673,0.0553910946989349,-298.373363444929
738472.43682108214125037193,3.70197149571215,0.0738547929319132,-298.428754539628
738472.43682117259595543146,3.72043519394513,0.064622943815424,-298.391827143162
738472.43682126293424516916,3.73889889217811,0.0461592455824458,-298.391827143162
738472.43682135338895022869,3.74813074129459,0.064622943815424,-298.373363444929
738472.43682144384365528822,3.74813074129459,0.0738547929319132,-298.410290841395
738472.43682153429836034775,3.72966704306162,0.0738547929319132,-298.419522690512
738472.43682162463665008545,3.71120334482864,0.0738547929319132,-298.410290841395
738472.43682171509135514498,3.69273964659566,0.064622943815424,-298.419522690512
738472.43682180554606020451,3.62811670278024,0.0276955473494674,-298.391827143162
738472.43682189600076526403,3.59118930631428,0.0276955473494674,-298.401058992279
738472.43682198633905500174,3.56349375896481,0.00923184911648915,-298.419522690512
738472.43682207679376006126,3.55426190984832,0.0184636982329783,-298.419522690512
738472.43682216724846512079,3.52656636249886,0,-298.299508651997
738472.43682225770317018032,3.52656636249886,0,-298.428754539628
738472.43682234804145991802,3.50810266426588,0,-298.428754539628
738472.43682243849616497755,3.50810266426588,0,-298.428754539628
738472.43682252895087003708,3.50810266426588,-0.00923184911648915,-298.410290841395
738472.43682261928915977478,3.51733451338237,0,-298.419522690512
738472.43682270974386483431,3.4896389660329,-0.0184636982329783,-298.410290841395
738472.43682280019856989384,3.44347972045045,0.0184636982329783,-298.234885708182
738472.43682289065327495337,3.47117526779992,0.0184636982329783,-298.34566789758
738472.43682298099156469107,3.63734855189673,0.0738547929319132,-298.401058992279
738472.43682307144626975060,4.00662251655629,0.101550340281381,-298.299508651997
738472.43682316190097481012,4.7636341441084,0.0276955473494674,-298.336436048463
738472.43682325235567986965,4.92057557908872,-0.156941434980316,-298.336436048463
738472.43682334269396960735,4.68054750206,-0.21233252967925,-298.354899746696
738472.43682343314867466688,4.02508621478927,-0.286187322611164,-298.401058992279
738472.43682352360337972641,3.39732047486801,-0.452360606707968,-298.493377483444
738472.43682361405808478594,3.1480605487228,-0.249259926145207,-298.456450086978
738472.43682370439637452364,3.13882869960631,-0.0830866420484024,-298.373363444929
738472.43682379485107958317,3.2311471907712,0.064622943815424,-298.364131595813
738472.43682388530578464270,3.33269753105258,0.0369273964659566,-298.391827143162
738472.43682397576048970222,3.4896389660329,0.0553910946989349,-298.410290841395
738472.43682406609877943993,3.55426190984832,0.0553910946989349,-298.327204199347
738472.43682415655348449945,3.60042115543077,0.0553910946989349,-298.410290841395
738472.43682424700818955898,3.60965300454726,0.0553910946989349,-298.410290841395
738472.43682433746289461851,3.64658040101321,0.064622943815424,-298.401058992279
738472.43682442780118435621,3.66504409924619,0.064622943815424,-298.336436048463
738472.43682451825588941574,3.69273964659566,0.0738547929319132,-298.401058992279
738472.43682460871059447527,3.69273964659566,0.064622943815424,-298.410290841395
738472.43682469916529953480,3.72043519394513,0.0830866420484024,-298.410290841395
738472.43682478950358927250,3.73889889217811,0.0830866420484024,-298.308740501114
738472.43682487995829433203,3.75736259041108,0.0923184911648915,-298.401058992279
738472.43682497041299939156,3.77582628864406,0.101550340281381,-298.401058992279
738472.43682506086770445108,3.79428998687704,0.120014038514359,-298.382595294046
738472.43682515120599418879,3.81275368511002,0.129245887630848,-298.336436048463
738472.43682524166069924831,3.84044923245949,0.138477736747337,-298.299508651997
738472.43682533211540430784,3.85891293069246,0.156941434980316,-298.401058992279
738472.43682542257010936737,3.86814477980895,0.166173284096805,-298.401058992279
738472.43682551290839910507,3.90507217627491,0.193868831446272,-298.364131595813
738472.43682560336310416460,3.9143040253914,0.203100680562761,-298.373363444929
738472.43682569381780922413,3.94199957274087,0.230796227912229,-298.373363444929
738472.43682578427251428366,3.94199957274087,0.240028077028718,-298.364131595813
738472.43682587461080402136,3.96046327097385,0.258491775261696,-298.34566789758
738472.43682596506550908089,3.95123142185736,0.267723624378185,-298.364131595813
738472.43682605552021414042,3.96046327097385,0.286187322611164,-298.373363444929
738472.43682614597491919994,3.96046327097385,0.286187322611164,-298.354899746696
738472.43682623631320893764,3.95123142185736,0.286187322611164,-298.354899746696
738472.43682632676791399717,3.94199957274087,0.276955473494675,-298.225653859066
738472.43682641722261905670,3.92353587450789,0.258491775261696,-298.271813104648
738472.43682650767732411623,3.89584032715842,0.230796227912229,-298.382595294046
738472.43682659801561385393,3.84968108157598,0.184636982329783,-298.373363444929
738472.43682668847031891346,3.82198553422651,0.156941434980316,-298.364131595813
738472.43682677892502397299,3.76659443952757,0.129245887630848,-298.391827143162
738472.43682686937972903252,3.73889889217811,0.11078218939787,-298.354899746696
738472.43682695971801877022,3.70197149571215,0.0738547929319132,-298.354899746696
738472.43682705017272382975,3.70197149571215,0.0738547929319132,-298.31797235023
738472.43682714062742888927,3.68350779747917,0.064622943815424,-298.364131595813
738472.43682723108213394880,3.68350779747917,0.064622943815424,-298.364131595813
738472.43682732142042368650,3.67427594836268,0.064622943815424,-298.391827143162
738472.43682741187512874603,3.66504409924619,0.0553910946989349,-298.410290841395
738472.43682750232983380556,3.67427594836268,0.064622943815424,-298.428754539628
738472.43682759278453886509,3.68350779747917,0.064622943815424,-298.419522690512
738472.43682768312282860279,3.68350779747917,0.064622943815424,-298.391827143162
738472.43682777357753366232,3.68350779747917,0.064622943815424,-298.419522690512
738472.43682786403223872185,3.69273964659566,0.0738547929319132,-298.410290841395
738472.43682795448694378138,3.68350779747917,0.064622943815424,-298.354899746696
738472.43682804482523351908,3.69273964659566,0.0738547929319132,-298.290276802881
738472.43682813527993857861,3.67427594836268,0.064622943815424,-298.401058992279
738472.43682822573464363813,3.67427594836268,0.064622943815424,-298.410290841395
738472.43682831618934869766,3.6558122501297,0.0553910946989349,-298.382595294046
738472.43682840652763843536,3.66504409924619,0.0553910946989349,-298.364131595813
738472.43682849698234349489,3.63734855189673,0.0369273964659566,-298.410290841395
738472.43682858743704855442,3.6558122501297,0.0553910946989349,-298.410290841395
738472.43682867789175361395,3.61888485366375,0.0276955473494674,-298.34566789758
738472.43682876823004335165,3.62811670278024,0.0369273964659566,-298.428754539628
738472.43682885868474841118,3.61888485366375,0.0276955473494674,-298.419522690512
738472.43682894913945347071,3.60965300454726,0.0276955473494674,-298.419522690512
738472.43682903959415853024,3.61888485366375,0.0276955473494674,-298.336436048463
738472.43682912993244826794,3.60042115543077,0.0184636982329783,-298.437986388745
738472.43682922038715332747,3.60042115543077,0.0276955473494674,-298.447218237861
738472.43682931084185838699,3.60042115543077,0.0184636982329783,-298.419522690512
738472.43682940129656344652,3.61888485366375,0.0276955473494674,-298.428754539628
738472.43682949163485318422,3.58195745719779,0.00923184911648915,-298.428754539628
738472.43682958208955824375,3.60042115543077,0.0184636982329783,-298.419522690512
738472.43682967254426330328,3.58195745719779,0.00923184911648915,-298.428754539628
738472.43682976299896836281,3.60042115543077,0.0184636982329783,-298.437986388745
738472.43682985333725810051,3.60042115543077,0.00923184911648915,-298.299508651997
738472.43682994379196316004,3.61888485366375,0.0369273964659566,-298.31797235023
738472.43683003424666821957,3.6558122501297,0.0461592455824458,-298.428754539628
738472.43683012470137327909,3.72043519394513,0.0738547929319132,-298.419522690512
738472.43683021503966301680,3.74813074129459,0.0830866420484024,-298.308740501114
738472.43683030549436807632,3.75736259041108,0.0461592455824458,-298.428754539628
738472.43683039594907313585,3.79428998687704,0.064622943815424,-298.419522690512
738472.43683048640377819538,3.80352183599353,0.0923184911648915,-298.428754539628
738472.43683057674206793308,3.77582628864406,0.0738547929319132,-298.308740501114
738472.43683066719677299261,3.76659443952757,0.0830866420484024,-298.354899746696
738472.43683075765147805214,3.73889889217811,0.0830866420484024,-298.419522690512
738472.43683084810618311167,3.69273964659566,0.0461592455824458,-298.428754539628
738472.43683093844447284937,3.6558122501297,0.0461592455824458,-298.373363444929
738472.43683102889917790890,3.61888485366375,0.0276955473494674,-298.419522690512
738472.43683111935388296843,3.60965300454726,0.0276955473494674,-298.410290841395
738472.43683120980858802795,3.58195745719779,0.0184636982329783,-298.382595294046
738472.43683130014687776566,3.58195745719779,0.0276955473494674,-298.410290841395
738472.43683139060158282518,3.55426190984832,0.00923184911648915,-298.419522690512
738472.43683148105628788471,3.5727256080813,0.0184636982329783,-298.391827143162
738472.43683157151099294424,3.54503006073183,0,-298.419522690512
738472.43683166184928268194,3.56349375896481,0.00923184911648915,-298.410290841395
738472.43683175230398774147,3.54503006073183,0,-298.401058992279
738472.43683184275869280100,3.51733451338237,0.0184636982329783,-298.31797235023
738472.43683193321339786053,3.48040711691641,0.0369273964659566,-298.419522690512
738472.43683202355168759823,3.59118930631428,0.0738547929319132,-298.401058992279
738472.43683211400639265776,3.84968108157598,0.0923184911648915,-298.364131595813
738472.43683220446109771729,4.41282387768181,0.11078218939787,-298.271813104648
738472.43683229491580277681,5.06828516495254,-0.0553910946989349,-298.271813104648
738472.43683238525409251451,4.70824304940947,-0.184636982329783,-298.290276802881
