time_dn,ecg_projection_ll_ra_mV,ecg_projection_la_ra_mV,ecg_projection_vx_rl_mV
738472.45411634794436395168,4.73593859675893,0.175405133213294,-298.659550767541
738472.45411643851548433304,4.85595263527329,0.156941434980316,-298.659550767541
738472.45411652897018939257,5.01289407025361,0.175405133213294,-298.484145634327
738472.45411661942489445210,5.07751701406903,0.156941434980316,-298.521073030793
738472.45411670987959951162,5.13290810876797,0.175405133213294,-298.604159672842
738472.45411680033430457115,5.14213995788446,0.166173284096805,-298.604159672842
738472.45411689078900963068,5.16060365611744,0.175405133213294,-298.604159672842
738472.45411698124371469021,5.16983550523392,0.166173284096805,-298.594927823725
738472.45411707169841974974,5.19753105258339,0.175405133213294,-298.604159672842
738472.45411716215312480927,5.21599475081637,0.184636982329783,-298.594927823725
738472.45411725260782986879,5.23445844904935,0.193868831446272,-298.613391521958
738472.45411734306253492832,5.25292214728233,0.203100680562761,-298.650318918424
738472.45411743351723998785,5.2713858455153,0.203100680562761,-298.622623371075
738472.45411752397194504738,5.28984954374828,0.21233252967925,-298.622623371075
738472.45411761442665010691,5.30831324198126,0.22156437879574,-298.604159672842
738472.45411770499777048826,5.33600878933073,0.240028077028718,-298.53030487991
738472.45411779545247554779,5.33600878933073,0.249259926145207,-298.631855220191
738472.45411788590718060732,5.40063173314615,0.286187322611164,-298.696478164006
738472.45411797636188566685,5.40986358226264,0.295419171727653,-298.631855220191
738472.45411806681659072638,5.43755912961211,0.32311471907712,-298.613391521958
738472.45411815727129578590,5.42832728049562,0.332346568193609,-298.631855220191
738472.45411824772600084543,5.45602282784509,0.369273964659566,-298.631855220191
738472.45411833818070590496,5.45602282784509,0.378505813776055,-298.631855220191
738472.45411842863541096449,5.48371837519456,0.406201361125523,-298.567232276376
738472.45411851909011602402,5.45602282784509,0.406201361125523,-298.613391521958
738472.45411860954482108355,5.46525467696158,0.415433210242012,-298.622623371075
738472.45411869999952614307,5.47448652607807,0.424665059358501,-298.613391521958
738472.45411879045423120260,5.45602282784509,0.415433210242012,-298.576464125492
738472.45411888090893626213,5.4467909787286,0.406201361125523,-298.641087069308
738472.45411897148005664349,5.40986358226264,0.378505813776055,-298.631855220191
738472.45411906193476170301,5.39139988402966,0.350810266426588,-298.631855220191
738472.45411915238946676254,5.34524063844722,0.313882869960631,-298.613391521958
738472.45411924284417182207,5.31754509109775,0.286187322611164,-298.650318918424
738472.45411933329887688160,5.2713858455153,0.249259926145207,-298.659550767541
738472.45411942375358194113,5.24369029816584,0.22156437879574,-298.641087069308
738472.45411951420828700066,5.20676290169988,0.193868831446272,-298.659550767541
738472.45411960466299206018,5.20676290169988,0.193868831446272,-298.668782616657
738472.45411969511769711971,5.1882992034669,0.184636982329783,-298.641087069308
738472.45411978557240217924,5.19753105258339,0.184636982329783,-298.668782616657
738472.45411987602710723877,5.17906735435041,0.166173284096805,-298.668782616657
738472.45411996648181229830,5.1882992034669,0.184636982329783,-298.622623371075
738472.45412005693651735783,5.1882992034669,0.166173284096805,-298.50260933256
738472.45412014739122241735,5.19753105258339,0.184636982329783,-298.594927823725
738472.45412023796234279871,5.1882992034669,0.184636982329783,-298.650318918424
738472.45412032841704785824,5.19753105258339,0.193868831446272,-298.641087069308
738472.45412041887175291777,5.20676290169988,0.193868831446272,-298.659550767541
738472.45412050932645797729,5.1882992034669,0.184636982329783,-298.650318918424
738472.45412059978116303682,5.19753105258339,0.184636982329783,-298.613391521958
738472.45412069023586809635,5.19753105258339,0.184636982329783,-298.659550767541
738472.45412078069057315588,5.19753105258339,0.193868831446272,-298.650318918424
738472.45412087114527821541,5.17906735435041,0.175405133213294,-298.659550767541
738472.45412096159998327494,5.16983550523392,0.175405133213294,-298.641087069308
738472.45412105205468833447,5.14213995788446,0.166173284096805,-298.668782616657
738472.45412114250939339399,5.15137180700095,0.166173284096805,-298.668782616657
738472.45412123296409845352,5.13290810876797,0.156941434980316,-298.604159672842
738472.45412132341880351305,5.15137180700095,0.166173284096805,-298.668782616657
738472.45412141387350857258,5.13290810876797,0.147709585863826,-298.668782616657
738472.45412150444462895393,5.13290810876797,0.156941434980316,-298.613391521958
738472.45412159489933401346,5.11444441053499,0.147709585863826,-298.678014465773
738472.45412168535403907299,5.12367625965148,0.147709585863826,-298.668782616657
738472.45412177580874413252,5.1052125614185,0.138477736747337,-298.668782616657
738472.45412186626344919205,5.1052125614185,0.147709585863826,-298.659550767541
738472.45412195671815425158,5.1052125614185,0.129245887630848,-298.631855220191
738472.45412204717285931110,5.11444441053499,0.147709585863826,-298.631855220191
738472.45412213762756437063,5.1052125614185,0.147709585863826,-298.613391521958
738472.45412222808226943016,5.11444441053499,0.147709585863826,-298.567232276376
738472.45412231853697448969,5.11444441053499,0.156941434980316,-298.613391521958
738472.45412240899167954922,5.14213995788446,0.156941434980316,-298.604159672842
738472.45412249944638460875,5.19753105258339,0.193868831446272,-298.622623371075
738472.45412258990108966827,5.22522659993286,0.193868831446272,-298.659550767541
738472.45412268047221004963,5.2713858455153,0.184636982329783,-298.613391521958
738472.45412277092691510916,5.26215399639882,0.166173284096805,-298.696478164006
738472.45412286138162016869,5.28984954374828,0.203100680562761,-298.678014465773
738472.45412295183632522821,5.28061769463179,0.203100680562761,-298.659550767541
738472.45412304229103028774,5.2713858455153,0.203100680562761,-298.668782616657
738472.45412313274573534727,5.22522659993286,0.193868831446272,-298.668782616657
738472.45412322320044040680,5.17906735435041,0.166173284096805,-298.659550767541
738472.45412331365514546633,5.13290810876797,0.147709585863826,-298.641087069308
738472.45412340410985052586,5.11444441053499,0.138477736747337,-298.668782616657
738472.45412349456455558538,5.08674886318552,0.138477736747337,-298.659550767541
738472.45412358501926064491,5.06828516495254,0.129245887630848,-298.447218237861
738472.45412367547396570444,5.05905331583605,0.138477736747337,-298.604159672842
738472.45412376592867076397,5.04058961760308,0.120014038514359,-298.668782616657
738472.45412385638337582350,5.04058961760308,0.129245887630848,-298.613391521958
738472.45412394695449620485,5.03135776848659,0.120014038514359,-298.668782616657
738472.45412403740920126438,5.03135776848659,0.129245887630848,-298.678014465773
738472.45412412786390632391,5.0221259193701,0.11078218939787,-298.659550767541
738472.45412421831861138344,5.0221259193701,0.129245887630848,-298.604159672842
738472.45412430877331644297,4.95750297555467,0.156941434980316,-298.678014465773
738472.45412439922802150249,5.04058961760308,0.175405133213294,-298.668782616657
738472.45412448968272656202,5.23445844904935,0.21233252967925,-298.604159672842
738472.45412458013743162155,5.67758720664083,0.240028077028718,-298.594927823725
738472.45412467059213668108,6.48075807977538,0.11078218939787,-298.585695974609
738472.45412476104684174061,6.42536698507645,-0.0738547929319132,-298.585695974609
738472.45412485150154680014,5.72374645222327,-0.147709585863826,-298.539536729026
738472.45412494195625185966,5.07751701406903,-0.295419171727653,-298.68724631489
738472.45412503241095691919,4.66208380382702,-0.193868831446272,-298.761101107822
738472.45412512286566197872,4.64362010559404,-0.0184636982329783,-298.714941862239
738472.45412521343678236008,4.68977935117649,0.166173284096805,-298.604159672842
738472.45412530389148741961,4.77286599322489,0.138477736747337,-298.650318918424
738472.45412539434619247913,4.94827112643818,0.147709585863826,-298.650318918424
738472.45412548480089753866,5.04058961760308,0.156941434980316,-298.650318918424
738472.45412557525560259819,5.08674886318552,0.156941434980316,-298.576464125492
738472.45412566571030765772,5.1052125614185,0.156941434980316,-298.641087069308
738472.45412575616501271725,5.13290810876797,0.166173284096805,-298.641087069308
738472.45412584661971777678,5.13290810876797,0.156941434980316,-298.650318918424
738472.45412593707442283630,5.16060365611744,0.175405133213294,-298.594927823725
738472.45412602752912789583,5.17906735435041,0.175405133213294,-298.641087069308
738472.45412611798383295536,5.19753105258339,0.184636982329783,-298.641087069308
738472.45412620843853801489,5.22522659993286,0.203100680562761,-298.641087069308
738472.45412629889324307442,5.23445844904935,0.203100680562761,-298.567232276376
738472.45412638934794813395,5.26215399639882,0.21233252967925,-298.659550767541
738472.45412647991906851530,5.2713858455153,0.22156437879574,-298.641087069308
738472.45412657037377357483,5.30831324198126,0.240028077028718,-298.622623371075
738472.45412666082847863436,5.30831324198126,0.249259926145207,-298.558000427259
738472.45412675128318369389,5.35447248756371,0.276955473494675,-298.631855220191
738472.45412684173788875341,5.3637043366802,0.286187322611164,-298.613391521958
738472.45412693219259381294,5.40063173314615,0.32311471907712,-298.558000427259
738472.45412702264729887247,5.40063173314615,0.332346568193609,-298.558000427259
738472.45412711310200393200,5.42832728049562,0.360042115543077,-298.437986388745
738472.45412720355670899153,5.43755912961211,0.378505813776055,-298.484145634327
738472.45412729401141405106,5.4467909787286,0.396969512009033,-298.558000427259
738472.45412738446611911058,5.4467909787286,0.406201361125523,-298.594927823725
738472.45412747492082417011,5.47448652607807,0.415433210242012,-298.604159672842
738472.45412756537552922964,5.43755912961211,0.406201361125523,-298.594927823725
738472.45412765583023428917,5.43755912961211,0.406201361125523,-298.604159672842
738472.45412774640135467052,5.42832728049562,0.396969512009033,-298.604159672842
738472.45412783685605973005,5.40986358226264,0.387737662892544,-298.604159672842
738472.45412792731076478958,5.38216803491317,0.369273964659566,-298.594927823725
738472.45412801776546984911,5.35447248756371,0.332346568193609,-298.622623371075
738472.45412810822017490864,5.34524063844722,0.313882869960631,-298.641087069308
738472.45412819867487996817,5.2713858455153,0.267723624378185,-298.585695974609
738472.45412828912958502769,5.25292214728233,0.258491775261696,-298.650318918424
738472.45412837958429008722,5.21599475081637,0.21233252967925,-298.668782616657
738472.45412847003899514675,5.1882992034669,0.203100680562761,-298.641087069308
738472.45412856049370020628,5.16060365611744,0.175405133213294,-298.604159672842
738472.45412865094840526581,5.15137180700095,0.175405133213294,-298.678014465773
738472.45412874140311032534,5.16060365611744,0.175405133213294,-298.678014465773
738472.45412883185781538486,5.16983550523392,0.175405133213294,-298.622623371075
738472.45412892231252044439,5.16060365611744,0.166173284096805,-298.678014465773
738472.45412901288364082575,5.16983550523392,0.175405133213294,-298.678014465773
738472.45412910333834588528,5.16983550523392,0.175405133213294,-298.622623371075
738472.45412919379305094481,5.17906735435041,0.175405133213294,-298.659550767541
738472.45412928424775600433,5.16983550523392,0.184636982329783,-298.678014465773
738472.45412937470246106386,5.1882992034669,0.193868831446272,-298.678014465773
738472.45412946515716612339,5.17906735435041,0.193868831446272,-298.622623371075
738472.45412955561187118292,5.16983550523392,0.193868831446272,-298.678014465773
738472.45412964606657624245,5.16983550523392,0.193868831446272,-298.678014465773
738472.45412973652128130198,5.15137180700095,0.184636982329783,-298.678014465773
738472.45412982697598636150,5.15137180700095,0.193868831446272,-298.622623371075
738472.45412991743069142103,5.13290810876797,0.184636982329783,-298.678014465773
738472.45413000788539648056,5.13290810876797,0.184636982329783,-298.678014465773
738472.45413009834010154009,5.11444441053499,0.175405133213294,-298.622623371075
738472.45413018879480659962,5.11444441053499,0.175405133213294,-298.631855220191
738472.45413027936592698097,5.1052125614185,0.166173284096805,-298.613391521958
738472.45413036982063204050,5.1052125614185,0.175405133213294,-298.613391521958
738472.45413046027533710003,5.1052125614185,0.166173284096805,-298.631855220191
738472.45413055073004215956,5.07751701406903,0.156941434980316,-298.631855220191
738472.45413064118474721909,5.09598071230201,0.166173284096805,-298.484145634327
738472.45413073163945227861,5.06828516495254,0.156941434980316,-298.50260933256
738472.45413082209415733814,5.08674886318552,0.166173284096805,-298.659550767541
738472.45413091254886239767,5.06828516495254,0.156941434980316,-298.678014465773
738472.45413100300356745720,5.09598071230201,0.175405133213294,-298.668782616657
738472.45413109345827251673,5.12367625965148,0.184636982329783,-298.650318918424
738472.45413118391297757626,5.1882992034669,0.22156437879574,-298.68724631489
738472.45413127436768263578,5.19753105258339,0.21233252967925,-298.696478164006
738472.45413136482238769531,5.22522659993286,0.184636982329783,-298.631855220191
738472.45413145527709275484,5.22522659993286,0.184636982329783,-298.68724631489
738472.45413154584821313620,5.24369029816584,0.203100680562761,-298.696478164006
738472.45413163630291819572,5.26215399639882,0.22156437879574,-298.68724631489
738472.45413172675762325525,5.22522659993286,0.21233252967925,-298.631855220191
738472.45413181721232831478,5.1882992034669,0.203100680562761,-298.678014465773
738472.45413190766703337431,5.16060365611744,0.184636982329783,-298.68724631489
738472.45413199812173843384,5.08674886318552,0.166173284096805,-298.631855220191
738472.45413208857644349337,5.06828516495254,0.156941434980316,-298.678014465773
738472.45413217903114855289,5.03135776848659,0.156941434980316,-298.678014465773
738472.45413226948585361242,5.01289407025361,0.147709585863826,-298.650318918424
738472.45413235994055867195,4.99443037202063,0.147709585863826,-298.678014465773
738472.45413245039526373148,4.98519852290414,0.138477736747337,-298.678014465773
738472.45413254084996879101,4.98519852290414,0.147709585863826,-298.668782616657
738472.45413263130467385054,4.97596667378765,0.138477736747337,-298.678014465773
738472.45413272175937891006,4.97596667378765,0.147709585863826,-298.68724631489
738472.45413281233049929142,4.95750297555467,0.129245887630848,-298.678014465773
738472.45413290278520435095,4.95750297555467,0.147709585863826,-298.668782616657
738472.45413299323990941048,4.87441633350627,0.156941434980316,-298.68724631489
738472.45413308369461447001,4.99443037202063,0.184636982329783,-298.678014465773
738472.45413317414931952953,5.22522659993286,0.230796227912229,-298.585695974609
738472.45413326460402458906,5.4467909787286,0.240028077028718,-298.567232276376
738472.45413335505872964859,6.15764336069826,0.175405133213294,-298.548768578143
738472.45413344551343470812,6.60077211828974,-0.0184636982329783,-298.539536729026
738472.45413353596813976765,6.04686117130039,-0.120014038514359,-298.539536729026
738472.45413362642284482718,5.28984954374828,-0.21233252967925,-298.68724631489
738472.45413371687754988670,4.65285195471053,-0.240028077028718,-298.761101107822
738472.45413380733225494623,4.54206976531266,-0.064622943815424,-298.761101107822
738472.45413389778696000576,4.5974608600116,0.120014038514359,-298.696478164006
738472.45413398835808038712,4.70824304940947,0.156941434980316,-298.668782616657
738472.45413407881278544664,4.88364818262276,0.166173284096805,-298.68724631489
738472.45413416926749050617,4.99443037202063,0.175405133213294,-298.567232276376
738472.45413425972219556570,5.05905331583605,0.175405133213294,-298.567232276376
738472.45413435017690062523,5.06828516495254,0.166173284096805,-298.68724631489
738472.45413444063160568476,5.1052125614185,0.175405133213294,-298.567232276376
738472.45413453108631074429,5.1052125614185,0.166173284096805,-298.668782616657
738472.45413462154101580381,5.13290810876797,0.175405133213294,-298.668782616657
738472.45413471199572086334,5.13290810876797,0.175405133213294,-298.622623371075
738472.45413480245042592287,5.16983550523392,0.193868831446272,-298.659550767541
738472.45413489290513098240,5.16983550523392,0.193868831446272,-298.668782616657
738472.45413498335983604193,5.1882992034669,0.193868831446272,-298.668782616657
738472.45413507381454110146,5.21599475081637,0.21233252967925,-298.613391521958
738472.45413516426924616098,5.21599475081637,0.21233252967925,-298.678014465773
738472.45413525484036654234,5.25292214728233,0.230796227912229,-298.678014465773
738472.45413534529507160187,5.2713858455153,0.230796227912229,-298.631855220191
738472.45413543574977666140,5.29908139286477,0.258491775261696,-298.668782616657
738472.45413552620448172092,5.30831324198126,0.267723624378185,-298.650318918424
738472.45413561665918678045,5.3637043366802,0.295419171727653,-298.650318918424
738472.45413570711389183998,5.3637043366802,0.304651020844142,-298.585695974609
738472.45413579756859689951,5.40063173314615,0.341578417310099,-298.641087069308
738472.45413588802330195904,5.40063173314615,0.360042115543077,-298.631855220191
738472.45413597847800701857,5.41909543137913,0.387737662892544,-298.613391521958
738472.45413606893271207809,5.41909543137913,0.396969512009033,-298.622623371075
738472.45413615938741713762,5.42832728049562,0.415433210242012,-298.631855220191
738472.45413624984212219715,5.42832728049562,0.415433210242012,-298.613391521958
738472.45413634029682725668,5.40063173314615,0.406201361125523,-298.622623371075
738472.45413643075153231621,5.37293618579669,0.396969512009033,-298.641087069308
738472.45413652132265269756,5.35447248756371,0.369273964659566,-298.641087069308
738472.45413661177735775709,5.30831324198126,0.341578417310099,-298.641087069308
738472.45413670223206281662,5.26215399639882,0.304651020844142,-298.613391521958
738472.45413679268676787615,5.22522659993286,0.276955473494675,-298.659550767541
738472.45413688314147293568,5.17906735435041,0.249259926145207,-298.659550767541
738472.45413697359617799520,5.16983550523392,0.240028077028718,-298.650318918424
738472.45413706405088305473,5.12367625965148,0.203100680562761,-298.68724631489
738472.45413715450558811426,5.1052125614185,0.193868831446272,-298.68724631489
738472.45413724496029317379,5.07751701406903,0.175405133213294,-298.668782616657
738472.45413733541499823332,5.07751701406903,0.166173284096805,-298.668782616657
738472.45413742586970329285,5.06828516495254,0.166173284096805,-298.68724631489
738472.45413751632440835238,5.06828516495254,0.166173284096805,-298.68724631489
738472.45413760677911341190,5.07751701406903,0.175405133213294,-298.641087069308
738472.45413769723381847143,5.07751701406903,0.175405133213294,-298.594927823725
738472.45413778780493885279,5.08674886318552,0.175405133213294,-298.594927823725
738472.45413787825964391232,5.08674886318552,0.175405133213294,-298.641087069308
738472.45413796871434897184,5.1052125614185,0.184636982329783,-298.678014465773
738472.45413805916905403137,5.09598071230201,0.175405133213294,-298.68724631489
738472.45413814962375909090,5.11444441053499,0.193868831446272,-298.678014465773
738472.45413824007846415043,5.09598071230201,0.184636982329783,-298.696478164006
738472.45413833053316920996,5.11444441053499,0.193868831446272,-298.68724631489
738472.45413842098787426949,5.1052125614185,0.175405133213294,-298.68724631489
738472.45413851144257932901,5.1052125614185,0.193868831446272,-298.678014465773
738472.45413860189728438854,5.08674886318552,0.175405133213294,-298.68724631489
738472.45413869235198944807,5.09598071230201,0.175405133213294,-298.668782616657
738472.45413878280669450760,5.07751701406903,0.166173284096805,-298.613391521958
738472.45413887326139956713,5.06828516495254,0.166173284096805,-298.650318918424
738472.45413896371610462666,5.06828516495254,0.166173284096805,-298.668782616657
738472.45413905428722500801,5.05905331583605,0.156941434980316,-298.678014465773
738472.45413914474193006754,5.04982146671956,0.156941434980316,-298.604159672842
738472.45413923519663512707,5.03135776848659,0.147709585863826,-298.678014465773
738472.45413932565134018660,5.04058961760308,0.156941434980316,-298.678014465773
738472.45413941610604524612,5.0221259193701,0.147709585863826,-298.68724631489
738472.45413950656075030565,5.03135776848659,0.156941434980316,-298.613391521958
738472.45413959701545536518,5.00366222113712,0.147709585863826,-298.68724631489
738472.45413968747016042471,5.01289407025361,0.156941434980316,-298.68724631489
738472.45413977792486548424,5.01289407025361,0.147709585863826,-298.678014465773
738472.45413986837957054377,5.00366222113712,0.147709585863826,-298.68724631489
738472.45413995883427560329,5.00366222113712,0.147709585863826,-298.696478164006
738472.45414004928898066282,5.00366222113712,0.147709585863826,-298.678014465773
738472.45414013974368572235,4.98519852290414,0.129245887630848,-298.613391521958
738472.45414023019839078188,5.00366222113712,0.147709585863826,-298.668782616657
738472.45414032076951116323,4.99443037202063,0.147709585863826,-298.622623371075
738472.45414041122421622276,5.06828516495254,0.166173284096805,-298.604159672842
738472.45414050167892128229,5.1052125614185,0.175405133213294,-298.641087069308
738472.45414059213362634182,5.14213995788446,0.193868831446272,-298.650318918424
738472.45414068258833140135,5.16060365611744,0.21233252967925,-298.631855220191
738472.45414077304303646088,5.16060365611744,0.166173284096805,-298.650318918424
738472.45414086349774152040,5.20676290169988,0.193868831446272,-298.696478164006
738472.45414095395244657993,5.1882992034669,0.203100680562761,-298.678014465773
738472.45414104440715163946,5.1882992034669,0.21233252967925,-298.678014465773
738472.45414113486185669899,5.14213995788446,0.184636982329783,-298.650318918424
738472.45414122531656175852,5.15137180700095,0.193868831446272,-298.613391521958
738472.45414131577126681805,5.05905331583605,0.156941434980316,-298.585695974609
738472.45414140622597187757,5.0221259193701,0.156941434980316,-298.678014465773
738472.45414149668067693710,5.00366222113712,0.138477736747337,-298.631855220191
738472.45414158725179731846,4.99443037202063,0.147709585863826,-298.678014465773
738472.45414167770650237799,4.96673482467116,0.129245887630848,-298.68724631489
738472.45414176816120743752,4.96673482467116,0.138477736747337,-298.641087069308
738472.45414185861591249704,4.94827112643818,0.129245887630848,-298.68724631489
738472.45414194907061755657,4.94827112643818,0.129245887630848,-298.696478164006
738472.45414203952532261610,4.94827112643818,0.129245887630848,-298.678014465773
738472.45414212998002767563,4.9390392773217,0.129245887630848,-298.659550767541
738472.45414222043473273516,4.92980742820521,0.129245887630848,-298.68724631489
738472.45414231088943779469,4.87441633350627,0.156941434980316,-298.650318918424
738472.45414240134414285421,4.9390392773217,0.184636982329783,-298.678014465773
738472.45414249179884791374,5.00366222113712,0.203100680562761,-298.659550767541
738472.45414258225355297327,5.34524063844722,0.267723624378185,-298.631855220191
738472.45414267270825803280,6.00993377483444,0.175405133213294,-298.511841181677
738472.45414276316296309233,6.65616321298868,-0.0553910946989349,-298.484145634327
738472.45414285373408347368,6.2130344553972,-0.175405133213294,-298.613391521958
738472.45414294418878853321,5.42832728049562,-0.267723624378185,-298.705710013123
738472.45414303464349359274,4.64362010559404,-0.369273964659566,-298.788796655171
738472.45414312509819865227,4.44975127414777,-0.21233252967925,-298.622623371075
738472.45414321555290371180,4.54206976531266,0.0184636982329783,-298.604159672842
738472.45414330600760877132,4.70824304940947,0.101550340281381,-298.659550767541
738472.45414339646231383085,4.88364818262276,0.147709585863826,-298.659550767541
738472.45414348691701889038,4.98519852290414,0.166173284096805,-298.659550767541
738472.45414357737172394991,5.0221259193701,0.156941434980316,-298.558000427259
738472.45414366782642900944,5.03135776848659,0.166173284096805,-298.622623371075
738472.45414375828113406897,5.05905331583605,0.175405133213294,-298.659550767541
738472.45414384873583912849,5.05905331583605,0.175405133213294,-298.659550767541
738472.45414393919054418802,5.07751701406903,0.184636982329783,-298.585695974609
738472.45414402964524924755,5.09598071230201,0.184636982329783,-298.659550767541
738472.45414412021636962891,5.13290810876797,0.203100680562761,-298.659550767541
738472.45414421067107468843,5.13290810876797,0.203100680562761,-298.631855220191
738472.45414430112577974796,5.16060365611744,0.21233252967925,-298.585695974609
738472.45414439158048480749,5.16060365611744,0.21233252967925,-298.668782616657
738472.45414448203518986702,5.1882992034669,0.22156437879574,-298.641087069308
738472.45414457248989492655,5.20676290169988,0.230796227912229,-298.585695974609
738472.45414466294459998608,5.24369029816584,0.249259926145207,-298.576464125492
738472.45414475339930504560,5.26215399639882,0.267723624378185,-298.521073030793
738472.45414484385401010513,5.28984954374828,0.295419171727653,-298.474913785211
738472.45414493430871516466,5.32677694021424,0.313882869960631,-298.558000427259
738472.45414502476342022419,5.34524063844722,0.341578417310099,-298.641087069308
738472.45414511521812528372,5.37293618579669,0.369273964659566,-298.622623371075
738472.45414520567283034325,5.38216803491317,0.396969512009033,-298.585695974609
738472.45414529612753540277,5.41909543137913,0.424665059358501,-298.613391521958
738472.45414538669865578413,5.41909543137913,0.43389690847499,-298.604159672842
738472.45414547715336084366,5.43755912961211,0.461592455824458,-298.567232276376
738472.45414556760806590319,5.42832728049562,0.461592455824458,-298.613391521958
738472.45414565806277096272,5.43755912961211,0.470824304940947,-298.604159672842
738472.45414574851747602224,5.41909543137913,0.461592455824458,-298.604159672842
738472.45414583897218108177,5.40063173314615,0.443128757591479,-298.576464125492
738472.45414592942688614130,5.34524063844722,0.387737662892544,-298.622623371075
738472.45414601988159120083,5.31754509109775,0.369273964659566,-298.622623371075
738472.45414611033629626036,5.28984954374828,0.350810266426588,-298.622623371075
738472.45414620079100131989,5.23445844904935,0.304651020844142,-298.493377483444
738472.45414629124570637941,5.19753105258339,0.267723624378185,-298.585695974609
738472.45414638170041143894,5.15137180700095,0.240028077028718,-298.650318918424
738472.45414647215511649847,5.13290810876797,0.22156437879574,-298.650318918424
738472.45414656272623687983,5.09598071230201,0.203100680562761,-298.622623371075
738472.45414665318094193935,5.09598071230201,0.193868831446272,-298.558000427259
738472.45414674363564699888,5.07751701406903,0.184636982329783,-298.659550767541
738472.45414683409035205841,5.07751701406903,0.184636982329783,-298.659550767541
738472.45414692454505711794,5.06828516495254,0.184636982329783,-298.631855220191
738472.45414701499976217747,5.08674886318552,0.184636982329783,-298.594927823725
738472.45414710545446723700,5.07751701406903,0.175405133213294,-298.650318918424
738472.45414719590917229652,5.09598071230201,0.193868831446272,-298.659550767541
738472.45414728636387735605,5.08674886318552,0.175405133213294,-298.548768578143
738472.45414737681858241558,5.11444441053499,0.193868831446272,-298.613391521958
738472.45414746727328747511,5.11444441053499,0.184636982329783,-298.650318918424
738472.45414755772799253464,5.12367625965148,0.193868831446272,-298.659550767541
738472.45414764818269759417,5.11444441053499,0.184636982329783,-298.631855220191
738472.45414773863740265369,5.12367625965148,0.193868831446272,-298.650318918424
738472.45414782920852303505,5.1052125614185,0.184636982329783,-298.650318918424
738472.45414791966322809458,5.09598071230201,0.184636982329783,-298.650318918424
738472.45414801011793315411,5.09598071230201,0.184636982329783,-298.604159672842
738472.45414810057263821363,5.06828516495254,0.175405133213294,-298.668782616657
738472.45414819102734327316,5.08674886318552,0.184636982329783,-298.668782616657
738472.45414828148204833269,5.04982146671956,0.166173284096805,-298.594927823725
738472.45414837193675339222,5.05905331583605,0.175405133213294,-298.558000427259
738472.45414846239145845175,5.04058961760308,0.156941434980316,-298.622623371075
738472.45414855284616351128,5.04058961760308,0.166173284096805,-298.604159672842
738472.45414864330086857080,5.03135776848659,0.156941434980316,-298.585695974609
738472.45414873375557363033,5.03135776848659,0.156941434980316,-298.604159672842
738472.45414882421027868986,5.01289407025361,0.147709585863826,-298.594927823725
738472.45414891466498374939,5.03135776848659,0.156941434980316,-298.604159672842
738472.45414900511968880892,5.01289407025361,0.147709585863826,-298.668782616657
738472.45414909569080919027,5.0221259193701,0.147709585863826,-298.678014465773
738472.45414918614551424980,5.00366222113712,0.147709585863826,-298.641087069308
738472.45414927660021930933,5.00366222113712,0.147709585863826,-298.650318918424
738472.45414936705492436886,5.00366222113712,0.147709585863826,-298.659550767541
738472.45414945750962942839,4.99443037202063,0.147709585863826,-298.668782616657
738472.45414954796433448792,4.99443037202063,0.147709585863826,-298.613391521958
738472.45414963841903954744,4.98519852290414,0.147709585863826,-298.668782616657
738472.45414972887374460697,4.99443037202063,0.147709585863826,-298.668782616657
738472.45414981932844966650,4.98519852290414,0.147709585863826,-298.678014465773
738472.45414990978315472603,5.00366222113712,0.156941434980316,-298.604159672842
738472.45415000023785978556,4.98519852290414,0.138477736747337,-298.668782616657
738472.45415009069256484509,4.99443037202063,0.147709585863826,-298.668782616657
738472.45415018114726990461,4.98519852290414,0.129245887630848,-298.650318918424
738472.45415027160197496414,5.00366222113712,0.147709585863826,-298.641087069308
738472.45415036217309534550,4.99443037202063,0.138477736747337,-298.659550767541
738472.45415045262780040503,4.99443037202063,0.147709585863826,-298.659550767541
738472.45415054308250546455,4.99443037202063,0.138477736747337,-298.604159672842
738472.45415063353721052408,4.99443037202063,0.138477736747337,-298.493377483444
738472.45415072399191558361,4.99443037202063,0.138477736747337,-298.659550767541
738472.45415081444662064314,5.01289407025361,0.147709585863826,-298.650318918424
738472.45415090490132570267,5.0221259193701,0.156941434980316,-298.548768578143
738472.45415099535603076220,5.04982146671956,0.166173284096805,-298.650318918424
738472.45415108581073582172,5.11444441053499,0.184636982329783,-298.668782616657
738472.45415117626544088125,5.14213995788446,0.193868831446272,-298.668782616657
738472.45415126672014594078,5.17906735435041,0.184636982329783,-298.631855220191
738472.45415135717485100031,5.16983550523392,0.166173284096805,-298.668782616657
738472.45415144762955605984,5.20676290169988,0.193868831446272,-298.668782616657
738472.45415153808426111937,5.17906735435041,0.193868831446272,-298.631855220191
738472.45415162865538150072,5.1882992034669,0.203100680562761,-298.659550767541
738472.45415171911008656025,5.16060365611744,0.193868831446272,-298.659550767541
738472.45415180956479161978,5.13290810876797,0.184636982329783,-298.613391521958
738472.45415190001949667931,5.06828516495254,0.156941434980316,-298.50260933256
738472.45415199047420173883,5.04058961760308,0.156941434980316,-298.594927823725
738472.45415208092890679836,5.01289407025361,0.147709585863826,-298.585695974609
738472.45415217138361185789,4.97596667378765,0.138477736747337,-298.594927823725
738472.45415226183831691742,4.98519852290414,0.138477736747337,-298.613391521958
738472.45415235229302197695,4.96673482467116,0.138477736747337,-298.613391521958
738472.45415244274772703648,4.96673482467116,0.138477736747337,-298.585695974609
738472.45415253320243209600,4.9390392773217,0.129245887630848,-298.558000427259
738472.45415262365713715553,4.95750297555467,0.138477736747337,-298.650318918424
738472.45415271411184221506,4.9390392773217,0.120014038514359,-298.659550767541
738472.45415280456654727459,4.9390392773217,0.138477736747337,-298.594927823725
738472.45415289513766765594,4.86518448438978,0.166173284096805,-298.659550767541
738472.45415298559237271547,4.97596667378765,0.193868831446272,-298.641087069308
738472.45415307604707777500,5.17906735435041,0.240028077028718,-298.576464125492
738472.45415316650178283453,5.76067384868923,0.240028077028718,-298.594927823725
738472.45415325695648789406,6.53614917447432,-0.00923184911648915,-298.576464125492
738472.45415334741119295359,6.54538102359081,-0.101550340281381,-298.539536729026
738472.45415343786589801311,5.72374645222327,-0.230796227912229,-298.53030487991
738472.45415352832060307264,5.3637043366802,-0.295419171727653,-298.714941862239
738472.45415361877530813217,4.64362010559404,-0.341578417310099,-298.770332956938
738472.45415370923001319170,4.47744682149724,-0.184636982329783,-298.668782616657
738472.45415379968471825123,4.58822901089511,0.0461592455824458,-298.668782616657
738472.45415389013942331076,4.75440229499191,0.11078218939787,-298.650318918424
738472.45415398059412837029,4.92980742820521,0.156941434980316,-298.631855220191
738472.45415407104883342981,4.99443037202063,0.156941434980316,-298.659550767541
738472.45415416161995381117,5.0221259193701,0.166173284096805,-298.641087069308
738472.45415425207465887070,5.0221259193701,0.156941434980316,-298.631855220191
738472.45415434252936393023,5.05905331583605,0.175405133213294,-298.631855220191
738472.45415443298406898975,5.06828516495254,0.166173284096805,-298.631855220191
738472.45415452343877404928,5.09598071230201,0.184636982329783,-298.641087069308
738472.45415461389347910881,5.08674886318552,0.184636982329783,-298.641087069308
738472.45415470434818416834,5.12367625965148,0.203100680562761,-298.641087069308
738472.45415479480288922787,5.13290810876797,0.193868831446272,-298.631855220191
738472.45415488525759428740,5.17906735435041,0.22156437879574,-298.613391521958
738472.45415497571229934692,5.16983550523392,0.22156437879574,-298.631855220191
738472.45415506616700440645,5.20676290169988,0.230796227912229,-298.622623371075
738472.45415515662170946598,5.22522659993286,0.249259926145207,-298.548768578143
738472.45415524707641452551,5.25292214728233,0.267723624378185,-298.613391521958
738472.45415533753111958504,5.2713858455153,0.286187322611164,-298.613391521958
738472.45415542810223996639,5.28984954374828,0.295419171727653,-298.604159672842
738472.45415551855694502592,5.32677694021424,0.32311471907712,-298.548768578143
738472.45415560901165008545,5.33600878933073,0.32311471907712,-298.604159672842
738472.45415569946635514498,5.38216803491317,0.350810266426588,-298.594927823725
738472.45415578992106020451,5.38216803491317,0.396969512009033,-298.521073030793
738472.45415588037576526403,5.40063173314615,0.424665059358501,-298.594927823725
738472.45415597083047032356,5.40063173314615,0.424665059358501,-298.585695974609
738472.45415606128517538309,5.41909543137913,0.387737662892544,-298.594927823725
738472.45415615173988044262,5.41909543137913,0.470824304940947,-298.576464125492
738472.45415624219458550215,5.43755912961211,0.526215399639882,-298.511841181677
738472.45415633264929056168,5.41909543137913,0.489288003173925,-298.53030487991
738472.45415642310399562120,5.40986358226264,0.461592455824458,-298.511841181677
738472.45415651355870068073,5.3637043366802,0.415433210242012,-298.511841181677
738472.45415660401340574026,5.32677694021424,0.387737662892544,-298.548768578143
738472.45415669458452612162,5.2713858455153,0.32311471907712,-298.558000427259
738472.45415678503923118114,5.25292214728233,0.304651020844142,-298.585695974609
738472.45415687549393624067,5.19753105258339,0.32311471907712,-298.585695974609
738472.45415696594864130020,5.16060365611744,0.258491775261696,-298.641087069308
738472.45415705640334635973,5.13290810876797,0.249259926145207,-298.641087069308
738472.45415714685805141926,5.11444441053499,0.258491775261696,-298.622623371075
738472.45415723731275647879,5.12367625965148,0.249259926145207,-298.631855220191
738472.45415732776746153831,5.09598071230201,0.22156437879574,-298.641087069308
738472.45415741822216659784,5.1052125614185,0.203100680562761,-298.650318918424
738472.45415750867687165737,5.08674886318552,0.240028077028718,-298.641087069308
738472.45415759913157671690,5.1052125614185,0.230796227912229,-298.641087069308
738472.45415768958628177643,5.12367625965148,0.22156437879574,-298.641087069308
738472.45415778004098683596,5.11444441053499,0.240028077028718,-298.613391521958
738472.45415787061210721731,5.12367625965148,0.240028077028718,-298.631855220191
738472.45415796106681227684,5.13290810876797,0.240028077028718,-298.631855220191
738472.45415805152151733637,5.13290810876797,0.230796227912229,-298.576464125492
738472.45415814197622239590,5.13290810876797,0.230796227912229,-298.631855220191
738472.45415823243092745543,5.13290810876797,0.240028077028718,-298.622623371075
738472.45415832288563251495,5.13290810876797,0.203100680562761,-298.594927823725
738472.45415841334033757448,5.13290810876797,0.21233252967925,-298.641087069308
738472.45415850379504263401,5.11444441053499,0.230796227912229,-298.631855220191
738472.45415859424974769354,5.12367625965148,0.230796227912229,-298.631855220191
738472.45415868470445275307,5.09598071230201,0.184636982329783,-298.631855220191
738472.45415877515915781260,5.09598071230201,0.193868831446272,-298.641087069308
738472.45415886561386287212,5.07751701406903,0.184636982329783,-298.447218237861
738472.45415895606856793165,5.07751701406903,0.203100680562761,-298.456450086978
738472.45415904652327299118,5.07751701406903,0.22156437879574,-298.576464125492
738472.45415913709439337254,5.05905331583605,0.22156437879574,-298.641087069308
738472.45415922754909843206,5.05905331583605,0.193868831446272,-298.631855220191
738472.45415931800380349159,5.05905331583605,0.184636982329783,-298.576464125492
738472.45415940845850855112,5.05905331583605,0.166173284096805,-298.622623371075
738472.45415949891321361065,5.04058961760308,0.129245887630848,-298.641087069308
738472.45415958936791867018,5.05905331583605,0.175405133213294,-298.641087069308
738472.45415967982262372971,5.03135776848659,0.166173284096805,-298.585695974609
738472.45415977027732878923,5.04058961760308,0.166173284096805,-298.650318918424
738472.45415986073203384876,5.04058961760308,0.175405133213294,-298.641087069308
738472.45415995118673890829,5.04058961760308,0.184636982329783,-298.585695974609
738472.45416004164144396782,5.01289407025361,0.184636982329783,-298.641087069308
738472.45416013209614902735,5.03135776848659,0.184636982329783,-298.631855220191
738472.45416022255085408688,5.0221259193701,0.184636982329783,-298.631855220191
738472.45416031300555914640,5.03135776848659,0.156941434980316,-298.567232276376
738472.45416040357667952776,5.00366222113712,0.0369273964659566,-298.631855220191
738472.45416049403138458729,5.0221259193701,0.120014038514359,-298.650318918424
738472.45416058448608964682,5.0221259193701,0.240028077028718,-298.641087069308
738472.45416067494079470634,5.03135776848659,0.193868831446272,-298.567232276376
738472.45416076539549976587,5.03135776848659,0.193868831446272,-298.576464125492
738472.45416085585020482540,5.03135776848659,0.184636982329783,-298.594927823725
738472.45416094630490988493,5.03135776848659,0.193868831446272,-298.585695974609
738472.45416103675961494446,5.0221259193701,0.184636982329783,-298.558000427259
738472.45416112721432000399,5.0221259193701,0.147709585863826,-298.585695974609
738472.45416121766902506351,5.01289407025361,0.138477736747337,-298.641087069308
738472.45416130812373012304,5.04058961760308,0.11078218939787,-298.576464125492
738472.45416139857843518257,5.00366222113712,0.175405133213294,-298.631855220191
738472.45416148903314024210,5.03135776848659,0.240028077028718,-298.659550767541
738472.45416157948784530163,5.01289407025361,0.203100680562761,-298.631855220191
738472.45416167005896568298,5.04058961760308,0.193868831446272,-298.594927823725
738472.45416176051367074251,5.01289407025361,0.147709585863826,-298.650318918424
738472.45416185096837580204,5.03135776848659,0.175405133213294,-298.641087069308
738472.45416194142308086157,5.03135776848659,0.193868831446272,-298.576464125492
738472.45416203187778592110,5.08674886318552,0.203100680562761,-298.641087069308
738472.45416212233249098063,5.11444441053499,0.175405133213294,-298.650318918424
738472.45416221278719604015,5.16060365611744,0.21233252967925,-298.594927823725
738472.45416230324190109968,5.19753105258339,0.193868831446272,-298.650318918424
738472.45416239369660615921,5.21599475081637,0.249259926145207,-298.456450086978
738472.45416248415131121874,5.22522659993286,0.276955473494675,-298.558000427259
738472.45416257460601627827,5.23445844904935,0.249259926145207,-298.604159672842
738472.45416266506072133780,5.22522659993286,0.249259926145207,-298.631855220191
738472.45416275551542639732,5.1882992034669,0.230796227912229,-298.631855220191
738472.45416284597013145685,5.17906735435041,0.21233252967925,-298.613391521958
738472.45416293654125183821,5.09598071230201,0.203100680562761,-298.631855220191
738472.45416302699595689774,5.04982146671956,0.101550340281381,-298.650318918424
738472.45416311745066195726,5.03135776848659,0.147709585863826,-298.622623371075
738472.45416320790536701679,5.0221259193701,0.258491775261696,-298.622623371075
738472.45416329836007207632,4.99443037202063,0.193868831446272,-298.650318918424
738472.45416338881477713585,5.00366222113712,0.175405133213294,-298.650318918424
738472.45416347926948219538,4.97596667378765,0.166173284096805,-298.650318918424
738472.45416356972418725491,4.99443037202063,0.175405133213294,-298.641087069308
738472.45416366017889231443,4.98519852290414,0.156941434980316,-298.594927823725
738472.45416375063359737396,4.96673482467116,0.147709585863826,-298.567232276376
738472.45416384108830243349,4.95750297555467,0.147709585863826,-298.594927823725
738472.45416393154300749302,4.89288003173925,0.175405133213294,-298.622623371075
738472.45416402199771255255,5.00366222113712,0.166173284096805,-298.548768578143
738472.45416411245241761208,5.22522659993286,0.249259926145207,-298.604159672842
738472.45416420302353799343,5.80683309427168,0.286187322611164,-298.613391521958
738472.45416429347824305296,6.59154026917325,0.0738547929319132,-298.493377483444
738472.45416438393294811249,6.44383068330943,-0.064622943815424,-298.53030487991
738472.45416447438765317202,6.00993377483444,-0.166173284096805,-298.594927823725
738472.45416456484235823154,5.28061769463179,-0.295419171727653,-298.714941862239
738472.45416465529706329107,4.63438825647755,-0.341578417310099,-298.714941862239
738472.45416474575176835060,4.54206976531266,-0.129245887630848,-298.668782616657
738472.45416483620647341013,4.61592455824457,0.0830866420484024,-298.622623371075
738472.45416492666117846966,4.7636341441084,0.0553910946989349,-298.631855220191
738472.45416501711588352919,4.94827112643818,0.193868831446272,-298.576464125492
738472.45416510757058858871,5.0221259193701,0.249259926145207,-298.613391521958
738472.45416519802529364824,5.05905331583605,0.22156437879574,-298.622623371075
738472.45416528847999870777,5.06828516495254,0.203100680562761,-298.613391521958
738472.45416537893470376730,5.09598071230201,0.175405133213294,-298.622623371075
738472.45416546950582414865,5.09598071230201,0.203100680562761,-298.641087069308
738472.45416555996052920818,5.13290810876797,0.240028077028718,-298.613391521958
738472.45416565041523426771,5.13290810876797,0.249259926145207,-298.576464125492
738472.45416574086993932724,5.15137180700095,0.240028077028718,-298.631855220191
738472.45416583132464438677,5.16060365611744,0.21233252967925,-298.604159672842
738472.45416592177934944630,5.19753105258339,0.240028077028718,-298.382595294046
738472.45416601223405450583,5.21599475081637,0.258491775261696,-298.53030487991
738472.45416610268875956535,5.25292214728233,0.249259926145207,-298.594927823725
738472.45416619314346462488,5.26215399639882,0.276955473494675,-298.567232276376
738472.45416628359816968441,5.28984954374828,0.276955473494675,-298.594927823725
738472.45416637405287474394,5.29908139286477,0.276955473494675,-298.604159672842
738472.45416646450757980347,5.32677694021424,0.360042115543077,-298.585695974609
738472.45416655496228486300,5.35447248756371,0.387737662892544,-298.474913785211
738472.45416664541698992252,5.3637043366802,0.369273964659566,-298.585695974609
738472.45416673598811030388,5.40986358226264,0.387737662892544,-298.585695974609
738472.45416682644281536341,5.41909543137913,0.406201361125523,-298.567232276376
738472.45416691689752042294,5.42832728049562,0.424665059358501,-298.53030487991
738472.45416700735222548246,5.42832728049562,0.489288003173925,-298.558000427259
738472.45416709780693054199,5.45602282784509,0.526215399639882,-298.539536729026
738472.45416718826163560152,5.43755912961211,0.480056154057436,-298.493377483444
738472.45416727871634066105,5.43755912961211,0.516983550523392,-298.548768578143
738472.45416736917104572058,5.41909543137913,0.516983550523392,-298.548768578143
738472.45416745962575078011,5.41909543137913,0.498519852290414,-298.521073030793
738472.45416755008045583963,5.37293618579669,0.452360606707968,-298.567232276376
738472.45416764053516089916,5.3637043366802,0.387737662892544,-298.585695974609
738472.45416773098986595869,5.30831324198126,0.378505813776055,-298.567232276376
738472.45416782144457101822,5.28061769463179,0.341578417310099,-298.50260933256
738472.45416791189927607775,5.21599475081637,0.258491775261696,-298.604159672842
738472.45416800247039645910,5.20676290169988,0.295419171727653,-298.594927823725
738472.45416809292510151863,5.15137180700095,0.276955473494675,-298.585695974609
738472.45416818337980657816,5.15137180700095,0.258491775261696,-298.604159672842
738472.45416827383451163769,5.16060365611744,0.240028077028718,-298.594927823725
738472.45416836428921669722,5.12367625965148,0.203100680562761,-298.567232276376
738472.45416845474392175674,5.15137180700095,0.240028077028718,-298.604159672842
738472.45416854519862681627,5.13290810876797,0.230796227912229,-298.585695974609
738472.45416863565333187580,5.13290810876797,0.240028077028718,-298.585695974609
738472.45416872610803693533,5.14213995788446,0.184636982329783,-298.613391521958
738472.45416881656274199486,5.16060365611744,0.193868831446272,-298.585695974609
738472.45416890701744705439,5.14213995788446,0.249259926145207,-298.558000427259
738472.45416899747215211391,5.16983550523392,0.184636982329783,-298.613391521958
738472.45416908792685717344,5.16060365611744,0.21233252967925,-298.594927823725
738472.45416917849797755480,5.16060365611744,0.286187322611164,-298.604159672842
738472.45416926895268261433,5.14213995788446,0.240028077028718,-298.613391521958
738472.45416935940738767385,5.15137180700095,0.129245887630848,-298.585695974609
738472.45416944986209273338,5.13290810876797,0.203100680562761,-298.465681936094
738472.45416954031679779291,5.13290810876797,0.230796227912229,-298.548768578143
738472.45416963077150285244,5.13290810876797,0.22156437879574,-298.604159672842
738472.45416972122620791197,5.11444441053499,0.249259926145207,-298.622623371075
738472.45416981168091297150,5.09598071230201,0.230796227912229,-298.576464125492
738472.45416990213561803102,5.1052125614185,0.156941434980316,-298.576464125492
738472.45416999259032309055,5.1052125614185,0.064622943815424,-298.576464125492
738472.45417008304502815008,5.06828516495254,0.064622943815424,-298.594927823725
738472.45417017349973320961,5.1052125614185,0.295419171727653,-298.558000427259
738472.45417026395443826914,5.07751701406903,0.258491775261696,-298.567232276376
738472.45417035440914332867,5.07751701406903,0.240028077028718,-298.604159672842
738472.45417044498026371002,5.05905331583605,0.203100680562761,-298.631855220191
738472.45417053543496876955,5.06828516495254,0.175405133213294,-298.631855220191
738472.45417062588967382908,5.04982146671956,0.175405133213294,-298.594927823725
738472.45417071634437888861,5.05905331583605,0.129245887630848,-298.622623371075
738472.45417080679908394814,5.04982146671956,0.166173284096805,-298.631855220191
738472.45417089725378900766,5.06828516495254,0.175405133213294,-298.613391521958
738472.45417098770849406719,5.04982146671956,0.138477736747337,-298.548768578143
738472.45417107816319912672,5.04058961760308,0.193868831446272,-298.641087069308
738472.45417116861790418625,5.06828516495254,0.240028077028718,-298.631855220191
738472.45417125907260924578,5.06828516495254,0.230796227912229,-298.576464125492
738472.45417134952731430531,5.04982146671956,0.147709585863826,-298.641087069308
738472.45417143998201936483,5.03135776848659,0.120014038514359,-298.641087069308
738472.45417153043672442436,5.04982146671956,0.166173284096805,-298.594927823725
738472.45417162089142948389,5.04982146671956,0.21233252967925,-298.622623371075
738472.45417171146254986525,5.05905331583605,0.203100680562761,-298.641087069308
738472.45417180191725492477,5.04982146671956,0.203100680562761,-298.641087069308
738472.45417189237195998430,5.05905331583605,0.175405133213294,-298.567232276376
738472.45417198282666504383,5.04982146671956,0.147709585863826,-298.622623371075
738472.45417207328137010336,5.04058961760308,0.156941434980316,-298.641087069308
738472.45417216373607516289,5.04982146671956,0.175405133213294,-298.613391521958
738472.45417225419078022242,5.04058961760308,0.129245887630848,-298.613391521958
738472.45417234464548528194,5.04982146671956,0.175405133213294,-298.613391521958
738472.45417243510019034147,5.05905331583605,0.258491775261696,-298.558000427259
738472.45417252555489540100,5.04058961760308,0.0738547929319132,-298.613391521958
738472.45417261600960046053,5.04982146671956,0.156941434980316,-298.613391521958
738472.45417270646430552006,5.06828516495254,0.267723624378185,-298.585695974609
738472.45417279691901057959,5.04058961760308,0.22156437879574,-298.558000427259
738472.45417288737371563911,5.04982146671956,0.120014038514359,-298.604159672842
738472.45417297794483602047,5.04982146671956,0.101550340281381,-298.428754539628
738472.45417306839954108000,5.06828516495254,0.138477736747337,-298.50260933256
738472.45417315885424613953,5.14213995788446,0.313882869960631,-298.53030487991
738472.45417324930895119905,5.20676290169988,0.332346568193609,-298.558000427259
738472.45417333976365625858,5.1882992034669,0.156941434980316,-298.585695974609
738472.45417343021836131811,5.24369029816584,0.184636982329783,-298.576464125492
738472.45417352067306637764,5.25292214728233,0.32311471907712,-298.604159672842
738472.45417361112777143717,5.2713858455153,0.286187322611164,-298.622623371075
738472.45417370158247649670,5.25292214728233,0.240028077028718,-298.631855220191
738472.45417379203718155622,5.23445844904935,0.267723624378185,-298.576464125492
738472.45417388249188661575,5.22522659993286,0.276955473494675,-298.631855220191
738472.45417397294659167528,5.17906735435041,0.203100680562761,-298.641087069308
738472.45417406340129673481,5.1052125614185,0.184636982329783,-298.594927823725
738472.45417415385600179434,5.04982146671956,0.22156437879574,-298.631855220191
738472.45417424442712217569,5.04058961760308,0.203100680562761,-298.631855220191
738472.45417433488182723522,5.01289407025361,0.156941434980316,-298.622623371075
738472.45417442533653229475,5.0221259193701,0.230796227912229,-298.558000427259
738472.45417451579123735428,5.01289407025361,0.203100680562761,-298.622623371075
738472.45417460624594241381,5.03135776848659,0.21233252967925,-298.613391521958
738472.45417469670064747334,4.96673482467116,0.175405133213294,-298.558000427259
738472.45417478715535253286,5.01289407025361,0.193868831446272,-298.622623371075
738472.45417487761005759239,4.98519852290414,0.166173284096805,-298.622623371075
738472.45417496806476265192,4.9390392773217,0.21233252967925,-298.567232276376
738472.45417505851946771145,4.91134372997223,0.21233252967925,-298.622623371075
738472.45417514897417277098,5.08674886318552,0.276955473494675,-298.604159672842
738472.45417523942887783051,5.45602282784509,0.249259926145207,-298.558000427259
738472.45417532988358289003,6.19457075716422,0.120014038514359,-298.53030487991
738472.45417542033828794956,6.60077211828974,0.0276955473494674,-298.53030487991
738472.45417551090940833092,6.39767143772698,-0.0369273964659566,-298.53030487991
738472.45417560136411339045,5.59450056459243,-0.313882869960631,-298.650318918424
738472.45417569181881844997,4.89288003173925,-0.341578417310099,-298.733405560472
738472.45417578227352350950,4.55130161442915,-0.156941434980316,-298.696478164006
738472.45417587272822856903,4.56053346354564,-0.0461592455824458,-298.641087069308
738472.45417596318293362856,4.72670674764244,0.156941434980316,-298.594927823725
738472.45417605363763868809,4.88364818262276,0.101550340281381,-298.613391521958
738472.45417614409234374762,5.0221259193701,0.22156437879574,-298.604159672842
738472.45417623454704880714,5.04058961760308,0.230796227912229,-298.558000427259
738472.45417632500175386667,5.07751701406903,0.147709585863826,-298.622623371075
738472.45417641545645892620,5.08674886318552,0.21233252967925,-298.613391521958
738472.45417650591116398573,5.1052125614185,0.249259926145207,-298.428754539628
738472.45417659636586904526,5.11444441053499,0.249259926145207,-298.484145634327
738472.45417668682057410479,5.15137180700095,0.193868831446272,-298.558000427259
738472.45417677739169448614,5.15137180700095,0.22156437879574,-298.539536729026
738472.45417686784639954567,5.17906735435041,0.240028077028718,-298.548768578143
738472.45417695830110460520,5.19753105258339,0.22156437879574,-298.539536729026
738472.45417704875580966473,5.22522659993286,0.32311471907712,-298.53030487991
738472.45417713921051472425,5.2713858455153,0.286187322611164,-298.53030487991
738472.45417722966521978378,5.26215399639882,0.21233252967925,-298.594927823725
738472.45417732011992484331,5.29908139286477,0.286187322611164,-298.585695974609
738472.45417741057462990284,5.29908139286477,0.313882869960631,-298.585695974609
738472.45417750102933496237,5.33600878933073,0.378505813776055,-298.548768578143
738472.45417759148404002190,5.34524063844722,0.304651020844142,-298.604159672842
738472.45417768193874508142,5.39139988402966,0.378505813776055,-298.576464125492
738472.45417777239345014095,5.39139988402966,0.350810266426588,-298.641087069308
738472.45417786284815520048,5.43755912961211,0.43389690847499,-298.613391521958
738472.45417795330286026001,5.43755912961211,0.54467909787286,-298.558000427259
738472.45417804387398064137,5.45602282784509,0.443128757591479,-298.604159672842
738472.45417813432868570089,5.46525467696158,0.452360606707968,-298.622623371075
738472.45417822478339076042,5.46525467696158,0.609302041688284,-298.521073030793
738472.45417831523809581995,5.4467909787286,0.461592455824458,-298.558000427259
738472.45417840569280087948,5.4467909787286,0.443128757591479,-298.576464125492
738472.45417849614750593901,5.45602282784509,0.535447248756371,-298.548768578143
738472.45417858660221099854,5.41909543137913,0.535447248756371,-298.567232276376
738472.45417867705691605806,5.40063173314615,0.535447248756371,-298.585695974609
738472.45417876751162111759,5.34524063844722,0.387737662892544,-298.585695974609
738472.45417885796632617712,5.31754509109775,0.396969512009033,-298.594927823725
738472.45417894842103123665,5.28061769463179,0.406201361125523,-298.604159672842
738472.45417903887573629618,5.25292214728233,0.332346568193609,-298.622623371075
738472.45417912933044135571,5.20676290169988,0.304651020844142,-298.631855220191
738472.45417921978514641523,5.20676290169988,0.295419171727653,-298.594927823725
738472.45417931035626679659,5.1882992034669,0.267723624378185,-298.631855220191
738472.45417940081097185612,5.16983550523392,0.249259926145207,-298.631855220191
738472.45417949126567691565,5.1882992034669,0.258491775261696,-298.576464125492
738472.45417958172038197517,5.16060365611744,0.258491775261696,-298.576464125492
738472.45417967217508703470,5.17906735435041,0.258491775261696,-298.631855220191
738472.45417976262979209423,5.16983550523392,0.258491775261696,-298.631855220191
738472.45417985308449715376,5.19753105258339,0.276955473494675,-298.567232276376
738472.45417994353920221329,5.16060365611744,0.249259926145207,-298.631855220191
738472.45418003399390727282,5.17906735435041,0.267723624378185,-298.511841181677
738472.45418012444861233234,5.17906735435041,0.258491775261696,-298.50260933256
738472.45418021490331739187,5.19753105258339,0.267723624378185,-298.631855220191
738472.45418030535802245140,5.17906735435041,0.249259926145207,-298.604159672842
738472.45418039581272751093,5.1882992034669,0.258491775261696,-298.576464125492
738472.45418048626743257046,5.15137180700095,0.267723624378185,-298.576464125492
738472.45418057683855295181,5.16983550523392,0.276955473494675,-298.604159672842
738472.45418066729325801134,5.14213995788446,0.240028077028718,-298.622623371075
738472.45418075774796307087,5.15137180700095,0.240028077028718,-298.539536729026
738472.45418084820266813040,5.13290810876797,0.22156437879574,-298.641087069308
738472.45418093865737318993,5.13290810876797,0.230796227912229,-298.678014465773
738472.45418102911207824945,5.13290810876797,0.230796227912229,-298.668782616657
738472.45418111956678330898,5.09598071230201,0.203100680562761,-298.631855220191
738472.45418121002148836851,5.11444441053499,0.21233252967925,-298.668782616657
738472.45418130047619342804,5.09598071230201,0.21233252967925,-298.631855220191
738472.45418139093089848757,5.1052125614185,0.22156437879574,-298.622623371075
738472.45418148138560354710,5.09598071230201,0.203100680562761,-298.641087069308
738472.45418157184030860662,5.09598071230201,0.21233252967925,-298.641087069308
738472.45418166229501366615,5.06828516495254,0.193868831446272,-298.613391521958
738472.45418175286613404751,5.08674886318552,0.203100680562761,-298.585695974609
738472.45418184332083910704,5.08674886318552,0.193868831446272,-298.585695974609
738472.45418193377554416656,5.08674886318552,0.203100680562761,-298.585695974609
738472.45418202423024922609,5.06828516495254,0.193868831446272,-298.558000427259
738472.45418211468495428562,5.08674886318552,0.203100680562761,-298.585695974609
738472.45418220513965934515,5.06828516495254,0.193868831446272,-298.641087069308
738472.45418229559436440468,5.08674886318552,0.21233252967925,-298.594927823725
738472.45418238604906946421,5.05905331583605,0.184636982329783,-298.650318918424
738472.45418247650377452374,5.06828516495254,0.184636982329783,-298.650318918424
738472.45418256695847958326,5.06828516495254,0.184636982329783,-298.631855220191
738472.45418265741318464279,5.07751701406903,0.193868831446272,-298.631855220191
738472.45418274786788970232,5.05905331583605,0.184636982329783,-298.650318918424
738472.45418283832259476185,5.05905331583605,0.184636982329783,-298.650318918424
738472.45418292877729982138,5.07751701406903,0.193868831446272,-298.613391521958
738472.45418301934842020273,5.05905331583605,0.175405133213294,-298.641087069308
738472.45418310980312526226,5.07751701406903,0.184636982329783,-298.641087069308
738472.45418320025783032179,5.05905331583605,0.175405133213294,-298.631855220191
738472.45418329071253538132,5.07751701406903,0.184636982329783,-298.548768578143
738472.45418338116724044085,5.05905331583605,0.175405133213294,-298.641087069308
738472.45418347162194550037,5.06828516495254,0.184636982329783,-298.641087069308
738472.45418356207665055990,5.07751701406903,0.184636982329783,-298.511841181677
738472.45418365253135561943,5.07751701406903,0.193868831446272,-298.539536729026
738472.45418374298606067896,5.12367625965148,0.203100680562761,-298.641087069308
738472.45418383344076573849,5.17906735435041,0.230796227912229,-298.622623371075
738472.45418392389547079802,5.21599475081637,0.240028077028718,-298.622623371075
738472.45418401435017585754,5.23445844904935,0.21233252967925,-298.659550767541
738472.45418410480488091707,5.2713858455153,0.22156437879574,-298.650318918424
738472.45418419525958597660,5.28061769463179,0.249259926145207,-298.576464125492
738472.45418428583070635796,5.26215399639882,0.240028077028718,-298.641087069308
738472.45418437628541141748,5.24369029816584,0.230796227912229,-298.631855220191
738472.45418446674011647701,5.21599475081637,0.230796227912229,-298.567232276376
738472.45418455719482153654,5.13290810876797,0.193868831446272,-298.604159672842
738472.45418464764952659607,5.1052125614185,0.193868831446272,-298.585695974609
738472.45418473810423165560,5.08674886318552,0.184636982329783,-298.604159672842
738472.45418482855893671513,5.06828516495254,0.175405133213294,-298.613391521958
738472.45418491901364177465,5.05905331583605,0.175405133213294,-298.631855220191
738472.45418500946834683418,5.03135776848659,0.166173284096805,-298.613391521958
738472.45418509992305189371,5.0221259193701,0.156941434980316,-298.585695974609
738472.45418519037775695324,5.03135776848659,0.166173284096805,-298.613391521958
738472.45418528083246201277,5.01289407025361,0.156941434980316,-298.576464125492
738472.45418537128716707230,5.00366222113712,0.147709585863826,-298.631855220191
738472.45418546174187213182,4.99443037202063,0.147709585863826,-298.641087069308
738472.45418555231299251318,4.9390392773217,0.175405133213294,-298.650318918424
738472.45418564276769757271,4.95750297555467,0.203100680562761,-298.68724631489
738472.45418573322240263224,5.09598071230201,0.249259926145207,-298.68724631489
738472.45418582367710769176,5.50218207342753,0.286187322611164,-298.548768578143
738472.45418591413181275129,6.20380260628071,0.166173284096805,-298.493377483444
738472.45418600458651781082,6.57307657094027,-0.0276955473494674,-298.493377483444
738472.45418609504122287035,5.97300637836848,-0.193868831446272,-298.585695974609
738472.45418618549592792988,5.2713858455153,-0.332346568193609,-298.696478164006
738472.45418627595063298941,4.62515640736106,-0.341578417310099,-298.770332956938
738472.45418636640533804893,4.57899716177862,-0.138477736747337,-298.650318918424
738472.45418645686004310846,4.65285195471053,0.0738547929319132,-298.613391521958
738472.45418654731474816799,4.73593859675893,0.120014038514359,-298.539536729026
738472.45418663776945322752,4.92057557908872,0.175405133213294,-298.567232276376
738472.45418672822415828705,5.01289407025361,0.175405133213294,-298.576464125492
738472.45418681879527866840,5.06828516495254,0.175405133213294,-298.613391521958
738472.45418690924998372793,5.09598071230201,0.184636982329783,-298.576464125492
738472.45418699970468878746,5.12367625965148,0.203100680562761,-298.678014465773
738472.45418709015939384699,5.12367625965148,0.193868831446272,-298.558000427259
738472.45418718061409890652,5.16983550523392,0.22156437879574,-298.474913785211
738472.45418727106880396605,5.16060365611744,0.203100680562761,-298.659550767541
738472.45418736152350902557,5.19753105258339,0.230796227912229,-298.668782616657
738472.45418745197821408510,5.19753105258339,0.21233252967925,-298.585695974609
738472.45418754243291914463,5.23445844904935,0.240028077028718,-298.641087069308
738472.45418763288762420416,5.22522659993286,0.230796227912229,-298.668782616657
738472.45418772334232926369,5.28061769463179,0.267723624378185,-298.631855220191
738472.45418781379703432322,5.29908139286477,0.286187322611164,-298.604159672842
738472.45418790425173938274,5.29908139286477,0.267723624378185,-298.650318918424
738472.45418799470644444227,5.31754509109775,0.286187322611164,-298.613391521958
738472.45418808527756482363,5.38216803491317,0.332346568193609,-298.567232276376
738472.45418817573226988316,5.3637043366802,0.32311471907712,-298.613391521958
738472.45418826618697494268,5.40063173314615,0.350810266426588,-298.641087069308
738472.45418835664168000221,5.41909543137913,0.369273964659566,-298.613391521958
738472.45418844709638506174,5.42832728049562,0.406201361125523,-298.567232276376
738472.45418853755109012127,5.46525467696158,0.443128757591479,-298.613391521958
738472.45418862800579518080,5.4467909787286,0.461592455824458,-298.622623371075
738472.45418871846050024033,5.48371837519456,0.507751701406903,-298.521073030793
738472.45418880891520529985,5.45602282784509,0.489288003173925,-298.604159672842
738472.45418889936991035938,5.46525467696158,0.507751701406903,-298.622623371075
738472.45418898982461541891,5.43755912961211,0.489288003173925,-298.567232276376
738472.45418908027932047844,5.45602282784509,0.498519852290414,-298.585695974609
738472.45418917073402553797,5.41909543137913,0.470824304940947,-298.576464125492
738472.45418926118873059750,5.40986358226264,0.443128757591479,-298.511841181677
738472.45418935175985097885,5.35447248756371,0.387737662892544,-298.521073030793
738472.45418944221455603838,5.33600878933073,0.360042115543077,-298.604159672842
738472.45418953266926109791,5.25292214728233,0.304651020844142,-298.558000427259
738472.45418962312396615744,5.25292214728233,0.276955473494675,-298.594927823725
738472.45418971357867121696,5.21599475081637,0.249259926145207,-298.641087069308
738472.45418980403337627649,5.1882992034669,0.230796227912229,-298.631855220191
738472.45418989448808133602,5.16060365611744,0.21233252967925,-298.594927823725
738472.45418998494278639555,5.1882992034669,0.22156437879574,-298.576464125492
738472.45419007539749145508,5.16983550523392,0.21233252967925,-298.548768578143
738472.45419016585219651461,5.17906735435041,0.21233252967925,-298.576464125492
738472.45419025630690157413,5.17906735435041,0.21233252967925,-298.548768578143
738472.45419034676160663366,5.16983550523392,0.203100680562761,-298.548768578143
738472.45419043721631169319,5.19753105258339,0.230796227912229,-298.558000427259
738472.45419052767101675272,5.1882992034669,0.22156437879574,-298.576464125492
738472.45419061824213713408,5.17906735435041,0.22156437879574,-298.539536729026
738472.45419070869684219360,5.16983550523392,0.21233252967925,-298.539536729026
738472.45419079915154725313,5.17906735435041,0.22156437879574,-298.594927823725
738472.45419088960625231266,5.15137180700095,0.203100680562761,-298.668782616657
738472.45419098006095737219,5.16060365611744,0.203100680562761,-298.696478164006
738472.45419107051566243172,5.15137180700095,0.193868831446272,-298.668782616657
738472.45419116097036749125,5.15137180700095,0.193868831446272,-298.68724631489
738472.45419125142507255077,5.13290810876797,0.193868831446272,-298.668782616657
738472.45419134187977761030,5.12367625965148,0.175405133213294,-298.659550767541
738472.45419143233448266983,5.13290810876797,0.175405133213294,-298.631855220191
738472.45419152278918772936,5.12367625965148,0.166173284096805,-298.705710013123
738472.45419161324389278889,5.11444441053499,0.166173284096805,-298.705710013123
738472.45419170369859784842,5.09598071230201,0.156941434980316,-298.594927823725
738472.45419179415330290794,5.1052125614185,0.166173284096805,-298.678014465773
738472.45419188472442328930,5.08674886318552,0.156941434980316,-298.68724631489
738472.45419197517912834883,5.08674886318552,0.166173284096805,-298.705710013123
738472.45419206563383340836,5.07751701406903,0.156941434980316,-298.650318918424
738472.45419215608853846788,5.08674886318552,0.156941434980316,-298.68724631489
738472.45419224654324352741,5.08674886318552,0.166173284096805,-298.696478164006
738472.45419233699794858694,5.09598071230201,0.166173284096805,-298.576464125492
738472.45419242745265364647,5.07751701406903,0.147709585863826,-298.650318918424
738472.45419251790735870600,5.08674886318552,0.166173284096805,-298.641087069308
738472.45419260836206376553,5.08674886318552,0.166173284096805,-298.585695974609
738472.45419269881676882505,5.07751701406903,0.166173284096805,-298.631855220191
738472.45419278927147388458,5.08674886318552,0.166173284096805,-298.631855220191
738472.45419287972617894411,5.07751701406903,0.166173284096805,-298.613391521958
738472.45419297018088400364,5.07751701406903,0.166173284096805,-298.641087069308
738472.45419306075200438499,5.06828516495254,0.156941434980316,-298.650318918424
738472.45419315120670944452,5.08674886318552,0.156941434980316,-298.650318918424
738472.45419324166141450405,5.07751701406903,0.156941434980316,-298.613391521958
738472.45419333211611956358,5.09598071230201,0.166173284096805,-298.641087069308
738472.45419342257082462311,5.07751701406903,0.156941434980316,-298.631855220191
738472.45419351302552968264,5.14213995788446,0.193868831446272,-298.631855220191
738472.45419360348023474216,5.17906735435041,0.21233252967925,-298.576464125492
738472.45419369393493980169,5.20676290169988,0.22156437879574,-298.641087069308
738472.45419378438964486122,5.22522659993286,0.203100680562761,-298.631855220191
738472.45419387484434992075,5.23445844904935,0.184636982329783,-298.641087069308
738472.45419396529905498028,5.28061769463179,0.21233252967925,-298.613391521958
738472.45419405575376003981,5.2713858455153,0.230796227912229,-298.631855220191
738472.45419414620846509933,5.26215399639882,0.230796227912229,-298.567232276376
738472.45419423666317015886,5.23445844904935,0.22156437879574,-298.456450086978
738472.45419432723429054022,5.21599475081637,0.203100680562761,-298.641087069308
738472.45419441768899559975,5.11444441053499,0.156941434980316,-298.631855220191
738472.45419450814370065928,5.11444441053499,0.166173284096805,-298.604159672842
738472.45419459859840571880,5.07751701406903,0.147709585863826,-298.613391521958
738472.45419468905311077833,5.05905331583605,0.147709585863826,-298.622623371075
738472.45419477950781583786,5.04058961760308,0.138477736747337,-298.650318918424
738472.45419486996252089739,5.04058961760308,0.147709585863826,-298.641087069308
738472.45419496041722595692,5.01289407025361,0.120014038514359,-298.585695974609
738472.45419505087193101645,5.03135776848659,0.129245887630848,-298.641087069308
738472.45419514132663607597,5.00366222113712,0.11078218939787,-298.641087069308
738472.45419523178134113550,5.01289407025361,0.138477736747337,-298.622623371075
738472.45419532223604619503,4.97596667378765,0.138477736747337,-298.622623371075
738472.45419541269075125456,4.9390392773217,0.175405133213294,-298.641087069308
738472.45419550314545631409,5.03135776848659,0.21233252967925,-298.622623371075
738472.45419559371657669544,5.32677694021424,0.258491775261696,-298.558000427259
738472.45419568417128175497,5.59450056459243,0.286187322611164,-298.585695974609
738472.45419577462598681450,6.32381664479507,0.129245887630848,-298.567232276376
738472.45419586508069187403,6.48998992889187,-0.0923184911648915,-298.576464125492
738472.45419595553539693356,5.84376049073763,-0.276955473494675,-298.641087069308
738472.45419604599010199308,5.1882992034669,-0.406201361125523,-298.751869258705
738472.45419613644480705261,4.64362010559404,-0.350810266426588,-298.761101107822
738472.45419622689951211214,4.61592455824457,-0.120014038514359,-298.641087069308
738472.45419631735421717167,4.68054750206,0.0923184911648915,-298.641087069308
738472.45419640780892223120,4.83748893704032,0.129245887630848,-298.631855220191
738472.45419649826362729073,4.99443037202063,0.175405133213294,-298.567232276376
738472.45419658871833235025,5.07751701406903,0.175405133213294,-298.622623371075
738472.45419667917303740978,5.08674886318552,0.166173284096805,-298.622623371075
738472.45419676962774246931,5.12367625965148,0.193868831446272,-298.585695974609
738472.45419686019886285067,5.12367625965148,0.166173284096805,-298.631855220191
738472.45419695065356791019,5.14213995788446,0.184636982329783,-298.604159672842
738472.45419704110827296972,5.17906735435041,0.21233252967925,-298.576464125492
738472.45419713156297802925,5.17906735435041,0.203100680562761,-298.585695974609
738472.45419722201768308878,5.19753105258339,0.203100680562761,-298.548768578143
738472.45419731247238814831,5.23445844904935,0.22156437879574,-298.613391521958
738472.45419740292709320784,5.26215399639882,0.249259926145207,-298.613391521958
738472.45419749338179826736,5.2713858455153,0.240028077028718,-298.622623371075
738472.45419758383650332689,5.28984954374828,0.249259926145207,-298.576464125492
738472.45419767429120838642,5.30831324198126,0.267723624378185,-298.539536729026
738472.45419776474591344595,5.33600878933073,0.286187322611164,-298.437986388745
738472.45419785520061850548,5.35447248756371,0.295419171727653,-298.622623371075
738472.45419794565532356501,5.37293618579669,0.313882869960631,-298.622623371075
738472.45419803611002862453,5.38216803491317,0.341578417310099,-298.548768578143
738472.45419812668114900589,5.42832728049562,0.378505813776055,-298.576464125492
738472.45419821713585406542,5.42832728049562,0.396969512009033,-298.622623371075
738472.45419830759055912495,5.45602282784509,0.43389690847499,-298.558000427259
738472.45419839804526418447,5.47448652607807,0.461592455824458,-298.511841181677
738472.45419848849996924400,5.47448652607807,0.480056154057436,-298.511841181677
738472.45419857895467430353,5.48371837519456,0.498519852290414,-298.511841181677
738472.45419866940937936306,5.48371837519456,0.507751701406903,-298.484145634327
738472.45419875986408442259,5.49295022431104,0.507751701406903,-298.521073030793
738472.45419885031878948212,5.48371837519456,0.498519852290414,-298.53030487991
738472.45419894077349454165,5.47448652607807,0.489288003173925,-298.511841181677
738472.45419903122819960117,5.41909543137913,0.43389690847499,-298.585695974609
738472.45419912168290466070,5.40063173314615,0.406201361125523,-298.594927823725
738472.45419921213760972023,5.34524063844722,0.350810266426588,-298.585695974609
738472.45419930259231477976,5.32677694021424,0.332346568193609,-298.576464125492
738472.45419939316343516111,5.28984954374828,0.304651020844142,-298.613391521958
738472.45419948361814022064,5.23445844904935,0.258491775261696,-298.622623371075
738472.45419957407284528017,5.22522659993286,0.240028077028718,-298.558000427259
738472.45419966452755033970,5.20676290169988,0.22156437879574,-298.631855220191
738472.45419975498225539923,5.20676290169988,0.230796227912229,-298.631855220191
738472.45419984543696045876,5.20676290169988,0.22156437879574,-298.594927823725
738472.45419993589166551828,5.1882992034669,0.21233252967925,-298.631855220191
738472.45420002634637057781,5.17906735435041,0.21233252967925,-298.631855220191
738472.45420011680107563734,5.1882992034669,0.22156437879574,-298.631855220191
738472.45420020725578069687,5.16983550523392,0.21233252967925,-298.558000427259
738472.45420029771048575640,5.19753105258339,0.22156437879574,-298.622623371075
738472.45420038816519081593,5.1882992034669,0.21233252967925,-298.622623371075
738472.45420047861989587545,5.1882992034669,0.21233252967925,-298.594927823725
738472.45420056907460093498,5.17906735435041,0.203100680562761,-298.641087069308
738472.45420065964572131634,5.1882992034669,0.21233252967925,-298.622623371075
738472.45420075010042637587,5.16983550523392,0.193868831446272,-298.631855220191
738472.45420084055513143539,5.16983550523392,0.193868831446272,-298.567232276376
738472.45420093100983649492,5.16060365611744,0.193868831446272,-298.631855220191
738472.45420102146454155445,5.16983550523392,0.193868831446272,-298.613391521958
738472.45420111191924661398,5.16060365611744,0.193868831446272,-298.576464125492
738472.45420120237395167351,5.15137180700095,0.184636982329783,-298.576464125492
738472.45420129282865673304,5.14213995788446,0.184636982329783,-298.511841181677
738472.45420138328336179256,5.13290810876797,0.175405133213294,-298.622623371075
738472.45420147373806685209,5.13290810876797,0.175405133213294,-298.567232276376
738472.45420156419277191162,5.1052125614185,0.166173284096805,-298.594927823725
738472.45420165464747697115,5.13290810876797,0.193868831446272,-298.585695974609
738472.45420174510218203068,5.1052125614185,0.156941434980316,-298.567232276376
738472.45420183555688709021,5.11444441053499,0.166173284096805,-298.558000427259
738472.45420192612800747156,5.09598071230201,0.156941434980316,-298.585695974609
738472.45420201658271253109,5.11444441053499,0.175405133213294,-298.585695974609
738472.45420210703741759062,5.09598071230201,0.147709585863826,-298.521073030793
738472.45420219749212265015,5.09598071230201,0.156941434980316,-298.631855220191
738472.45420228794682770967,5.08674886318552,0.147709585863826,-298.659550767541
738472.45420237840153276920,5.1052125614185,0.166173284096805,-298.631855220191
738472.45420246885623782873,5.09598071230201,0.156941434980316,-298.622623371075
738472.45420255931094288826,5.1052125614185,0.166173284096805,-298.622623371075
738472.45420264976564794779,5.09598071230201,0.156941434980316,-298.576464125492
738472.45420274022035300732,5.11444441053499,0.166173284096805,-298.567232276376
738472.45420283067505806684,5.12367625965148,0.175405133213294,-298.631855220191
738472.45420292112976312637,5.1882992034669,0.203100680562761,-298.641087069308
738472.45420301158446818590,5.22522659993286,0.230796227912229,-298.631855220191
738472.45420310203917324543,5.24369029816584,0.240028077028718,-298.585695974609
738472.45420319261029362679,5.2713858455153,0.193868831446272,-298.641087069308
738472.45420328306499868631,5.29908139286477,0.21233252967925,-298.641087069308
738472.45420337351970374584,5.30831324198126,0.240028077028718,-298.576464125492
738472.45420346397440880537,5.28061769463179,0.230796227912229,-298.650318918424
738472.45420355442911386490,5.2713858455153,0.230796227912229,-298.631855220191
738472.45420364488381892443,5.22522659993286,0.21233252967925,-298.594927823725
738472.45420373533852398396,5.17906735435041,0.184636982329783,-298.641087069308
738472.45420382579322904348,5.11444441053499,0.166173284096805,-298.650318918424
738472.45420391624793410301,5.09598071230201,0.156941434980316,-298.641087069308
738472.45420400670263916254,5.07751701406903,0.147709585863826,-298.585695974609
738472.45420409715734422207,5.05905331583605,0.147709585863826,-298.659550767541
738472.45420418761204928160,5.04982146671956,0.138477736747337,-298.650318918424
738472.45420427806675434113,5.03135776848659,0.138477736747337,-298.631855220191
738472.45420436863787472248,5.04058961760308,0.129245887630848,-298.650318918424
738472.45420445909257978201,5.0221259193701,0.129245887630848,-298.641087069308
738472.45420454954728484154,5.0221259193701,0.129245887630848,-298.631855220191
738472.45420464000198990107,4.99443037202063,0.129245887630848,-298.631855220191
738472.45420473045669496059,4.94827112643818,0.175405133213294,-298.447218237861
738472.45420482091140002012,5.01289407025361,0.193868831446272,-298.511841181677
738472.45420491136610507965,5.1052125614185,0.230796227912229,-298.567232276376
738472.45420500182081013918,5.4467909787286,0.249259926145207,-298.594927823725
738472.45420509227551519871,6.14841151158177,0.166173284096805,-298.594927823725
738472.45420518273022025824,6.49922177800836,-0.0369273964659566,-298.585695974609
738472.45420527318492531776,5.98223822748497,-0.258491775261696,-298.650318918424
738472.45420536363963037729,5.34524063844722,-0.406201361125523,-298.742637409589
738472.45420545409433543682,4.74517044587542,-0.396969512009033,-298.761101107822
738472.45420554454904049635,4.64362010559404,-0.175405133213294,-298.68724631489
738472.45420563512016087770,4.66208380382702,0.0923184911648915,-298.641087069308
738472.45420572557486593723,4.80979338969085,0.147709585863826,-298.631855220191
738472.45420581602957099676,4.95750297555467,0.175405133213294,-298.604159672842
738472.45420590648427605629,5.07751701406903,0.193868831446272,-298.622623371075
738472.45420599693898111582,5.09598071230201,0.175405133213294,-298.631855220191
738472.45420608739368617535,5.1052125614185,0.184636982329783,-298.567232276376
738472.45420617784839123487,5.13290810876797,0.184636982329783,-298.594927823725
738472.45420626830309629440,5.17906735435041,0.203100680562761,-298.594927823725
738472.45420635875780135393,5.16060365611744,0.193868831446272,-298.631855220191
738472.45420644921250641346,5.1882992034669,0.203100680562761,-298.594927823725
738472.45420653966721147299,5.20676290169988,0.22156437879574,-298.558000427259
738472.45420663012191653252,5.24369029816584,0.249259926145207,-298.576464125492
738472.45420672057662159204,5.23445844904935,0.240028077028718,-298.548768578143
738472.45420681103132665157,5.25292214728233,0.240028077028718,-298.594927823725
738472.45420690160244703293,5.28061769463179,0.249259926145207,-298.548768578143
738472.45420699205715209246,5.29908139286477,0.258491775261696,-298.548768578143
738472.45420708251185715199,5.34524063844722,0.286187322611164,-298.511841181677
738472.45420717296656221151,5.3637043366802,0.295419171727653,-298.567232276376
738472.45420726342126727104,5.42832728049562,0.360042115543077,-298.594927823725
738472.45420735387597233057,5.42832728049562,0.369273964659566,-298.548768578143
738472.45420744433067739010,5.4467909787286,0.387737662892544,-298.594927823725
738472.45420753478538244963,5.46525467696158,0.406201361125523,-298.622623371075
738472.45420762524008750916,5.46525467696158,0.424665059358501,-298.576464125492
738472.45420771569479256868,5.48371837519456,0.461592455824458,-298.548768578143
738472.45420780614949762821,5.49295022431104,0.470824304940947,-298.594927823725
738472.45420789660420268774,5.48371837519456,0.480056154057436,-298.585695974609
738472.45420798705890774727,5.51141392254402,0.507751701406903,-298.585695974609
738472.45420807751361280680,5.51141392254402,0.498519852290414,-298.567232276376
738472.45420816808473318815,5.51141392254402,0.498519852290414,-298.567232276376
738472.45420825853943824768,5.47448652607807,0.470824304940947,-298.410290841395
738472.45420834899414330721,5.45602282784509,0.452360606707968,-298.53030487991
738472.45420843944884836674,5.39139988402966,0.396969512009033,-298.539536729026
738472.45420852990355342627,5.35447248756371,0.360042115543077,-298.604159672842
738472.45420862035825848579,5.33600878933073,0.350810266426588,-298.613391521958
738472.45420871081296354532,5.2713858455153,0.295419171727653,-298.613391521958
738472.45420880126766860485,5.25292214728233,0.276955473494675,-298.594927823725
738472.45420889172237366438,5.22522659993286,0.240028077028718,-298.631855220191
738472.45420898217707872391,5.22522659993286,0.230796227912229,-298.622623371075
738472.45420907263178378344,5.1882992034669,0.21233252967925,-298.558000427259
738472.45420916308648884296,5.19753105258339,0.230796227912229,-298.613391521958
738472.45420925354119390249,5.1882992034669,0.21233252967925,-298.622623371075
738472.45420934399589896202,5.19753105258339,0.230796227912229,-298.576464125492
738472.45420943456701934338,5.17906735435041,0.203100680562761,-298.622623371075
738472.45420952502172440290,5.19753105258339,0.22156437879574,-298.631855220191
738472.45420961547642946243,5.1882992034669,0.22156437879574,-298.604159672842
738472.45420970593113452196,5.19753105258339,0.22156437879574,-298.613391521958
738472.45420979638583958149,5.16983550523392,0.203100680562761,-298.622623371075
738472.45420988684054464102,5.16983550523392,0.21233252967925,-298.622623371075
738472.45420997729524970055,5.16983550523392,0.203100680562761,-298.576464125492
738472.45421006774995476007,5.1882992034669,0.22156437879574,-298.622623371075
738472.45421015820465981960,5.15137180700095,0.193868831446272,-298.622623371075
738472.45421024865936487913,5.14213995788446,0.193868831446272,-298.567232276376
738472.45421033911406993866,5.13290810876797,0.184636982329783,-298.558000427259
738472.45421042956877499819,5.13290810876797,0.175405133213294,-298.641087069308
738472.45421052002348005772,5.16060365611744,0.203100680562761,-298.631855220191
738472.45421061047818511724,5.12367625965148,0.166173284096805,-298.585695974609
738472.45421070104930549860,5.1052125614185,0.156941434980316,-298.585695974609
738472.45421079150401055813,5.1052125614185,0.156941434980316,-298.594927823725
738472.45421088195871561766,5.11444441053499,0.156941434980316,-298.576464125492
738472.45421097241342067719,5.07751701406903,0.138477736747337,-298.613391521958
738472.45421106286812573671,5.09598071230201,0.166173284096805,-298.604159672842
738472.45421115332283079624,5.11444441053499,0.175405133213294,-298.68724631489
738472.45421124377753585577,5.14213995788446,0.193868831446272,-298.696478164006
738472.45421133423224091530,5.12367625965148,0.184636982329783,-298.631855220191
738472.45421142468694597483,5.16060365611744,0.184636982329783,-298.659550767541
738472.45421151514165103436,5.1882992034669,0.203100680562761,-298.678014465773
738472.45421160559635609388,5.24369029816584,0.240028077028718,-298.631855220191
738472.45421169605106115341,5.28984954374828,0.22156437879574,-298.631855220191
738472.45421178650576621294,5.29908139286477,0.230796227912229,-298.53030487991
738472.45421187696047127247,5.30831324198126,0.249259926145207,-298.521073030793
738472.45421196753159165382,5.2713858455153,0.230796227912229,-298.576464125492
738472.45421205798629671335,5.24369029816584,0.22156437879574,-298.567232276376
738472.45421214844100177288,5.21599475081637,0.22156437879574,-298.567232276376
738472.45421223889570683241,5.1882992034669,0.193868831446272,-298.567232276376
738472.45421232935041189194,5.12367625965148,0.175405133213294,-298.604159672842
738472.45421241980511695147,5.09598071230201,0.156941434980316,-298.641087069308
738472.45421251025982201099,5.06828516495254,0.147709585863826,-298.631855220191
738472.45421260071452707052,5.05905331583605,0.156941434980316,-298.604159672842
738472.45421269116923213005,5.11444441053499,0.22156437879574,-298.622623371075
738472.45421278162393718958,5.05905331583605,0.166173284096805,-298.631855220191
738472.45421287207864224911,5.03135776848659,0.147709585863826,-298.613391521958
738472.45421296253334730864,5.01289407025361,0.120014038514359,-298.622623371075
738472.45421305298805236816,5.07751701406903,0.184636982329783,-298.622623371075
738472.45421314344275742769,5.05905331583605,0.175405133213294,-298.622623371075
738472.45421323401387780905,4.97596667378765,0.166173284096805,-298.585695974609
738472.45421332446858286858,4.92057557908872,0.129245887630848,-298.641087069308
738472.45421341492328792810,5.04058961760308,0.184636982329783,-298.613391521958
738472.45421350537799298763,5.37293618579669,0.22156437879574,-298.53030487991
738472.45421359583269804716,6.10225226599933,0.230796227912229,-298.567232276376
738472.45421368628740310669,6.42536698507645,-0.0276955473494674,-298.576464125492
738472.45421377674210816622,5.91761528366955,-0.258491775261696,-298.613391521958
738472.45421386719681322575,5.33600878933073,-0.369273964659566,-298.724173711356
738472.45421395765151828527,4.70824304940947,-0.443128757591479,-298.751869258705
738472.45421404810622334480,4.57899716177862,-0.350810266426588,-298.733405560472
738472.45421413856092840433,4.56976531266213,-0.101550340281381,-298.613391521958
738472.45421422901563346386,4.66208380382702,0.129245887630848,-298.604159672842
738472.45421431947033852339,4.80979338969085,0.147709585863826,-298.576464125492
738472.45421440992504358292,4.97596667378765,0.175405133213294,-298.548768578143
738472.45421450049616396427,5.04982146671956,0.156941434980316,-298.613391521958
738472.45421459095086902380,5.09598071230201,0.166173284096805,-298.558000427259
738472.45421468140557408333,5.09598071230201,0.166173284096805,-298.594927823725
738472.45421477186027914286,5.12367625965148,0.175405133213294,-298.567232276376
738472.45421486231498420238,5.13290810876797,0.175405133213294,-298.585695974609
738472.45421495276968926191,5.16983550523392,0.184636982329783,-298.622623371075
738472.45421504322439432144,5.1882992034669,0.193868831446272,-298.641087069308
738472.45421513367909938097,5.20676290169988,0.203100680562761,-298.576464125492
738472.45421522413380444050,5.22522659993286,0.203100680562761,-298.622623371075
738472.45421531458850950003,5.26215399639882,0.230796227912229,-298.474913785211
738472.45421540504321455956,5.2713858455153,0.240028077028718,-298.539536729026
738472.45421549549791961908,5.32677694021424,0.267723624378185,-298.594927823725
738472.45421558595262467861,5.33600878933073,0.276955473494675,-298.585695974609
738472.45421567640732973814,5.31754509109775,0.258491775261696,-298.594927823725
738472.45421576697845011950,5.3637043366802,0.295419171727653,-298.594927823725
738472.45421585743315517902,5.40063173314615,0.332346568193609,-298.558000427259
738472.45421594788786023855,5.42832728049562,0.360042115543077,-298.585695974609
738472.45421603834256529808,5.41909543137913,0.360042115543077,-298.585695974609
738472.45421612879727035761,5.45602282784509,0.396969512009033,-298.594927823725
738472.45421621925197541714,5.47448652607807,0.43389690847499,-298.53030487991
738472.45421630970668047667,5.50218207342753,0.461592455824458,-298.576464125492
738472.45421640016138553619,5.47448652607807,0.443128757591479,-298.576464125492
738472.45421649061609059572,5.49295022431104,0.461592455824458,-298.511841181677
738472.45421658107079565525,5.48371837519456,0.470824304940947,-298.585695974609
738472.45421667152550071478,5.51141392254402,0.480056154057436,-298.567232276376
738472.45421676198020577431,5.48371837519456,0.470824304940947,-298.567232276376
738472.45421685243491083384,5.45602282784509,0.452360606707968,-298.511841181677
738472.45421694300603121519,5.40986358226264,0.406201361125523,-298.539536729026
738472.45421703346073627472,5.37293618579669,0.369273964659566,-298.539536729026
738472.45421712391544133425,5.31754509109775,0.341578417310099,-298.53030487991
738472.45421721437014639378,5.29908139286477,0.304651020844142,-298.548768578143
738472.45421730482485145330,5.24369029816584,0.258491775261696,-298.613391521958
738472.45421739527955651283,5.20676290169988,0.230796227912229,-298.567232276376
738472.45421748573426157236,5.21599475081637,0.230796227912229,-298.622623371075
738472.45421757618896663189,5.19753105258339,0.22156437879574,-298.631855220191
738472.45421766664367169142,5.17906735435041,0.21233252967925,-298.631855220191
738472.45421775709837675095,5.16983550523392,0.193868831446272,-298.631855220191
738472.45421784755308181047,5.17906735435041,0.203100680562761,-298.594927823725
738472.45421793800778687000,5.17906735435041,0.21233252967925,-298.622623371075
738472.45421802846249192953,5.1882992034669,0.22156437879574,-298.622623371075
738472.45421811891719698906,5.16983550523392,0.203100680562761,-298.585695974609
738472.45421820948831737041,5.1882992034669,0.230796227912229,-298.622623371075
738472.45421829994302242994,5.16060365611744,0.203100680562761,-298.613391521958
738472.45421839039772748947,5.15137180700095,0.184636982329783,-298.567232276376
738472.45421848085243254900,5.14213995788446,0.184636982329783,-298.622623371075
738472.45421857130713760853,5.16060365611744,0.193868831446272,-298.631855220191
738472.45421866176184266806,5.15137180700095,0.184636982329783,-298.558000427259
738472.45421875221654772758,5.12367625965148,0.166173284096805,-298.594927823725
738472.45421884267125278711,5.14213995788446,0.175405133213294,-298.465681936094
738472.45421893312595784664,5.11444441053499,0.166173284096805,-298.521073030793
738472.45421902358066290617,5.11444441053499,0.166173284096805,-298.613391521958
738472.45421911403536796570,5.13290810876797,0.175405133213294,-298.641087069308
738472.45421920449007302523,5.1052125614185,0.147709585863826,-298.631855220191
738472.45421929494477808475,5.08674886318552,0.138477736747337,-298.539536729026
738472.45421938539948314428,5.08674886318552,0.138477736747337,-298.622623371075
738472.45421947597060352564,5.09598071230201,0.138477736747337,-298.613391521958
738472.45421956642530858517,5.11444441053499,0.156941434980316,-298.585695974609
738472.45421965688001364470,5.13290810876797,0.166173284096805,-298.659550767541
738472.45421974733471870422,5.19753105258339,0.21233252967925,-298.622623371075
738472.45421983778942376375,5.22522659993286,0.230796227912229,-298.604159672842
738472.45421992824412882328,5.2713858455153,0.240028077028718,-298.622623371075
738472.45422001869883388281,5.28984954374828,0.193868831446272,-298.594927823725
738472.45422010915353894234,5.28984954374828,0.203100680562761,-298.585695974609
738472.45422019960824400187,5.30831324198126,0.240028077028718,-298.539536729026
738472.45422029006294906139,5.2713858455153,0.22156437879574,-298.585695974609
738472.45422038051765412092,5.22522659993286,0.21233252967925,-298.576464125492
738472.45422047097235918045,5.19753105258339,0.184636982329783,-298.558000427259
738472.45422056142706423998,5.11444441053499,0.147709585863826,-298.585695974609
738472.45422065188176929951,5.1052125614185,0.138477736747337,-298.631855220191
738472.45422074245288968086,5.06828516495254,0.129245887630848,-298.631855220191
738472.45422083290759474039,5.04982146671956,0.120014038514359,-298.641087069308
738472.45422092336229979992,5.04058961760308,0.120014038514359,-298.68724631489
738472.45422101381700485945,5.04058961760308,0.120014038514359,-298.650318918424
738472.45422110427170991898,5.03135776848659,0.11078218939787,-298.650318918424
738472.45422119472641497850,5.0221259193701,0.101550340281381,-298.668782616657
738472.45422128518112003803,5.03135776848659,0.11078218939787,-298.68724631489
738472.45422137563582509756,5.03135776848659,0.120014038514359,-298.650318918424
738472.45422146609053015709,5.01289407025361,0.11078218939787,-298.631855220191
738472.45422155654523521662,4.97596667378765,0.147709585863826,-298.668782616657
738472.45422164699994027615,5.00366222113712,0.156941434980316,-298.668782616657
738472.45422173745464533567,5.16060365611744,0.230796227912229,-298.576464125492
738472.45422182790935039520,5.54834131900998,0.240028077028718,-298.613391521958
738472.45422191836405545473,6.2961210974456,0.0923184911648915,-298.613391521958
738472.45422200893517583609,6.36997589037751,-0.0923184911648915,-298.548768578143
738472.45422209938988089561,5.79760124515519,-0.313882869960631,-298.659550767541
738472.45422218984458595514,5.16983550523392,-0.480056154057436,-298.788796655171
738472.45422228029929101467,4.68054750206,-0.396969512009033,-298.742637409589
738472.45422237075399607420,4.60669270912809,-0.156941434980316,-298.558000427259
738472.45422246120870113373,4.68054750206,0.120014038514359,-298.558000427259
738472.45422255166340619326,4.82825708792383,0.138477736747337,-298.68724631489
738472.45422264211811125278,4.99443037202063,0.184636982329783,-298.585695974609
738472.45422273257281631231,5.04982146671956,0.156941434980316,-298.631855220191
738472.45422282302752137184,5.09598071230201,0.156941434980316,-298.668782616657
738472.45422291348222643137,5.1052125614185,0.156941434980316,-298.650318918424
738472.45422300393693149090,5.14213995788446,0.175405133213294,-298.585695974609
738472.45422309439163655043,5.16983550523392,0.184636982329783,-298.650318918424
738472.45422318484634160995,5.16060365611744,0.175405133213294,-298.659550767541
738472.45422327541746199131,5.1882992034669,0.175405133213294,-298.604159672842
738472.45422336587216705084,5.20676290169988,0.184636982329783,-298.622623371075
738472.45422345632687211037,5.21599475081637,0.203100680562761,-298.622623371075
738472.45422354678157716990,5.24369029816584,0.21233252967925,-298.613391521958
738472.45422363723628222942,5.2713858455153,0.22156437879574,-298.576464125492
738472.45422372769098728895,5.28984954374828,0.230796227912229,-298.604159672842
738472.45422381814569234848,5.31754509109775,0.258491775261696,-298.594927823725
738472.45422390860039740801,5.33600878933073,0.276955473494675,-298.53030487991
738472.45422399905510246754,5.38216803491317,0.313882869960631,-298.594927823725
738472.45422408950980752707,5.38216803491317,0.313882869960631,-298.585695974609
738472.45422417996451258659,5.40986358226264,0.332346568193609,-298.558000427259
738472.45422427041921764612,5.43755912961211,0.360042115543077,-298.576464125492
738472.45422436087392270565,5.46525467696158,0.396969512009033,-298.576464125492
738472.45422445132862776518,5.47448652607807,0.415433210242012,-298.539536729026
738472.45422454189974814653,5.49295022431104,0.443128757591479,-298.558000427259
738472.45422463235445320606,5.50218207342753,0.461592455824458,-298.558000427259
738472.45422472280915826559,5.51141392254402,0.470824304940947,-298.521073030793
738472.45422481326386332512,5.51141392254402,0.480056154057436,-298.558000427259
738472.45422490371856838465,5.50218207342753,0.470824304940947,-298.576464125492
738472.45422499417327344418,5.49295022431104,0.470824304940947,-298.567232276376
738472.45422508462797850370,5.46525467696158,0.443128757591479,-298.539536729026
738472.45422517508268356323,5.43755912961211,0.424665059358501,-298.576464125492
738472.45422526553738862276,5.40063173314615,0.378505813776055,-298.576464125492
738472.45422535599209368229,5.34524063844722,0.341578417310099,-298.567232276376
738472.45422544644679874182,5.30831324198126,0.304651020844142,-298.613391521958
738472.45422553690150380135,5.26215399639882,0.258491775261696,-298.604159672842
738472.45422562735620886087,5.22522659993286,0.230796227912229,-298.613391521958
738472.45422571781091392040,5.20676290169988,0.21233252967925,-298.576464125492
738472.45422580838203430176,5.20676290169988,0.203100680562761,-298.622623371075
738472.45422589883673936129,5.20676290169988,0.203100680562761,-298.511841181677
738472.45422598929144442081,5.1882992034669,0.193868831446272,-298.465681936094
738472.45422607974614948034,5.19753105258339,0.193868831446272,-298.613391521958
738472.45422617020085453987,5.19753105258339,0.203100680562761,-298.622623371075
738472.45422626065555959940,5.1882992034669,0.203100680562761,-298.613391521958
738472.45422635111026465893,5.19753105258339,0.21233252967925,-298.604159672842
738472.45422644156496971846,5.1882992034669,0.203100680562761,-298.622623371075
738472.45422653201967477798,5.20676290169988,0.203100680562761,-298.622623371075
738472.45422662247437983751,5.17906735435041,0.184636982329783,-298.585695974609
738472.45422671292908489704,5.1882992034669,0.184636982329783,-298.594927823725
738472.45422680338378995657,5.16060365611744,0.175405133213294,-298.558000427259
738472.45422689383849501610,5.1882992034669,0.184636982329783,-298.576464125492
738472.45422698429320007563,5.16983550523392,0.175405133213294,-298.576464125492
738472.45422707486432045698,5.16060365611744,0.166173284096805,-298.594927823725
738472.45422716531902551651,5.15137180700095,0.166173284096805,-298.604159672842
738472.45422725577373057604,5.14213995788446,0.156941434980316,-298.604159672842
738472.45422734622843563557,5.14213995788446,0.156941434980316,-298.604159672842
738472.45422743668314069510,5.13290810876797,0.147709585863826,-298.594927823725
738472.45422752713784575462,5.14213995788446,0.147709585863826,-298.622623371075
738472.45422761759255081415,5.12367625965148,0.147709585863826,-298.622623371075
738472.45422770804725587368,5.15137180700095,0.156941434980316,-298.604159672842
738472.45422779850196093321,5.13290810876797,0.156941434980316,-298.604159672842
738472.45422788895666599274,5.21599475081637,0.193868831446272,-298.668782616657
738472.45422797941137105227,5.23445844904935,0.21233252967925,-298.668782616657
738472.45422806986607611179,5.28061769463179,0.230796227912229,-298.641087069308
738472.45422816032078117132,5.28984954374828,0.184636982329783,-298.576464125492
738472.45422825089190155268,5.33600878933073,0.22156437879574,-298.650318918424
738472.45422834134660661221,5.32677694021424,0.230796227912229,-298.659550767541
738472.45422843180131167173,5.28984954374828,0.22156437879574,-298.622623371075
738472.45422852225601673126,5.25292214728233,0.203100680562761,-298.641087069308
738472.45422861271072179079,5.21599475081637,0.175405133213294,-298.650318918424
738472.45422870316542685032,5.13290810876797,0.138477736747337,-298.604159672842
738472.45422879362013190985,5.13290810876797,0.138477736747337,-298.567232276376
738472.45422888407483696938,5.12367625965148,0.138477736747337,-298.594927823725
738472.45422897452954202890,5.07751701406903,0.120014038514359,-298.585695974609
738472.45422906498424708843,5.07751701406903,0.120014038514359,-298.576464125492
738472.45422915543895214796,5.04982146671956,0.11078218939787,-298.604159672842
738472.45422924589365720749,5.05905331583605,0.11078218939787,-298.659550767541
738472.45422933634836226702,5.04058961760308,0.101550340281381,-298.678014465773
738472.45422942680306732655,5.05905331583605,0.11078218939787,-298.511841181677
738472.45422951737418770790,5.03135776848659,0.101550340281381,-298.548768578143
738472.45422960782889276743,5.04058961760308,0.11078218939787,-298.68724631489
738472.45422969828359782696,4.98519852290414,0.129245887630848,-298.585695974609
738472.45422978873830288649,5.0221259193701,0.166173284096805,-298.668782616657
738472.45422987919300794601,5.14213995788446,0.21233252967925,-298.659550767541
738472.45422996964771300554,5.50218207342753,0.249259926145207,-298.631855220191
738472.45423006010241806507,6.19457075716422,0.120014038514359,-298.548768578143
738472.45423015055712312460,6.44383068330943,-0.0461592455824458,-298.622623371075
738472.45423024101182818413,5.89915158543657,-0.286187322611164,-298.659550767541
738472.45423033146653324366,5.32677694021424,-0.43389690847499,-298.696478164006
738472.45423042192123830318,4.7636341441084,-0.424665059358501,-298.816492202521
738472.45423051237594336271,4.67131565294351,-0.184636982329783,-298.770332956938
738472.45423060283064842224,4.66208380382702,-0.0276955473494674,-298.705710013123
738472.45423069328535348177,4.7636341441084,0.138477736747337,-298.594927823725
738472.45423078385647386312,4.92980742820521,0.147709585863826,-298.622623371075
738472.45423087431117892265,5.05905331583605,0.175405133213294,-298.613391521958
738472.45423096476588398218,5.12367625965148,0.166173284096805,-298.548768578143
738472.45423105522058904171,5.13290810876797,0.156941434980316,-298.631855220191
738472.45423114567529410124,5.16060365611744,0.166173284096805,-298.622623371075
738472.45423123612999916077,5.17906735435041,0.166173284096805,-298.622623371075
738472.45423132658470422029,5.19753105258339,0.175405133213294,-298.604159672842
738472.45423141703940927982,5.21599475081637,0.184636982329783,-298.622623371075
738472.45423150749411433935,5.24369029816584,0.193868831446272,-298.622623371075
738472.45423159794881939888,5.26215399639882,0.203100680562761,-298.558000427259
738472.45423168840352445841,5.28984954374828,0.21233252967925,-298.622623371075
738472.45423177885822951794,5.31754509109775,0.22156437879574,-298.613391521958
738472.45423186931293457747,5.32677694021424,0.230796227912229,-298.567232276376
738472.45423195976763963699,5.3637043366802,0.258491775261696,-298.613391521958
738472.45423205033876001835,5.37293618579669,0.267723624378185,-298.567232276376
738472.45423214079346507788,5.40986358226264,0.295419171727653,-298.548768578143
738472.45423223124817013741,5.42832728049562,0.313882869960631,-298.539536729026
738472.45423232170287519693,5.46525467696158,0.341578417310099,-298.558000427259
738472.45423241215758025646,5.45602282784509,0.350810266426588,-298.585695974609
738472.45423250261228531599,5.48371837519456,0.378505813776055,-298.567232276376
738472.45423259306699037552,5.50218207342753,0.406201361125523,-298.53030487991
738472.45423268352169543505,5.51141392254402,0.43389690847499,-298.585695974609
738472.45423277397640049458,5.52064577166051,0.443128757591479,-298.567232276376
738472.45423286443110555410,5.52064577166051,0.461592455824458,-298.622623371075
738472.45423295488581061363,5.53910946989349,0.470824304940947,-298.511841181677
738472.45423304534051567316,5.529877620777,0.480056154057436,-298.437986388745
738472.45423313579522073269,5.52064577166051,0.470824304940947,-298.567232276376
738472.45423322624992579222,5.49295022431104,0.443128757591479,-298.539536729026
738472.45423331682104617357,5.46525467696158,0.415433210242012,-298.511841181677
738472.45423340727575123310,5.40986358226264,0.369273964659566,-298.539536729026
738472.45423349773045629263,5.38216803491317,0.350810266426588,-298.548768578143
738472.45423358818516135216,5.31754509109775,0.295419171727653,-298.567232276376
738472.45423367863986641169,5.28984954374828,0.276955473494675,-298.613391521958
738472.45423376909457147121,5.23445844904935,0.230796227912229,-298.678014465773
738472.45423385954927653074,5.23445844904935,0.22156437879574,-298.678014465773
738472.45423395000398159027,5.20676290169988,0.193868831446272,-298.604159672842
738472.45423404045868664980,5.21599475081637,0.203100680562761,-298.659550767541
738472.45423413091339170933,5.20676290169988,0.193868831446272,-298.696478164006
738472.45423422136809676886,5.21599475081637,0.203100680562761,-298.641087069308
738472.45423431182280182838,5.21599475081637,0.203100680562761,-298.631855220191
738472.45423440227750688791,5.19753105258339,0.193868831446272,-298.68724631489
738472.45423449273221194744,5.21599475081637,0.203100680562761,-298.641087069308
738472.45423458330333232880,5.20676290169988,0.203100680562761,-298.585695974609
738472.45423467375803738832,5.21599475081637,0.203100680562761,-298.650318918424
738472.45423476421274244785,5.1882992034669,0.184636982329783,-298.641087069308
738472.45423485466744750738,5.20676290169988,0.203100680562761,-298.567232276376
738472.45423494512215256691,5.17906735435041,0.184636982329783,-298.548768578143
738472.45423503557685762644,5.16983550523392,0.184636982329783,-298.594927823725
738472.45423512603156268597,5.16060365611744,0.175405133213294,-298.594927823725
738472.45423521648626774549,5.15137180700095,0.175405133213294,-298.650318918424
738472.45423530694097280502,5.15137180700095,0.166173284096805,-298.650318918424
738472.45423539739567786455,5.13290810876797,0.166173284096805,-298.576464125492
738472.45423548785038292408,5.1052125614185,0.147709585863826,-298.641087069308
738472.45423557830508798361,5.11444441053499,0.156941434980316,-298.678014465773
738472.45423566875979304314,5.09598071230201,0.147709585863826,-298.641087069308
738472.45423575921449810266,5.09598071230201,0.138477736747337,-298.659550767541
738472.45423584978561848402,5.1052125614185,0.138477736747337,-298.68724631489
738472.45423594024032354355,5.11444441053499,0.156941434980316,-298.68724631489
738472.45423603069502860308,5.16060365611744,0.175405133213294,-298.650318918424
738472.45423612114973366261,5.17906735435041,0.184636982329783,-298.659550767541
738472.45423621160443872213,5.22522659993286,0.21233252967925,-298.705710013123
738472.45423630205914378166,5.24369029816584,0.203100680562761,-298.68724631489
738472.45423639251384884119,5.28061769463179,0.175405133213294,-298.622623371075
738472.45423648296855390072,5.28061769463179,0.193868831446272,-298.604159672842
738472.45423657342325896025,5.29908139286477,0.230796227912229,-298.539536729026
738472.45423666387796401978,5.26215399639882,0.21233252967925,-298.585695974609
738472.45423675433266907930,5.21599475081637,0.193868831446272,-298.650318918424
738472.45423684478737413883,5.15137180700095,0.156941434980316,-298.650318918424
738472.45423693524207919836,5.12367625965148,0.156941434980316,-298.650318918424
738472.45423702569678425789,5.08674886318552,0.138477736747337,-298.659550767541
738472.45423711626790463924,5.04982146671956,0.129245887630848,-298.659550767541
738472.45423720672260969877,5.03135776848659,0.120014038514359,-298.650318918424
738472.45423729717731475830,5.03135776848659,0.120014038514359,-298.668782616657
738472.45423738763201981783,5.01289407025361,0.120014038514359,-298.668782616657
738472.45423747808672487736,5.00366222113712,0.11078218939787,-298.659550767541
738472.45423756854142993689,5.00366222113712,0.11078218939787,-298.622623371075
738472.45423765899613499641,5.00366222113712,0.11078218939787,-298.678014465773
738472.45423774945084005594,4.99443037202063,0.11078218939787,-298.659550767541
738472.45423783990554511547,4.96673482467116,0.120014038514359,-298.641087069308
738472.45423793036025017500,4.9390392773217,0.138477736747337,-298.576464125492
738472.45423802081495523453,4.94827112643818,0.156941434980316,-298.613391521958
738472.45423811126966029406,5.09598071230201,0.203100680562761,-298.585695974609
738472.45423820172436535358,5.43755912961211,0.230796227912229,-298.53030487991
738472.45423829217907041311,6.14841151158177,0.147709585863826,-298.53030487991
738472.45423838275019079447,6.379207739494,-0.0276955473494674,-298.576464125492
738472.45423847320489585400,5.80683309427168,-0.175405133213294,-298.650318918424
738472.45423856365960091352,5.17906735435041,-0.304651020844142,-298.631855220191
738472.45423865411430597305,4.63438825647755,-0.304651020844142,-298.798028504288
738472.45423874456901103258,4.5974608600116,-0.101550340281381,-298.724173711356
738472.45423883502371609211,4.60669270912809,0.11078218939787,-298.631855220191
738472.45423892547842115164,4.74517044587542,0.147709585863826,-298.650318918424
738472.45423901593312621117,4.89288003173925,0.147709585863826,-298.659550767541
738472.45423910638783127069,5.01289407025361,0.175405133213294,-298.650318918424
738472.45423919684253633022,5.05905331583605,0.156941434980316,-298.641087069308
738472.45423928729724138975,5.09598071230201,0.166173284096805,-298.659550767541
738472.45423937775194644928,5.1052125614185,0.166173284096805,-298.650318918424
738472.45423946820665150881,5.13290810876797,0.175405133213294,-298.594927823725
738472.45423955877777189016,5.13290810876797,0.166173284096805,-298.659550767541
738472.45423964923247694969,5.17906735435041,0.193868831446272,-298.650318918424
738472.45423973968718200922,5.1882992034669,0.184636982329783,-298.641087069308
738472.45423983014188706875,5.20676290169988,0.193868831446272,-298.539536729026
738472.45423992059659212828,5.21599475081637,0.203100680562761,-298.576464125492
738472.45424001105129718781,5.24369029816584,0.21233252967925,-298.585695974609
738472.45424010150600224733,5.2713858455153,0.230796227912229,-298.521073030793
738472.45424019196070730686,5.28061769463179,0.240028077028718,-298.613391521958
738472.45424028241541236639,5.30831324198126,0.258491775261696,-298.613391521958
738472.45424037287011742592,5.32677694021424,0.276955473494675,-298.631855220191
738472.45424046332482248545,5.3637043366802,0.304651020844142,-298.622623371075
738472.45424055377952754498,5.3637043366802,0.32311471907712,-298.493377483444
738472.45424064423423260450,5.40986358226264,0.350810266426588,-298.604159672842
738472.45424073468893766403,5.40986358226264,0.369273964659566,-298.604159672842
738472.45424082526005804539,5.43755912961211,0.396969512009033,-298.585695974609
738472.45424091571476310492,5.42832728049562,0.406201361125523,-298.594927823725
738472.45424100616946816444,5.43755912961211,0.43389690847499,-298.594927823725
738472.45424109662417322397,5.42832728049562,0.43389690847499,-298.585695974609
738472.45424118707887828350,5.4467909787286,0.443128757591479,-298.594927823725
738472.45424127753358334303,5.41909543137913,0.43389690847499,-298.604159672842
738472.45424136798828840256,5.41909543137913,0.43389690847499,-298.604159672842
738472.45424145844299346209,5.37293618579669,0.396969512009033,-298.594927823725
738472.45424154889769852161,5.35447248756371,0.378505813776055,-298.613391521958
738472.45424163935240358114,5.33600878933073,0.360042115543077,-298.631855220191
738472.45424172980710864067,5.28061769463179,0.32311471907712,-298.622623371075
738472.45424182026181370020,5.25292214728233,0.295419171727653,-298.622623371075
738472.45424191071651875973,5.19753105258339,0.258491775261696,-298.650318918424
738472.45424200117122381926,5.17906735435041,0.230796227912229,-298.650318918424
738472.45424209174234420061,5.14213995788446,0.203100680562761,-298.622623371075
738472.45424218219704926014,5.14213995788446,0.203100680562761,-298.659550767541
738472.45424227265175431967,5.12367625965148,0.184636982329783,-298.668782616657
738472.45424236310645937920,5.13290810876797,0.184636982329783,-298.622623371075
738472.45424245356116443872,5.13290810876797,0.193868831446272,-298.650318918424
738472.45424254401586949825,5.14213995788446,0.193868831446272,-298.641087069308
738472.45424263447057455778,5.15137180700095,0.193868831446272,-298.567232276376
738472.45424272492527961731,5.16060365611744,0.203100680562761,-298.604159672842
738472.45424281537998467684,5.14213995788446,0.193868831446272,-298.604159672842
738472.45424290583468973637,5.16060365611744,0.203100680562761,-298.604159672842
738472.45424299628939479589,5.14213995788446,0.193868831446272,-298.585695974609
738472.45424308674409985542,5.13290810876797,0.184636982329783,-298.659550767541
738472.45424317719880491495,5.13290810876797,0.193868831446272,-298.668782616657
738472.45424326765350997448,5.14213995788446,0.203100680562761,-298.594927823725
738472.45424335822463035583,5.12367625965148,0.184636982329783,-298.668782616657
738472.45424344867933541536,5.12367625965148,0.184636982329783,-298.668782616657
738472.45424353913404047489,5.12367625965148,0.184636982329783,-298.631855220191
738472.45424362958874553442,5.09598071230201,0.166173284096805,-298.521073030793
738472.45424372004345059395,5.1052125614185,0.175405133213294,-298.668782616657
738472.45424381049815565348,5.08674886318552,0.166173284096805,-298.678014465773
738472.45424390095286071301,5.14213995788446,0.184636982329783,-298.622623371075
738472.45424399140756577253,5.1882992034669,0.203100680562761,-298.659550767541
738472.45424408186227083206,5.19753105258339,0.203100680562761,-298.668782616657
738472.45424417231697589159,5.22522659993286,0.21233252967925,-298.650318918424
738472.45424426277168095112,5.35447248756371,0.203100680562761,-298.678014465773
738472.45424435322638601065,5.32677694021424,0.22156437879574,-298.678014465773
738472.45424444368109107018,5.29908139286477,0.22156437879574,-298.641087069308
738472.45424453413579612970,5.29908139286477,0.22156437879574,-298.576464125492
738472.45424462470691651106,5.25292214728233,0.193868831446272,-298.641087069308
738472.45424471516162157059,5.16060365611744,0.175405133213294,-298.650318918424
738472.45424480561632663012,5.14213995788446,0.166173284096805,-298.622623371075
738472.45424489607103168964,5.06828516495254,0.156941434980316,-298.659550767541
738472.45424498652573674917,5.03135776848659,0.138477736747337,-298.668782616657
738472.45424507698044180870,5.0221259193701,0.138477736747337,-298.668782616657
738472.45424516743514686823,5.00366222113712,0.129245887630848,-298.576464125492
738472.45424525788985192776,5.00366222113712,0.138477736747337,-298.604159672842
738472.45424534834455698729,4.98519852290414,0.129245887630848,-298.650318918424
738472.45424543879926204681,4.97596667378765,0.129245887630848,-298.659550767541
738472.45424552925396710634,4.96673482467116,0.120014038514359,-298.622623371075
738472.45424561970867216587,4.96673482467116,0.120014038514359,-298.650318918424
738472.45424571016337722540,4.95750297555467,0.120014038514359,-298.659550767541
738472.45424580061808228493,4.92980742820521,0.138477736747337,-298.622623371075
738472.45424589118920266628,4.91134372997223,0.166173284096805,-298.659550767541
738472.45424598164390772581,5.0221259193701,0.203100680562761,-298.650318918424
738472.45424607209861278534,5.33600878933073,0.240028077028718,-298.622623371075
738472.45424616255331784487,5.94531083101901,0.175405133213294,-298.567232276376
738472.45424625300802290440,6.4622943815424,0.00923184911648915,-298.585695974609
738472.45424634346272796392,5.9545426801355,-0.156941434980316,-298.631855220191
738472.45424643391743302345,5.28061769463179,-0.240028077028718,-298.613391521958
738472.45424652437213808298,4.61592455824457,-0.332346568193609,-298.788796655171
738472.45424661482684314251,4.52360606707968,-0.120014038514359,-298.733405560472
738472.45424670528154820204,4.54206976531266,0.0738547929319132,-298.659550767541
738472.45424679573625326157,4.68054750206,0.147709585863826,-298.511841181677
738472.45424688619095832109,4.82825708792383,0.138477736747337,-298.650318918424
738472.45424697664566338062,4.97596667378765,0.184636982329783,-298.678014465773
738472.45424706710036844015,5.0221259193701,0.166173284096805,-298.641087069308
738472.45424715767148882151,5.04058961760308,0.166173284096805,-298.456450086978
738472.45424724812619388103,5.05905331583605,0.166173284096805,-298.594927823725
738472.45424733858089894056,5.06828516495254,0.147709585863826,-298.604159672842
738472.45424742903560400009,5.1052125614185,0.175405133213294,-298.594927823725
738472.45424751949030905962,5.11444441053499,0.138477736747337,-298.594927823725
738472.45424760994501411915,5.15137180700095,0.11078218939787,-298.641087069308
738472.45424770039971917868,5.16060365611744,0.21233252967925,-298.641087069308
738472.45424779085442423820,5.1882992034669,0.276955473494675,-298.604159672842
738472.45424788130912929773,5.20676290169988,0.21233252967925,-298.641087069308
738472.45424797176383435726,5.24369029816584,0.193868831446272,-298.631855220191
738472.45424806221853941679,5.25292214728233,0.295419171727653,-298.622623371075
738472.45424815267324447632,5.29908139286477,0.304651020844142,-298.539536729026
738472.45424824312794953585,5.30831324198126,0.286187322611164,-298.622623371075
738472.45424833358265459538,5.34524063844722,0.32311471907712,-298.604159672842
738472.45424842415377497673,5.35447248756371,0.32311471907712,-298.613391521958
738472.45424851460848003626,5.40063173314615,0.350810266426588,-298.594927823725
738472.45424860506318509579,5.40063173314615,0.369273964659566,-298.594927823725
738472.45424869551789015532,5.43755912961211,0.415433210242012,-298.594927823725
738472.45424878597259521484,5.42832728049562,0.424665059358501,-298.558000427259
738472.45424887642730027437,5.4467909787286,0.461592455824458,-298.585695974609
738472.45424896688200533390,5.4467909787286,0.452360606707968,-298.567232276376
738472.45424905733671039343,5.42832728049562,0.424665059358501,-298.53030487991
738472.45424914779141545296,5.43755912961211,0.424665059358501,-298.558000427259
738472.45424923824612051249,5.40063173314615,0.461592455824458,-298.558000427259
738472.45424932870082557201,5.39139988402966,0.452360606707968,-298.594927823725
738472.45424941915553063154,5.33600878933073,0.32311471907712,-298.567232276376
738472.45424950961023569107,5.30831324198126,0.32311471907712,-298.567232276376
738472.45424960006494075060,5.26215399639882,0.360042115543077,-298.576464125492
738472.45424969063606113195,5.23445844904935,0.332346568193609,-298.594927823725
738472.45424978109076619148,5.17906735435041,0.267723624378185,-298.622623371075
738472.45424987154547125101,5.16060365611744,0.267723624378185,-298.585695974609
738472.45424996200017631054,5.12367625965148,0.203100680562761,-298.594927823725
738472.45425005245488137007,5.11444441053499,0.184636982329783,-298.678014465773
738472.45425014290958642960,5.1052125614185,0.21233252967925,-298.68724631489
738472.45425023336429148912,5.11444441053499,0.21233252967925,-298.705710013123
738472.45425032381899654865,5.11444441053499,0.184636982329783,-298.641087069308
738472.45425041427370160818,5.13290810876797,0.138477736747337,-298.650318918424
738472.45425050472840666771,5.14213995788446,0.21233252967925,-298.659550767541
