time_dn,ecg_projection_ll_ra_mV,ecg_projection_la_ra_mV,ecg_projection_vx_rl_mV
738472.39923880447167903185,-0.166173284096805,-1.45863216040529,-298.751869258705
738472.39923889492638409138,-0.175405133213294,-1.44016846217231,-298.770332956938
738472.39923898538108915091,-0.175405133213294,-1.39400921658986,-298.779564806055
738472.39923907571937888861,-0.175405133213294,-1.41247291482284,-298.733405560472
738472.39923916617408394814,-0.175405133213294,-1.40324106570635,-298.705710013123
738472.39923925662878900766,-0.175405133213294,-1.40324106570635,-298.761101107822
738472.39923934708349406719,-0.184636982329783,-1.41247291482284,-298.779564806055
738472.39923943753819912672,-0.184636982329783,-1.44016846217231,-298.678014465773
738472.39923952799290418625,-0.175405133213294,-1.44016846217231,-298.751869258705
738472.39923961833119392395,-0.175405133213294,-1.40324106570635,-298.761101107822
738472.39923970878589898348,-0.101550340281381,-1.34784997100742,-298.714941862239
738472.39923979924060404301,-0.0553910946989349,-1.36631366924039,-298.779564806055
738472.39923988969530910254,-0.0461592455824458,-1.37554551835688,-298.798028504288
738472.39923998015001416206,0.00923184911648915,-1.36631366924039,-298.770332956938
738472.39924007060471922159,0.0461592455824458,-1.39400921658986,-298.751869258705
738472.39924016094300895929,0.0369273964659566,-1.33861812189093,-298.779564806055
738472.39924025139771401882,0.0461592455824458,-1.33861812189093,-298.761101107822
738472.39924034185241907835,0.00923184911648915,-1.34784997100742,-298.705710013123
738472.39924043230712413788,-0.0276955473494674,-1.36631366924039,-298.742637409589
738472.39924052276182919741,-0.0830866420484024,-1.38477736747337,-298.779564806055
738472.39924061310011893511,-0.129245887630848,-1.41247291482284,-298.788796655171
738472.39924070355482399464,-0.156941434980316,-1.39400921658986,-298.696478164006
738472.39924079400952905416,-0.175405133213294,-1.41247291482284,-298.68724631489
738472.39924088446423411369,-0.203100680562761,-1.42170476393933,-298.668782616657
738472.39924097491893917322,-0.230796227912229,-1.41247291482284,-298.641087069308
738472.39924106537364423275,-0.22156437879574,-1.42170476393933,-298.68724631489
738472.39924115571193397045,-0.240028077028718,-1.4494003112888,-298.558000427259
738472.39924124616663902998,-0.230796227912229,-1.41247291482284,-298.548768578143
738472.39924133662134408951,-0.249259926145207,-1.44016846217231,-298.705710013123
738472.39924142707604914904,-0.258491775261696,-1.4494003112888,-298.696478164006
738472.39924151753075420856,-0.249259926145207,-1.41247291482284,-298.668782616657
738472.39924160798545926809,-0.276955473494675,-1.41247291482284,-298.733405560472
738472.39924169832374900579,-0.286187322611164,-1.39400921658986,-298.724173711356
738472.39924178877845406532,-0.166173284096805,-1.33861812189093,-298.68724631489
738472.39924187923315912485,0.0830866420484024,-1.2739951780755,-298.613391521958
738472.39924196968786418438,0.627765739921262,-1.3570818201239,-298.668782616657
738472.39924206014256924391,1.31092257454146,-1.54171880245369,-298.659550767541
738472.39924215059727430344,0.997039704580828,-1.68942838831751,-298.641087069308
738472.39924224093556404114,0.609302041688284,-1.75405133213294,-298.668782616657
738472.39924233139026910067,-0.0830866420484024,-1.84636982329783,-298.825724051637
738472.39924242184497416019,-0.572374645222327,-1.73558763389996,-298.84418774987
738472.39924251229967921972,-0.572374645222327,-1.56941434980316,-298.798028504288
738472.39924260275438427925,-0.498519852290414,-1.38477736747337,-298.68724631489
738472.39924269320908933878,-0.360042115543077,-1.3570818201239,-298.724173711356
738472.39924278354737907648,-0.240028077028718,-1.3570818201239,-298.742637409589
738472.39924287400208413601,-0.166173284096805,-1.34784997100742,-298.696478164006
738472.39924296445678919554,-0.138477736747337,-1.36631366924039,-298.761101107822
738472.39924305491149425507,-0.120014038514359,-1.36631366924039,-298.770332956938
738472.39924314536619931459,-0.11078218939787,-1.3570818201239,-298.696478164006
738472.39924323570448905230,-0.0830866420484024,-1.3570818201239,-298.714941862239
738472.39924332615919411182,-0.0830866420484024,-1.37554551835688,-298.714941862239
738472.39924341661389917135,-0.0369273964659566,-1.38477736747337,-298.678014465773
738472.39924350706860423088,-0.0553910946989349,-1.34784997100742,-298.714941862239
738472.39924359752330929041,-0.0276955473494674,-1.32015442365795,-298.705710013123
738472.39924368797801434994,0,-1.31092257454146,-298.678014465773
738472.39924377831630408764,0.00923184911648915,-1.32938627277444,-298.705710013123
738472.39924386877100914717,0.0276955473494674,-1.32015442365795,-298.714941862239
738472.39924395922571420670,0.0553910946989349,-1.30169072542497,-298.678014465773
738472.39924404968041926622,0.0830866420484024,-1.30169072542497,-298.696478164006
738472.39924414013512432575,0.0923184911648915,-1.31092257454146,-298.705710013123
738472.39924423058982938528,0.129245887630848,-1.28322702719199,-298.678014465773
738472.39924432092811912298,0.120014038514359,-1.2739951780755,-298.668782616657
738472.39924441138282418251,0.184636982329783,-1.20937223426008,-298.678014465773
738472.39924450183752924204,0.193868831446272,-1.1909085360271,-298.668782616657
738472.39924459229223430157,0.240028077028718,-1.17244483779412,-298.650318918424
738472.39924468274693936110,0.276955473494675,-1.14474929044465,-298.558000427259
738472.39924477320164442062,0.304651020844142,-1.11705374309519,-298.53030487991
738472.39924486353993415833,0.350810266426588,-1.09859004486221,-298.613391521958
738472.39924495399463921785,0.378505813776055,-1.06166264839625,-298.631855220191
738472.39924504444934427738,0.396969512009033,-1.05243079927976,-298.631855220191
738472.39924513490404933691,0.415433210242012,-1.04319895016327,-298.631855220191
738472.39924522535875439644,0.43389690847499,-1.0247352519303,-298.604159672842
738472.39924531569704413414,0.396969512009033,-1.07089449751274,-298.613391521958
738472.39924540615174919367,0.332346568193609,-1.11705374309519,-298.604159672842
738472.39924549660645425320,0.267723624378185,-1.14474929044465,-298.659550767541
738472.39924558706115931273,0.156941434980316,-1.1909085360271,-298.668782616657
738472.39924567751586437225,0.0830866420484024,-1.24629963072604,-298.659550767541
738472.39924576797056943178,0,-1.31092257454146,-298.678014465773
738472.39924585830885916948,-0.0553910946989349,-1.34784997100742,-298.705710013123
738472.39924594876356422901,-0.064622943815424,-1.34784997100742,-298.742637409589
738472.39924603921826928854,-0.11078218939787,-1.36631366924039,-298.696478164006
738472.39924612967297434807,-0.120014038514359,-1.38477736747337,-298.696478164006
738472.39924622012767940760,-0.166173284096805,-1.40324106570635,-298.696478164006
738472.39924631058238446712,-0.156941434980316,-1.43093661305582,-298.668782616657
738472.39924640092067420483,-0.166173284096805,-1.40324106570635,-298.696478164006
738472.39924649137537926435,-0.147709585863826,-1.38477736747337,-298.696478164006
738472.39924658183008432388,-0.166173284096805,-1.41247291482284,-298.696478164006
738472.39924667228478938341,-0.156941434980316,-1.41247291482284,-298.678014465773
738472.39924676273949444294,-0.156941434980316,-1.40324106570635,-298.733405560472
738472.39924685319419950247,-0.138477736747337,-1.39400921658986,-298.788796655171
738472.39924694353248924017,-0.129245887630848,-1.39400921658986,-298.779564806055
738472.39924703398719429970,-0.138477736747337,-1.40324106570635,-298.724173711356
738472.39924712444189935923,-0.129245887630848,-1.38477736747337,-298.770332956938
738472.39924721489660441875,-0.138477736747337,-1.40324106570635,-298.807260353404
738472.39924730535130947828,-0.129245887630848,-1.38477736747337,-298.678014465773
738472.39924739580601453781,-0.129245887630848,-1.41247291482284,-298.742637409589
738472.39924748614430427551,-0.147709585863826,-1.40324106570635,-298.770332956938
738472.39924757659900933504,-0.138477736747337,-1.40324106570635,-298.714941862239
738472.39924766705371439457,-0.147709585863826,-1.39400921658986,-298.742637409589
738472.39924775750841945410,-0.147709585863826,-1.40324106570635,-298.761101107822
738472.39924784796312451363,-0.147709585863826,-1.40324106570635,-298.761101107822
738472.39924793830141425133,-0.166173284096805,-1.41247291482284,-298.659550767541
738472.39924802875611931086,-0.175405133213294,-1.43093661305582,-298.742637409589
738472.39924811921082437038,-0.166173284096805,-1.40324106570635,-298.742637409589
738472.39924820966552942991,-0.166173284096805,-1.40324106570635,-298.641087069308
738472.39924830012023448944,-0.175405133213294,-1.41247291482284,-298.631855220191
738472.39924839057493954897,-0.184636982329783,-1.42170476393933,-298.724173711356
738472.39924848091322928667,-0.184636982329783,-1.42170476393933,-298.733405560472
738472.39924857136793434620,-0.21233252967925,-1.43093661305582,-298.733405560472
738472.39924866182263940573,-0.184636982329783,-1.44016846217231,-298.742637409589
738472.39924875227734446526,-0.193868831446272,-1.42170476393933,-298.742637409589
738472.39924884273204952478,-0.193868831446272,-1.41247291482284,-298.678014465773
738472.39924893318675458431,-0.21233252967925,-1.42170476393933,-298.742637409589
738472.39924902352504432201,-0.184636982329783,-1.41247291482284,-298.724173711356
738472.39924911397974938154,-0.203100680562761,-1.44016846217231,-298.668782616657
738472.39924920443445444107,-0.184636982329783,-1.43093661305582,-298.733405560472
738472.39924929488915950060,-0.203100680562761,-1.43093661305582,-298.742637409589
738472.39924938534386456013,-0.193868831446272,-1.42170476393933,-298.733405560472
738472.39924947579856961966,-0.21233252967925,-1.45863216040529,-298.733405560472
738472.39924956613685935736,-0.184636982329783,-1.43093661305582,-298.733405560472
738472.39924965659156441689,-0.184636982329783,-1.41247291482284,-298.733405560472
738472.39924974704626947641,-0.193868831446272,-1.40324106570635,-298.714941862239
738472.39924983750097453594,-0.203100680562761,-1.43093661305582,-298.751869258705
738472.39924992795567959547,-0.203100680562761,-1.43093661305582,-298.678014465773
738472.39925001841038465500,-0.193868831446272,-1.42170476393933,-298.705710013123
738472.39925010874867439270,-0.203100680562761,-1.43093661305582,-298.742637409589
738472.39925019920337945223,-0.193868831446272,-1.42170476393933,-298.724173711356
738472.39925028965808451176,-0.203100680562761,-1.42170476393933,-298.696478164006
738472.39925038011278957129,-0.184636982329783,-1.43093661305582,-298.659550767541
738472.39925047056749463081,-0.22156437879574,-1.44016846217231,-298.678014465773
738472.39925056090578436852,-0.193868831446272,-1.43093661305582,-298.68724631489
738472.39925065136048942804,-0.203100680562761,-1.44016846217231,-298.678014465773
738472.39925074181519448757,-0.156941434980316,-1.40324106570635,-298.659550767541
738472.39925083226989954710,-0.11078218939787,-1.41247291482284,-298.650318918424
738472.39925092272460460663,-0.064622943815424,-1.36631366924039,-298.696478164006
738472.39925101317930966616,-0.0553910946989349,-1.3570818201239,-298.751869258705
738472.39925110351759940386,-0.00923184911648915,-1.37554551835688,-298.761101107822
738472.39925119397230446339,0.00923184911648915,-1.3570818201239,-298.733405560472
738472.39925128442700952291,0.00923184911648915,-1.3570818201239,-298.761101107822
738472.39925137488171458244,-0.00923184911648915,-1.33861812189093,-298.788796655171
738472.39925146533641964197,-0.0461592455824458,-1.36631366924039,-298.742637409589
738472.39925155579112470150,-0.064622943815424,-1.37554551835688,-298.770332956938
738472.39925164612941443920,-0.129245887630848,-1.41247291482284,-298.807260353404
738472.39925173658411949873,-0.156941434980316,-1.40324106570635,-298.724173711356
738472.39925182703882455826,-0.193868831446272,-1.42170476393933,-298.641087069308
738472.39925191749352961779,-0.21233252967925,-1.42170476393933,-298.779564806055
738472.39925200794823467731,-0.22156437879574,-1.43093661305582,-298.788796655171
738472.39925209840293973684,-0.22156437879574,-1.43093661305582,-298.659550767541
738472.39925218874122947454,-0.258491775261696,-1.44016846217231,-298.751869258705
738472.39925227919593453407,-0.240028077028718,-1.44016846217231,-298.807260353404
738472.39925236965063959360,-0.258491775261696,-1.43093661305582,-298.788796655171
738472.39925246010534465313,-0.230796227912229,-1.43093661305582,-298.733405560472
738472.39925255056004971266,-0.249259926145207,-1.4494003112888,-298.788796655171
738472.39925264101475477219,-0.249259926145207,-1.4494003112888,-298.788796655171
738472.39925273135304450989,-0.295419171727653,-1.41247291482284,-298.724173711356
738472.39925282180774956942,-0.276955473494675,-1.39400921658986,-298.798028504288
738472.39925291226245462894,-0.120014038514359,-1.32938627277444,-298.705710013123
738472.39925300271715968847,0.258491775261696,-1.31092257454146,-298.641087069308
738472.39925309317186474800,0.932416760765404,-1.41247291482284,-298.631855220191
738472.39925318351015448570,1.23706778160955,-1.59710989715262,-298.613391521958
738472.39925327396485954523,0.618533890804773,-1.698660237434,-298.678014465773
738472.39925336441956460476,0.258491775261696,-1.75405133213294,-298.742637409589
738472.39925345487426966429,-0.32311471907712,-1.83713797418134,-298.87188329722
738472.39925354532897472382,-0.572374645222327,-1.64326914273507,-298.84418774987
738472.39925363578367978334,-0.553910946989349,-1.45863216040529,-298.788796655171
738472.39925372612196952105,-0.452360606707968,-1.3570818201239,-298.779564806055
738472.39925381657667458057,-0.332346568193609,-1.38477736747337,-298.724173711356
738472.39925390703137964010,-0.203100680562761,-1.3570818201239,-298.659550767541
738472.39925399748608469963,-0.147709585863826,-1.36631366924039,-298.678014465773
738472.39925408794078975916,-0.129245887630848,-1.37554551835688,-298.678014465773
738472.39925417839549481869,-0.101550340281381,-1.36631366924039,-298.696478164006
738472.39925426873378455639,-0.0923184911648915,-1.36631366924039,-298.678014465773
738472.39925435918848961592,-0.0738547929319132,-1.3570818201239,-298.678014465773
738472.39925444964319467545,-0.0461592455824458,-1.36631366924039,-298.68724631489
738472.39925454009789973497,-0.0461592455824458,-1.34784997100742,-298.714941862239
738472.39925463055260479450,-0.00923184911648915,-1.34784997100742,-298.696478164006
738472.39925472100730985403,-0.00923184911648915,-1.33861812189093,-298.641087069308
738472.39925481134559959173,0.0276955473494674,-1.32015442365795,-298.650318918424
738472.39925490180030465126,0.0276955473494674,-1.32938627277444,-298.668782616657
738472.39925499225500971079,0.064622943815424,-1.32015442365795,-298.659550767541
738472.39925508270971477032,0.0738547929319132,-1.32938627277444,-298.650318918424
738472.39925517316441982985,0.101550340281381,-1.29245887630848,-298.641087069308
738472.39925526361912488937,0.11078218939787,-1.2739951780755,-298.567232276376
738472.39925535395741462708,0.147709585863826,-1.26476332895901,-298.548768578143
738472.39925544441211968660,0.156941434980316,-1.23706778160955,-298.705710013123
738472.39925553486682474613,0.184636982329783,-1.21860408337657,-298.659550767541
738472.39925562532152980566,0.22156437879574,-1.20937223426008,-298.68724631489
738472.39925571577623486519,0.240028077028718,-1.17244483779412,-298.68724631489
738472.39925580611452460289,0.286187322611164,-1.13551744132817,-298.705710013123
738472.39925589656922966242,0.332346568193609,-1.1078218939787,-298.678014465773
738472.39925598702393472195,0.369273964659566,-1.07089449751274,-298.678014465773
738472.39925607747863978148,0.369273964659566,-1.07089449751274,-298.668782616657
738472.39925616793334484100,0.396969512009033,-1.05243079927976,-298.613391521958
738472.39925625838804990053,0.406201361125523,-1.05243079927976,-298.659550767541
738472.39925634872633963823,0.424665059358501,-1.05243079927976,-298.696478164006
738472.39925643918104469776,0.396969512009033,-1.07089449751274,-298.594927823725
738472.39925652963574975729,0.369273964659566,-1.09859004486221,-298.678014465773
738472.39925662009045481682,0.267723624378185,-1.16321298867763,-298.68724631489
738472.39925671054515987635,0.184636982329783,-1.20937223426008,-298.668782616657
738472.39925680099986493587,0.120014038514359,-1.25553147984252,-298.696478164006
738472.39925689133815467358,0.0461592455824458,-1.31092257454146,-298.714941862239
738472.39925698179285973310,-0.0276955473494674,-1.34784997100742,-298.733405560472
738472.39925707224756479263,-0.0461592455824458,-1.37554551835688,-298.668782616657
738472.39925716270226985216,-0.064622943815424,-1.37554551835688,-298.751869258705
738472.39925725315697491169,-0.0923184911648915,-1.40324106570635,-298.724173711356
738472.39925734361167997122,-0.0738547929319132,-1.38477736747337,-298.696478164006
738472.39925743394996970892,-0.0276955473494674,-1.33861812189093,-298.678014465773
738472.39925752440467476845,-0.0830866420484024,-1.38477736747337,-298.659550767541
738472.39925761485937982798,-0.129245887630848,-1.42170476393933,-298.68724631489
738472.39925770531408488750,-0.101550340281381,-1.41247291482284,-298.742637409589
738472.39925779576878994703,-0.0830866420484024,-1.40324106570635,-298.696478164006
738472.39925788622349500656,-0.0738547929319132,-1.39400921658986,-298.696478164006
738472.39925797656178474426,-0.064622943815424,-1.38477736747337,-298.705710013123
738472.39925806701648980379,-0.0738547929319132,-1.37554551835688,-298.696478164006
738472.39925815747119486332,-0.064622943815424,-1.37554551835688,-298.705710013123
738472.39925824792589992285,0.0184636982329783,-1.30169072542497,-298.714941862239
738472.39925833838060498238,-0.0184636982329783,-1.32015442365795,-298.733405560472
738472.39925842871889472008,-0.129245887630848,-1.44016846217231,-298.770332956938
738472.39925851917359977961,-0.138477736747337,-1.44016846217231,-298.678014465773
738472.39925860962830483913,-0.101550340281381,-1.39400921658986,-298.751869258705
738472.39925870008300989866,-0.101550340281381,-1.40324106570635,-298.705710013123
738472.39925879053771495819,-0.0830866420484024,-1.38477736747337,-298.53030487991
738472.39925888099242001772,-0.120014038514359,-1.41247291482284,-298.594927823725
738472.39925897133070975542,-0.138477736747337,-1.42170476393933,-298.68724631489
738472.39925906178541481495,-0.101550340281381,-1.39400921658986,-298.68724631489
738472.39925915224011987448,-0.129245887630848,-1.42170476393933,-298.696478164006
738472.39925924269482493401,-0.0923184911648915,-1.38477736747337,-298.751869258705
738472.39925933314952999353,-0.120014038514359,-1.40324106570635,-298.705710013123
738472.39925942360423505306,-0.129245887630848,-1.40324106570635,-298.705710013123
738472.39925951394252479076,-0.156941434980316,-1.42170476393933,-298.761101107822
738472.39925960439722985029,-0.138477736747337,-1.42170476393933,-298.788796655171
738472.39925969485193490982,-0.156941434980316,-1.43093661305582,-298.696478164006
738472.39925978530663996935,-0.101550340281381,-1.36631366924039,-298.761101107822
738472.39925987576134502888,-0.129245887630848,-1.39400921658986,-298.779564806055
738472.39925996621605008841,-0.156941434980316,-1.43093661305582,-298.724173711356
738472.39926005655433982611,-0.156941434980316,-1.44016846217231,-298.751869258705
738472.39926014700904488564,-0.175405133213294,-1.4494003112888,-298.761101107822
738472.39926023746374994516,-0.138477736747337,-1.42170476393933,-298.742637409589
738472.39926032791845500469,-0.175405133213294,-1.44016846217231,-298.742637409589
738472.39926041837316006422,-0.203100680562761,-1.45863216040529,-298.798028504288
738472.39926050882786512375,-0.138477736747337,-1.41247291482284,-298.742637409589
738472.39926059916615486145,-0.138477736747337,-1.41247291482284,-298.724173711356
738472.39926068962085992098,-0.129245887630848,-1.39400921658986,-298.761101107822
738472.39926078007556498051,-0.064622943815424,-1.33861812189093,-298.751869258705
738472.39926087053027004004,-0.129245887630848,-1.41247291482284,-298.733405560472
738472.39926096098497509956,-0.240028077028718,-1.50479140598773,-298.751869258705
738472.39926105132326483727,-0.184636982329783,-1.46786400952177,-298.751869258705
738472.39926114177796989679,-0.156941434980316,-1.44016846217231,-298.751869258705
738472.39926123223267495632,-0.120014038514359,-1.43093661305582,-298.714941862239
738472.39926132268738001585,-0.0369273964659566,-1.37554551835688,-298.779564806055
738472.39926141314208507538,-0.0276955473494674,-1.36631366924039,-298.788796655171
738472.39926150359679013491,0,-1.38477736747337,-298.714941862239
738472.39926159393507987261,0.0276955473494674,-1.36631366924039,-298.761101107822
738472.39926168438978493214,-0.00923184911648915,-1.38477736747337,-298.779564806055
738472.39926177484448999166,-0.064622943815424,-1.40324106570635,-298.724173711356
738472.39926186529919505119,-0.0369273964659566,-1.3570818201239,-298.733405560472
738472.39926195575390011072,-0.064622943815424,-1.39400921658986,-298.751869258705
738472.39926204620860517025,-0.147709585863826,-1.42170476393933,-298.714941862239
738472.39926213654689490795,-0.0830866420484024,-1.36631366924039,-298.724173711356
738472.39926222700159996748,-0.22156437879574,-1.48632770775475,-298.668782616657
738472.39926231745630502701,-0.22156437879574,-1.47709585863826,-298.493377483444
738472.39926240791101008654,-0.203100680562761,-1.4494003112888,-298.585695974609
738472.39926249836571514606,-0.184636982329783,-1.42170476393933,-298.641087069308
738472.39926258882042020559,-0.240028077028718,-1.47709585863826,-298.650318918424
738472.39926267915870994329,-0.240028077028718,-1.47709585863826,-298.668782616657
738472.39926276961341500282,-0.267723624378185,-1.49555955687124,-298.678014465773
738472.39926286006812006235,-0.21233252967925,-1.44016846217231,-298.678014465773
738472.39926295052282512188,-0.129245887630848,-1.3570818201239,-298.668782616657
738472.39926304097753018141,-0.230796227912229,-1.45863216040529,-298.742637409589
738472.39926313143223524094,-0.32311471907712,-1.52325510422071,-298.724173711356
738472.39926322177052497864,-0.341578417310099,-1.46786400952177,-298.68724631489
738472.39926331222523003817,-0.184636982329783,-1.42170476393933,-298.678014465773
738472.39926340267993509769,0.101550340281381,-1.3570818201239,-298.650318918424
738472.39926349313464015722,0.673924985503708,-1.36631366924039,-298.613391521958
738472.39926358358934521675,1.32015442365795,-1.54171880245369,-298.631855220191
738472.39926367392763495445,0.950880458998382,-1.698660237434,-298.585695974609
738472.39926376438234001398,0.203100680562761,-1.80021057771538,-298.788796655171
738472.39926385483704507351,-0.406201361125523,-1.82790612506485,-298.881115146336
738472.39926394529175013304,-0.54467909787286,-1.6155735953856,-298.807260353404
738472.39926403574645519257,-0.572374645222327,-1.46786400952177,-298.705710013123
738472.39926412620116025209,-0.452360606707968,-1.41247291482284,-298.724173711356
738472.39926421653944998980,-0.295419171727653,-1.42170476393933,-298.714941862239
738472.39926430699415504932,-0.203100680562761,-1.42170476393933,-298.641087069308
738472.39926439744886010885,-0.138477736747337,-1.41247291482284,-298.696478164006
738472.39926448790356516838,-0.129245887630848,-1.40324106570635,-298.761101107822
738472.39926457835827022791,-0.0830866420484024,-1.37554551835688,-298.751869258705
738472.39926466881297528744,-0.0923184911648915,-1.41247291482284,-298.668782616657
738472.39926475915126502514,-0.101550340281381,-1.44016846217231,-298.742637409589
738472.39926484960597008467,-0.0830866420484024,-1.42170476393933,-298.724173711356
738472.39926494006067514420,-0.064622943815424,-1.40324106570635,-298.659550767541
738472.39926503051538020372,-0.00923184911648915,-1.37554551835688,-298.714941862239
738472.39926512097008526325,-0.0369273964659566,-1.40324106570635,-298.724173711356
738472.39926521142479032278,0.0184636982329783,-1.37554551835688,-298.714941862239
738472.39926530176308006048,0.0461592455824458,-1.3570818201239,-298.714941862239
738472.39926539221778512001,0.0369273964659566,-1.36631366924039,-298.724173711356
738472.39926548267249017954,0.0830866420484024,-1.31092257454146,-298.714941862239
738472.39926557312719523907,0.120014038514359,-1.30169072542497,-298.641087069308
738472.39926566358190029860,0.120014038514359,-1.32938627277444,-298.724173711356
738472.39926575403660535812,0.156941434980316,-1.28322702719199,-298.733405560472
738472.39926584437489509583,0.156941434980316,-1.28322702719199,-298.465681936094
738472.39926593482960015535,0.193868831446272,-1.25553147984252,-298.567232276376
738472.39926602528430521488,0.230796227912229,-1.23706778160955,-298.622623371075
738472.39926611573901027441,0.286187322611164,-1.20937223426008,-298.631855220191
738472.39926620619371533394,0.286187322611164,-1.18167668691061,-298.631855220191
738472.39926629653200507164,0.304651020844142,-1.17244483779412,-298.613391521958
738472.39926638698671013117,0.378505813776055,-1.13551744132817,-298.631855220191
738472.39926647744141519070,0.387737662892544,-1.11705374309519,-298.622623371075
738472.39926656789612025023,0.43389690847499,-1.08935819574572,-298.594927823725
738472.39926665835082530975,0.43389690847499,-1.12628559221168,-298.604159672842
738472.39926674880553036928,0.452360606707968,-1.1078218939787,-298.594927823725
738472.39926683914382010698,0.406201361125523,-1.08935819574572,-298.622623371075
738472.39926692959852516651,0.378505813776055,-1.09859004486221,-298.585695974609
738472.39926702005323022604,0.258491775261696,-1.20014038514359,-298.604159672842
738472.39926711050793528557,0.184636982329783,-1.23706778160955,-298.622623371075
738472.39926720096264034510,0.101550340281381,-1.26476332895901,-298.631855220191
738472.39926729141734540462,0.0369273964659566,-1.31092257454146,-298.631855220191
738472.39926738175563514233,-0.0461592455824458,-1.37554551835688,-298.668782616657
738472.39926747221034020185,-0.064622943815424,-1.37554551835688,-298.668782616657
738472.39926756266504526138,-0.0923184911648915,-1.37554551835688,-298.678014465773
738472.39926765311975032091,-0.11078218939787,-1.40324106570635,-298.678014465773
738472.39926774357445538044,-0.101550340281381,-1.40324106570635,-298.696478164006
738472.39926783402916043997,-0.138477736747337,-1.42170476393933,-298.724173711356
738472.39926792436745017767,-0.129245887630848,-1.42170476393933,-298.742637409589
738472.39926801482215523720,-0.120014038514359,-1.41247291482284,-298.68724631489
738472.39926810527686029673,-0.129245887630848,-1.41247291482284,-298.705710013123
738472.39926819573156535625,-0.129245887630848,-1.43093661305582,-298.770332956938
738472.39926828618627041578,-0.120014038514359,-1.40324106570635,-298.733405560472
738472.39926837664097547531,-0.120014038514359,-1.41247291482284,-298.705710013123
738472.39926846697926521301,-0.120014038514359,-1.44016846217231,-298.733405560472
738472.39926855743397027254,-0.0830866420484024,-1.37554551835688,-298.779564806055
738472.39926864788867533207,-0.0923184911648915,-1.37554551835688,-298.751869258705
738472.39926873834338039160,-0.0830866420484024,-1.39400921658986,-298.705710013123
738472.39926882879808545113,-0.101550340281381,-1.39400921658986,-298.751869258705
738472.39926891913637518883,-0.11078218939787,-1.39400921658986,-298.751869258705
738472.39926900959108024836,-0.101550340281381,-1.39400921658986,-298.751869258705
738472.39926910004578530788,-0.101550340281381,-1.38477736747337,-298.733405560472
738472.39926919050049036741,-0.129245887630848,-1.42170476393933,-298.770332956938
738472.39926928095519542694,-0.120014038514359,-1.40324106570635,-298.733405560472
738472.39926937140990048647,-0.156941434980316,-1.42170476393933,-298.613391521958
738472.39926946174819022417,-0.138477736747337,-1.40324106570635,-298.678014465773
738472.39926955220289528370,-0.156941434980316,-1.41247291482284,-298.788796655171
738472.39926964265760034323,-0.147709585863826,-1.42170476393933,-298.724173711356
738472.39926973311230540276,-0.156941434980316,-1.42170476393933,-298.779564806055
738472.39926982356701046228,-0.156941434980316,-1.40324106570635,-298.668782616657
738472.39926991402171552181,-0.184636982329783,-1.42170476393933,-298.650318918424
738472.39927000436000525951,-0.166173284096805,-1.41247291482284,-298.659550767541
738472.39927009481471031904,-0.166173284096805,-1.42170476393933,-298.641087069308
738472.39927018526941537857,-0.184636982329783,-1.44016846217231,-298.696478164006
738472.39927027572412043810,-0.184636982329783,-1.43093661305582,-298.68724631489
738472.39927036617882549763,-0.120014038514359,-1.36631366924039,-298.696478164006
738472.39927045663353055716,-0.11078218939787,-1.3570818201239,-298.678014465773
738472.39927054697182029486,-0.193868831446272,-1.4494003112888,-298.705710013123
738472.39927063742652535439,-0.166173284096805,-1.39400921658986,-298.779564806055
738472.39927072788123041391,-0.166173284096805,-1.40324106570635,-298.761101107822
738472.39927081833593547344,-0.175405133213294,-1.43093661305582,-298.668782616657
738472.39927090879064053297,-0.230796227912229,-1.46786400952177,-298.733405560472
738472.39927099924534559250,-0.184636982329783,-1.43093661305582,-298.724173711356
738472.39927108958363533020,-0.230796227912229,-1.47709585863826,-298.696478164006
738472.39927118003834038973,-0.22156437879574,-1.46786400952177,-298.742637409589
738472.39927127049304544926,-0.240028077028718,-1.45863216040529,-298.705710013123
738472.39927136094775050879,-0.203100680562761,-1.44016846217231,-298.705710013123
738472.39927145140245556831,-0.21233252967925,-1.43093661305582,-298.724173711356
738472.39927154174074530602,-0.120014038514359,-1.36631366924039,-298.678014465773
738472.39927163219545036554,-0.138477736747337,-1.38477736747337,-298.659550767541
738472.39927172265015542507,-0.21233252967925,-1.45863216040529,-298.68724631489
738472.39927181310486048460,-0.267723624378185,-1.50479140598773,-298.696478164006
738472.39927190355956554413,-0.240028077028718,-1.47709585863826,-298.668782616657
738472.39927199401427060366,-0.166173284096805,-1.40324106570635,-298.68724631489
738472.39927208435256034136,-0.147709585863826,-1.43093661305582,-298.650318918424
738472.39927217480726540089,-0.064622943815424,-1.39400921658986,-298.68724631489
738472.39927226526197046041,-0.0553910946989349,-1.39400921658986,-298.742637409589
738472.39927235571667551994,-0.0369273964659566,-1.42170476393933,-298.714941862239
738472.39927244617138057947,0,-1.38477736747337,-298.761101107822
738472.39927253662608563900,0.0276955473494674,-1.32938627277444,-298.751869258705
738472.39927262696437537670,-0.0830866420484024,-1.40324106570635,-298.751869258705
738472.39927271741908043623,-0.064622943815424,-1.39400921658986,-298.714941862239
738472.39927280787378549576,-0.120014038514359,-1.42170476393933,-298.742637409589
738472.39927289832849055529,-0.175405133213294,-1.44016846217231,-298.631855220191
738472.39927298878319561481,-0.175405133213294,-1.43093661305582,-298.604159672842
738472.39927307923790067434,-0.203100680562761,-1.43093661305582,-298.751869258705
738472.39927316957619041204,-0.240028077028718,-1.4494003112888,-298.761101107822
738472.39927326003089547157,-0.22156437879574,-1.44016846217231,-298.779564806055
738472.39927335048560053110,-0.240028077028718,-1.44016846217231,-298.733405560472
738472.39927344094030559063,-0.22156437879574,-1.42170476393933,-298.761101107822
738472.39927353139501065016,-0.240028077028718,-1.45863216040529,-298.733405560472
738472.39927362184971570969,-0.267723624378185,-1.46786400952177,-298.733405560472
738472.39927371218800544739,-0.267723624378185,-1.45863216040529,-298.761101107822
738472.39927380264271050692,-0.276955473494675,-1.45863216040529,-298.751869258705
738472.39927389309741556644,-0.230796227912229,-1.43093661305582,-298.742637409589
738472.39927398355212062597,-0.304651020844142,-1.41247291482284,-298.742637409589
738472.39927407400682568550,-0.21233252967925,-1.37554551835688,-298.761101107822
738472.39927416434511542320,-0.064622943815424,-1.32938627277444,-298.724173711356
738472.39927425479982048273,0.415433210242012,-1.31092257454146,-298.613391521958
738472.39927434525452554226,1.16321298867763,-1.50479140598773,-298.576464125492
738472.39927443570923060179,1.26476332895901,-1.63403729361858,-298.585695974609
738472.39927452616393566132,0.526215399639882,-1.75405133213294,-298.68724631489
738472.39927461661864072084,-0.193868831446272,-1.88329721976379,-298.807260353404
738472.39927470695693045855,-0.636997589037751,-1.75405133213294,-298.788796655171
738472.39927479741163551807,-0.572374645222327,-1.54171880245369,-298.714941862239
738472.39927488786634057760,-0.461592455824458,-1.40324106570635,-298.659550767541
738472.39927497832104563713,-0.313882869960631,-1.41247291482284,-298.724173711356
738472.39927506877575069666,-0.175405133213294,-1.36631366924039,-298.68724631489
738472.39927515923045575619,-0.147709585863826,-1.38477736747337,-298.696478164006
738472.39927524956874549389,-0.11078218939787,-1.37554551835688,-298.705710013123
738472.39927534002345055342,-0.120014038514359,-1.39400921658986,-298.696478164006
738472.39927543047815561295,-0.0830866420484024,-1.36631366924039,-298.696478164006
738472.39927552093286067247,-0.0830866420484024,-1.39400921658986,-298.68724631489
738472.39927561138756573200,-0.064622943815424,-1.37554551835688,-298.678014465773
738472.39927570184227079153,-0.0461592455824458,-1.36631366924039,-298.696478164006
738472.39927579218056052923,-0.0369273964659566,-1.3570818201239,-298.733405560472
738472.39927588263526558876,-0.0276955473494674,-1.3570818201239,-298.724173711356
738472.39927597308997064829,0.00923184911648915,-1.34784997100742,-298.705710013123
738472.39927606354467570782,0.0184636982329783,-1.33861812189093,-298.68724631489
738472.39927615399938076735,0.0369273964659566,-1.33861812189093,-298.641087069308
738472.39927624445408582687,0.0738547929319132,-1.32015442365795,-298.68724631489
738472.39927633479237556458,0.0830866420484024,-1.31092257454146,-298.68724631489
738472.39927642524708062410,0.120014038514359,-1.28322702719199,-298.585695974609
738472.39927651570178568363,0.129245887630848,-1.28322702719199,-298.622623371075
738472.39927660615649074316,0.166173284096805,-1.25553147984252,-298.696478164006
738472.39927669661119580269,0.203100680562761,-1.23706778160955,-298.696478164006
738472.39927678694948554039,0.240028077028718,-1.20937223426008,-298.68724631489
738472.39927687740419059992,0.258491775261696,-1.1909085360271,-298.678014465773
738472.39927696785889565945,0.313882869960631,-1.14474929044465,-298.641087069308
738472.39927705831360071898,0.341578417310099,-1.11705374309519,-298.585695974609
738472.39927714876830577850,0.387737662892544,-1.08012634662923,-298.576464125492
738472.39927723922301083803,0.415433210242012,-1.07089449751274,-298.548768578143
738472.39927732956130057573,0.452360606707968,-1.04319895016327,-298.576464125492
738472.39927742001600563526,0.470824304940947,-1.03396710104678,-298.585695974609
738472.39927751047071069479,0.480056154057436,-1.03396710104678,-298.631855220191
738472.39927760092541575432,0.452360606707968,-1.05243079927976,-298.622623371075
738472.39927769138012081385,0.415433210242012,-1.09859004486221,-298.68724631489
738472.39927778183482587337,0.378505813776055,-1.11705374309519,-298.678014465773
738472.39927787217311561108,0.240028077028718,-1.1909085360271,-298.631855220191
738472.39927796262782067060,0.156941434980316,-1.22783593249306,-298.705710013123
738472.39927805308252573013,0.0923184911648915,-1.2739951780755,-298.742637409589
738472.39927814353723078966,0.0184636982329783,-1.32015442365795,-298.705710013123
738472.39927823399193584919,-0.0461592455824458,-1.3570818201239,-298.705710013123
738472.39927832444664090872,-0.064622943815424,-1.36631366924039,-298.751869258705
738472.39927841478493064642,-0.101550340281381,-1.39400921658986,-298.742637409589
738472.39927850523963570595,-0.0830866420484024,-1.37554551835688,-298.705710013123
738472.39927859569434076548,-0.11078218939787,-1.40324106570635,-298.770332956938
738472.39927868614904582500,-0.129245887630848,-1.40324106570635,-298.705710013123
738472.39927877660375088453,-0.120014038514359,-1.39400921658986,-298.659550767541
738472.39927886705845594406,-0.120014038514359,-1.39400921658986,-298.705710013123
738472.39927895739674568176,-0.120014038514359,-1.38477736747337,-298.641087069308
738472.39927904785145074129,-0.101550340281381,-1.38477736747337,-298.68724631489
738472.39927913830615580082,-0.11078218939787,-1.39400921658986,-298.650318918424
738472.39927922876086086035,-0.11078218939787,-1.39400921658986,-298.705710013123
738472.39927931921556591988,-0.101550340281381,-1.38477736747337,-298.68724631489
738472.39927940955385565758,-0.11078218939787,-1.40324106570635,-298.678014465773
738472.39927950000856071711,-0.0830866420484024,-1.38477736747337,-298.705710013123
738472.39927959046326577663,-0.101550340281381,-1.39400921658986,-298.678014465773
738472.39927968091797083616,-0.064622943815424,-1.37554551835688,-298.68724631489
738472.39927977137267589569,-0.11078218939787,-1.39400921658986,-298.678014465773
738472.39927986182738095522,-0.0830866420484024,-1.38477736747337,-298.742637409589
738472.39927995216567069292,-0.11078218939787,-1.40324106570635,-298.631855220191
738472.39928004262037575245,-0.0923184911648915,-1.39400921658986,-298.594927823725
738472.39928013307508081198,-0.129245887630848,-1.41247291482284,-298.705710013123
738472.39928022352978587151,-0.120014038514359,-1.40324106570635,-298.68724631489
738472.39928031398449093103,-0.129245887630848,-1.40324106570635,-298.761101107822
738472.39928040443919599056,-0.147709585863826,-1.42170476393933,-298.761101107822
738472.39928049477748572826,-0.11078218939787,-1.39400921658986,-298.733405560472
738472.39928058523219078779,-0.138477736747337,-1.41247291482284,-298.678014465773
738472.39928067568689584732,-0.147709585863826,-1.41247291482284,-298.68724631489
738472.39928076614160090685,-0.138477736747337,-1.41247291482284,-298.742637409589
738472.39928085659630596638,-0.156941434980316,-1.42170476393933,-298.733405560472
738472.39928094705101102591,-0.156941434980316,-1.42170476393933,-298.751869258705
738472.39928103738930076361,-0.138477736747337,-1.41247291482284,-298.705710013123
738472.39928112784400582314,-0.156941434980316,-1.42170476393933,-298.751869258705
738472.39928121829871088266,-0.147709585863826,-1.41247291482284,-298.742637409589
738472.39928130875341594219,-0.147709585863826,-1.41247291482284,-298.724173711356
738472.39928139920812100172,-0.156941434980316,-1.42170476393933,-298.751869258705
738472.39928148966282606125,-0.166173284096805,-1.41247291482284,-298.742637409589
738472.39928158000111579895,-0.147709585863826,-1.42170476393933,-298.770332956938
738472.39928167045582085848,-0.193868831446272,-1.44016846217231,-298.68724631489
738472.39928176091052591801,-0.156941434980316,-1.42170476393933,-298.733405560472
738472.39928185136523097754,-0.147709585863826,-1.42170476393933,-298.761101107822
738472.39928194181993603706,-0.166173284096805,-1.43093661305582,-298.714941862239
738472.39928203215822577477,-0.166173284096805,-1.42170476393933,-298.696478164006
738472.39928212261293083429,-0.175405133213294,-1.43093661305582,-298.668782616657
738472.39928221306763589382,-0.166173284096805,-1.42170476393933,-298.604159672842
738472.39928230352234095335,-0.175405133213294,-1.44016846217231,-298.622623371075
738472.39928239397704601288,-0.175405133213294,-1.42170476393933,-298.622623371075
738472.39928248443175107241,-0.175405133213294,-1.43093661305582,-298.650318918424
738472.39928257477004081011,-0.156941434980316,-1.42170476393933,-298.659550767541
738472.39928266522474586964,-0.184636982329783,-1.44016846217231,-298.68724631489
738472.39928275567945092916,-0.175405133213294,-1.43093661305582,-298.68724631489
738472.39928284613415598869,-0.175405133213294,-1.44016846217231,-298.742637409589
738472.39928293658886104822,-0.166173284096805,-1.42170476393933,-298.761101107822
738472.39928302704356610775,-0.175405133213294,-1.43093661305582,-298.770332956938
738472.39928311738185584545,-0.184636982329783,-1.44016846217231,-298.68724631489
738472.39928320783656090498,-0.175405133213294,-1.43093661305582,-298.742637409589
738472.39928329829126596451,-0.175405133213294,-1.43093661305582,-298.742637409589
738472.39928338874597102404,-0.166173284096805,-1.42170476393933,-298.724173711356
738472.39928347920067608356,-0.156941434980316,-1.42170476393933,-298.659550767541
738472.39928356965538114309,-0.147709585863826,-1.41247291482284,-298.594927823725
738472.39928365999367088079,-0.11078218939787,-1.40324106570635,-298.678014465773
738472.39928375044837594032,-0.0461592455824458,-1.3570818201239,-298.714941862239
738472.39928384090308099985,-0.0184636982329783,-1.34784997100742,-298.68724631489
738472.39928393135778605938,0.00923184911648915,-1.37554551835688,-298.696478164006
738472.39928402181249111891,0.0184636982329783,-1.37554551835688,-298.678014465773
738472.39928411226719617844,0.0276955473494674,-1.3570818201239,-298.696478164006
738472.39928420260548591614,0,-1.3570818201239,-298.696478164006
738472.39928429306019097567,0.0184636982329783,-1.33861812189093,-298.678014465773
738472.39928438351489603519,-0.0184636982329783,-1.3570818201239,-298.714941862239
738472.39928447396960109472,-0.0923184911648915,-1.38477736747337,-298.761101107822
738472.39928456442430615425,-0.120014038514359,-1.38477736747337,-298.714941862239
738472.39928465476259589195,-0.166173284096805,-1.44016846217231,-298.724173711356
738472.39928474521730095148,-0.184636982329783,-1.44016846217231,-298.733405560472
738472.39928483567200601101,-0.203100680562761,-1.44016846217231,-298.751869258705
738472.39928492612671107054,-0.184636982329783,-1.42170476393933,-298.678014465773
738472.39928501658141613007,-0.203100680562761,-1.43093661305582,-298.733405560472
738472.39928510703612118959,-0.175405133213294,-1.40324106570635,-298.770332956938
738472.39928519737441092730,-0.21233252967925,-1.44016846217231,-298.668782616657
738472.39928528782911598682,-0.175405133213294,-1.40324106570635,-298.733405560472
738472.39928537828382104635,-0.203100680562761,-1.43093661305582,-298.733405560472
738472.39928546873852610588,-0.240028077028718,-1.45863216040529,-298.714941862239
738472.39928555919323116541,-0.258491775261696,-1.44016846217231,-298.724173711356
738472.39928564964793622494,-0.258491775261696,-1.39400921658986,-298.770332956938
738472.39928573998622596264,-0.11078218939787,-1.32938627277444,-298.724173711356
738472.39928583044093102217,0.230796227912229,-1.29245887630848,-298.641087069308
738472.39928592089563608170,0.858561967833491,-1.37554551835688,-298.659550767541
738472.39928601135034114122,1.40324106570635,-1.52325510422071,-298.659550767541
738472.39928610180504620075,0.830866420484023,-1.72635578478347,-298.678014465773
738472.39928619225975126028,0.138477736747337,-1.80944242683187,-298.816492202521
738472.39928628259804099798,-0.470824304940947,-1.84636982329783,-298.834955900754
738472.39928637305274605751,-0.54467909787286,-1.62480544450209,-298.751869258705
738472.39928646350745111704,-0.461592455824458,-1.39400921658986,-298.650318918424
738472.39928655396215617657,-0.313882869960631,-1.3570818201239,-298.650318918424
738472.39928664441686123610,-0.22156437879574,-1.39400921658986,-298.659550767541
738472.39928673487156629562,-0.156941434980316,-1.36631366924039,-298.631855220191
738472.39928682520985603333,-0.0461592455824458,-1.33861812189093,-298.659550767541
738472.39928691566456109285,-0.064622943815424,-1.36631366924039,-298.742637409589
738472.39928700611926615238,-0.101550340281381,-1.42170476393933,-298.631855220191
738472.39928709657397121191,-0.0369273964659566,-1.36631366924039,-298.53030487991
738472.39928718702867627144,-0.0276955473494674,-1.36631366924039,-298.678014465773
738472.39928727736696600914,-0.0184636982329783,-1.36631366924039,-298.668782616657
738472.39928736782167106867,-0.0276955473494674,-1.38477736747337,-298.668782616657
738472.39928745827637612820,0.0369273964659566,-1.32938627277444,-298.668782616657
738472.39928754873108118773,0.0369273964659566,-1.34784997100742,-298.668782616657
738472.39928763918578624725,0.101550340281381,-1.30169072542497,-298.659550767541
738472.39928772964049130678,0.138477736747337,-1.2739951780755,-298.68724631489
738472.39928781997878104448,0.064622943815424,-1.3570818201239,-298.622623371075
738472.39928791043348610401,0.0553910946989349,-1.34784997100742,-298.68724631489
738472.39928800088819116354,0.129245887630848,-1.30169072542497,-298.668782616657
738472.39928809134289622307,0.21233252967925,-1.22783593249306,-298.68724631489
738472.39928818179760128260,0.156941434980316,-1.28322702719199,-298.714941862239
738472.39928827225230634212,0.175405133213294,-1.28322702719199,-298.714941862239
738472.39928836259059607983,0.276955473494675,-1.20937223426008,-298.68724631489
738472.39928845304530113935,0.276955473494675,-1.18167668691061,-298.631855220191
738472.39928854350000619888,0.304651020844142,-1.17244483779412,-298.678014465773
738472.39928863395471125841,0.350810266426588,-1.14474929044465,-298.668782616657
738472.39928872440941631794,0.360042115543077,-1.11705374309519,-298.678014465773
738472.39928881486412137747,0.43389690847499,-1.07089449751274,-298.631855220191
738472.39928890520241111517,0.452360606707968,-1.07089449751274,-298.585695974609
738472.39928899565711617470,0.452360606707968,-1.07089449751274,-298.613391521958
738472.39928908611182123423,0.498519852290414,-1.03396710104678,-298.604159672842
738472.39928917656652629375,0.498519852290414,-1.06166264839625,-298.576464125492
738472.39928926702123135328,0.507751701406903,-1.06166264839625,-298.641087069308
738472.39928935747593641281,0.43389690847499,-1.09859004486221,-298.68724631489
738472.39928944781422615051,0.369273964659566,-1.15398113956114,-298.678014465773
738472.39928953826893121004,0.32311471907712,-1.16321298867763,-298.668782616657
738472.39928962872363626957,0.175405133213294,-1.26476332895901,-298.724173711356
738472.39928971917834132910,0.175405133213294,-1.23706778160955,-298.724173711356
738472.39928980963304638863,0.0923184911648915,-1.30169072542497,-298.68724631489
738472.39928989997133612633,-0.0369273964659566,-1.42170476393933,-298.714941862239
738472.39928999042604118586,-0.064622943815424,-1.41247291482284,-298.733405560472
738472.39929008088074624538,-0.0276955473494674,-1.39400921658986,-298.705710013123
738472.39929017133545130491,-0.0738547929319132,-1.41247291482284,-298.733405560472
738472.39929026179015636444,-0.0369273964659566,-1.39400921658986,-298.761101107822
738472.39929035224486142397,-0.0461592455824458,-1.38477736747337,-298.733405560472
738472.39929044258315116167,-0.0738547929319132,-1.40324106570635,-298.705710013123
738472.39929053303785622120,-0.0553910946989349,-1.39400921658986,-298.696478164006
738472.39929062349256128073,-0.0461592455824458,-1.39400921658986,-298.622623371075
738472.39929071394726634026,-0.0553910946989349,-1.40324106570635,-298.724173711356
738472.39929080440197139978,-0.0184636982329783,-1.36631366924039,-298.705710013123
738472.39929089485667645931,0.0276955473494674,-1.34784997100742,-298.761101107822
738472.39929098519496619701,-0.0923184911648915,-1.43093661305582,-298.770332956938
738472.39929107564967125654,0,-1.37554551835688,-298.696478164006
738472.39929116610437631607,-0.0553910946989349,-1.40324106570635,-298.733405560472
738472.39929125655908137560,-0.00923184911648915,-1.38477736747337,-298.761101107822
738472.39929134701378643513,-0.0369273964659566,-1.38477736747337,-298.761101107822
738472.39929143746849149466,0.0184636982329783,-1.33861812189093,-298.724173711356
738472.39929152780678123236,-0.064622943815424,-1.41247291482284,-298.668782616657
738472.39929161826148629189,-0.0553910946989349,-1.41247291482284,-298.641087069308
738472.39929170871619135141,-0.101550340281381,-1.43093661305582,-298.678014465773
738472.39929179917089641094,-0.0830866420484024,-1.40324106570635,-298.659550767541
738472.39929188962560147047,-0.0369273964659566,-1.36631366924039,-298.668782616657
738472.39929198008030653000,-0.00923184911648915,-1.33861812189093,-298.678014465773
738472.39929207041859626770,-0.0830866420484024,-1.40324106570635,-298.68724631489
738472.39929216087330132723,-0.0923184911648915,-1.42170476393933,-298.668782616657
738472.39929225132800638676,-0.101550340281381,-1.44016846217231,-298.678014465773
738472.39929234178271144629,-0.129245887630848,-1.4494003112888,-298.705710013123
738472.39929243223741650581,-0.0830866420484024,-1.42170476393933,-298.668782616657
738472.39929252257570624352,-0.0830866420484024,-1.42170476393933,-298.742637409589
738472.39929261303041130304,-0.0923184911648915,-1.41247291482284,-298.705710013123
738472.39929270348511636257,-0.0553910946989349,-1.38477736747337,-298.696478164006
738472.39929279393982142210,-0.0461592455824458,-1.36631366924039,-298.705710013123
738472.39929288439452648163,-0.156941434980316,-1.46786400952177,-298.733405560472
738472.39929297484923154116,-0.0923184911648915,-1.43093661305582,-298.761101107822
738472.39929306518752127886,-0.0923184911648915,-1.44016846217231,-298.751869258705
738472.39929315564222633839,-0.101550340281381,-1.44016846217231,-298.714941862239
738472.39929324609693139791,-0.11078218939787,-1.43093661305582,-298.751869258705
738472.39929333655163645744,-0.0923184911648915,-1.42170476393933,-298.751869258705
738472.39929342700634151697,-0.0830866420484024,-1.41247291482284,-298.668782616657
738472.39929351746104657650,-0.0738547929319132,-1.39400921658986,-298.742637409589
738472.39929360779933631420,-0.11078218939787,-1.42170476393933,-298.770332956938
738472.39929369825404137373,-0.129245887630848,-1.4494003112888,-298.733405560472
738472.39929378870874643326,-0.129245887630848,-1.45863216040529,-298.751869258705
738472.39929387916345149279,-0.120014038514359,-1.43093661305582,-298.751869258705
738472.39929396961815655231,-0.101550340281381,-1.43093661305582,-298.770332956938
738472.39929406007286161184,-0.11078218939787,-1.44016846217231,-298.68724631489
738472.39929415041115134954,-0.0553910946989349,-1.38477736747337,-298.613391521958
738472.39929424086585640907,-0.120014038514359,-1.43093661305582,-298.761101107822
738472.39929433132056146860,-0.064622943815424,-1.39400921658986,-298.696478164006
738472.39929442177526652813,-0.101550340281381,-1.42170476393933,-298.751869258705
738472.39929451222997158766,-0.0923184911648915,-1.42170476393933,-298.761101107822
738472.39929460268467664719,-0.0738547929319132,-1.41247291482284,-298.705710013123
738472.39929469302296638489,-0.120014038514359,-1.4494003112888,-298.68724631489
738472.39929478347767144442,-0.0461592455824458,-1.41247291482284,-298.68724631489
738472.39929487393237650394,-0.00923184911648915,-1.40324106570635,-298.678014465773
738472.39929496438708156347,0.0276955473494674,-1.40324106570635,-298.678014465773
738472.39929505484178662300,0.0738547929319132,-1.43093661305582,-298.779564806055
738472.39929514518007636070,0.101550340281381,-1.40324106570635,-298.788796655171
738472.39929523563478142023,0.0738547929319132,-1.40324106570635,-298.742637409589
738472.39929532608948647976,0.129245887630848,-1.3570818201239,-298.761101107822
738472.39929541654419153929,0.0369273964659566,-1.38477736747337,-298.788796655171
738472.39929550699889659882,0.0461592455824458,-1.38477736747337,-298.714941862239
738472.39929559745360165834,-0.0461592455824458,-1.44016846217231,-298.798028504288
738472.39929568779189139605,-0.064622943815424,-1.44016846217231,-298.678014465773
738472.39929577824659645557,-0.101550340281381,-1.45863216040529,-298.714941862239
738472.39929586870130151510,-0.0923184911648915,-1.44016846217231,-298.705710013123
738472.39929595915600657463,-0.129245887630848,-1.4494003112888,-298.68724631489
738472.39929604961071163416,-0.129245887630848,-1.44016846217231,-298.68724631489
738472.39929614006541669369,-0.129245887630848,-1.44016846217231,-298.705710013123
738472.39929623040370643139,-0.138477736747337,-1.44016846217231,-298.696478164006
738472.39929632085841149092,-0.120014038514359,-1.42170476393933,-298.678014465773
738472.39929641131311655045,-0.156941434980316,-1.4494003112888,-298.696478164006
738472.39929650176782160997,-0.147709585863826,-1.4494003112888,-298.696478164006
738472.39929659222252666950,-0.147709585863826,-1.44016846217231,-298.724173711356
738472.39929668267723172903,-0.203100680562761,-1.42170476393933,-298.714941862239
738472.39929677301552146673,-0.193868831446272,-1.41247291482284,-298.68724631489
738472.39929686347022652626,-0.0184636982329783,-1.36631366924039,-298.714941862239
738472.39929695392493158579,0.295419171727653,-1.34784997100742,-298.678014465773
738472.39929704437963664532,0.969344157231361,-1.38477736747337,-298.585695974609
738472.39929713483434170485,1.32015442365795,-1.59710989715262,-298.576464125492
738472.39929722528904676437,0.784707174901578,-1.66173284096805,-298.650318918424
738472.39929731562733650208,0.129245887630848,-1.75405133213294,-298.779564806055
738472.39929740608204156160,-0.369273964659566,-1.72635578478347,-298.825724051637
738472.39929749653674662113,-0.43389690847499,-1.5324869533372,-298.807260353404
738472.39929758699145168066,-0.424665059358501,-1.36631366924039,-298.558000427259
738472.39929767744615674019,-0.313882869960631,-1.3570818201239,-298.696478164006
738472.39929776778444647789,-0.240028077028718,-1.3570818201239,-298.678014465773
738472.39929785823915153742,-0.101550340281381,-1.3570818201239,-298.724173711356
738472.39929794869385659695,-0.0553910946989349,-1.36631366924039,-298.779564806055
738472.39929803914856165648,0,-1.34784997100742,-298.724173711356
738472.39929812960326671600,-0.0276955473494674,-1.37554551835688,-298.714941862239
738472.39929822005797177553,0.0184636982329783,-1.36631366924039,-298.761101107822
738472.39929831039626151323,0.0184636982329783,-1.36631366924039,-298.788796655171
738472.39929840085096657276,0.0553910946989349,-1.3570818201239,-298.668782616657
738472.39929849130567163229,0.0738547929319132,-1.34784997100742,-298.733405560472
738472.39929858176037669182,0.11078218939787,-1.33861812189093,-298.742637409589
738472.39929867221508175135,0.0830866420484024,-1.34784997100742,-298.696478164006
738472.39929876266978681087,0.138477736747337,-1.32015442365795,-298.742637409589
738472.39929885300807654858,0.120014038514359,-1.33861812189093,-298.733405560472
738472.39929894346278160810,0.147709585863826,-1.32938627277444,-298.714941862239
738472.39929903391748666763,0.156941434980316,-1.32015442365795,-298.714941862239
738472.39929912437219172716,0.267723624378185,-1.23706778160955,-298.678014465773
738472.39929921482689678669,0.230796227912229,-1.28322702719199,-298.641087069308
738472.39929930528160184622,0.22156437879574,-1.31092257454146,-298.631855220191
738472.39929939561989158392,0.267723624378185,-1.25553147984252,-298.631855220191
738472.39929948607459664345,0.32311471907712,-1.21860408337657,-298.622623371075
738472.39929957652930170298,0.350810266426588,-1.1909085360271,-298.631855220191
738472.39929966698400676250,0.369273964659566,-1.1909085360271,-298.668782616657
738472.39929975743871182203,0.415433210242012,-1.15398113956114,-298.705710013123
738472.39929984789341688156,0.396969512009033,-1.17244483779412,-298.668782616657
738472.39929993823170661926,0.415433210242012,-1.16321298867763,-298.650318918424
738472.39930002868641167879,0.470824304940947,-1.09859004486221,-298.68724631489
738472.39930011914111673832,0.54467909787286,-1.04319895016327,-298.678014465773
738472.39930020959582179785,0.489288003173925,-1.09859004486221,-298.622623371075
738472.39930030005052685738,0.526215399639882,-1.08012634662923,-298.650318918424
738472.39930039038881659508,0.516983550523392,-1.08012634662923,-298.668782616657
738472.39930048084352165461,0.424665059358501,-1.15398113956114,-298.594927823725
738472.39930057129822671413,0.341578417310099,-1.20014038514359,-298.659550767541
738472.39930066175293177366,0.286187322611164,-1.20937223426008,-298.668782616657
738472.39930075220763683319,0.138477736747337,-1.32938627277444,-298.622623371075
738472.39930084266234189272,0.21233252967925,-1.20937223426008,-298.678014465773
738472.39930093300063163042,0.193868831446272,-1.22783593249306,-298.678014465773
738472.39930102345533668995,-0.147709585863826,-1.55095065157018,-298.705710013123
738472.39930111391004174948,-0.064622943815424,-1.46786400952177,-298.511841181677
738472.39930120436474680901,-0.0553910946989349,-1.4494003112888,-298.631855220191
738472.39930129481945186853,-0.0184636982329783,-1.42170476393933,-298.68724631489
738472.39930138527415692806,-0.0184636982329783,-1.41247291482284,-298.68724631489
738472.39930147561244666576,0.00923184911648915,-1.39400921658986,-298.705710013123
738472.39930156606715172529,0,-1.39400921658986,-298.641087069308
738472.39930165652185678482,-0.0461592455824458,-1.44016846217231,-298.678014465773
738472.39930174697656184435,-0.0184636982329783,-1.41247291482284,-298.659550767541
738472.39930183743126690388,0.00923184911648915,-1.37554551835688,-298.68724631489
738472.39930192788597196341,0.0184636982329783,-1.37554551835688,-298.724173711356
738472.39930201822426170111,0.0369273964659566,-1.36631366924039,-298.68724631489
738472.39930210867896676064,-0.0553910946989349,-1.4494003112888,-298.705710013123
738472.39930219913367182016,-0.0553910946989349,-1.44016846217231,-298.779564806055
738472.39930228958837687969,-0.0184636982329783,-1.40324106570635,-298.724173711356
738472.39930238004308193922,0,-1.38477736747337,-298.733405560472
738472.39930247049778699875,0.0184636982329783,-1.36631366924039,-298.742637409589
738472.39930256083607673645,-0.0276955473494674,-1.41247291482284,-298.733405560472
738472.39930265129078179598,0,-1.38477736747337,-298.714941862239
738472.39930274174548685551,-0.0553910946989349,-1.42170476393933,-298.770332956938
738472.39930283220019191504,-0.0830866420484024,-1.4494003112888,-298.742637409589
738472.39930292265489697456,-0.11078218939787,-1.45863216040529,-298.696478164006
738472.39930301299318671227,-0.064622943815424,-1.43093661305582,-298.770332956938
738472.39930310344789177179,-0.0738547929319132,-1.43093661305582,-298.779564806055
738472.39930319390259683132,-0.0369273964659566,-1.40324106570635,-298.696478164006
738472.39930328435730189085,-0.0923184911648915,-1.4494003112888,-298.705710013123
738472.39930337481200695038,-0.0830866420484024,-1.44016846217231,-298.770332956938
738472.39930346526671200991,-0.064622943815424,-1.42170476393933,-298.714941862239
738472.39930355560500174761,-0.101550340281381,-1.45863216040529,-298.68724631489
738472.39930364605970680714,-0.0923184911648915,-1.44016846217231,-298.733405560472
738472.39930373651441186666,-0.0923184911648915,-1.43093661305582,-298.724173711356
738472.39930382696911692619,-0.0553910946989349,-1.40324106570635,-298.659550767541
738472.39930391742382198572,-0.11078218939787,-1.44016846217231,-298.668782616657
738472.39930400787852704525,-0.101550340281381,-1.4494003112888,-298.641087069308
738472.39930409821681678295,-0.0830866420484024,-1.43093661305582,-298.641087069308
738472.39930418867152184248,-0.0830866420484024,-1.44016846217231,-298.650318918424
738472.39930427912622690201,-0.101550340281381,-1.44016846217231,-298.650318918424
738472.39930436958093196154,-0.0830866420484024,-1.43093661305582,-298.659550767541
738472.39930446003563702106,-0.101550340281381,-1.44016846217231,-298.678014465773
738472.39930455049034208059,-0.0923184911648915,-1.44016846217231,-298.659550767541
738472.39930464082863181829,-0.101550340281381,-1.44016846217231,-298.567232276376
738472.39930473128333687782,-0.0738547929319132,-1.43093661305582,-298.650318918424
738472.39930482173804193735,-0.0738547929319132,-1.40324106570635,-298.68724631489
738472.39930491219274699688,-0.0738547929319132,-1.41247291482284,-298.696478164006
738472.39930500264745205641,-0.129245887630848,-1.45863216040529,-298.678014465773
738472.39930509310215711594,-0.0923184911648915,-1.44016846217231,-298.68724631489
738472.39930518344044685364,-0.0830866420484024,-1.43093661305582,-298.696478164006
738472.39930527389515191317,-0.101550340281381,-1.44016846217231,-298.68724631489
738472.39930536434985697269,-0.0830866420484024,-1.43093661305582,-298.761101107822
738472.39930545480456203222,-0.0461592455824458,-1.40324106570635,-298.761101107822
738472.39930554525926709175,0.0461592455824458,-1.3570818201239,-298.761101107822
738472.39930563559755682945,0.0276955473494674,-1.39400921658986,-298.724173711356
738472.39930572605226188898,0.101550340281381,-1.38477736747337,-298.68724631489
738472.39930581650696694851,0.0738547929319132,-1.40324106570635,-298.705710013123
738472.39930590696167200804,0.129245887630848,-1.34784997100742,-298.705710013123
738472.39930599741637706757,0.0830866420484024,-1.37554551835688,-298.678014465773
738472.39930608787108212709,0.0553910946989349,-1.37554551835688,-298.68724631489
738472.39930617820937186480,0.0553910946989349,-1.36631366924039,-298.705710013123
738472.39930626866407692432,0.00923184911648915,-1.39400921658986,-298.751869258705
738472.39930635911878198385,-0.0369273964659566,-1.38477736747337,-298.761101107822
738472.39930644957348704338,-0.0184636982329783,-1.3570818201239,-298.659550767541
738472.39930654002819210291,-0.166173284096805,-1.47709585863826,-298.733405560472
738472.39930663048289716244,-0.129245887630848,-1.44016846217231,-298.751869258705
738472.39930672082118690014,-0.120014038514359,-1.43093661305582,-298.714941862239
738472.39930681127589195967,-0.138477736747337,-1.4494003112888,-298.751869258705
738472.39930690173059701920,-0.147709585863826,-1.4494003112888,-298.733405560472
738472.39930699218530207872,-0.175405133213294,-1.45863216040529,-298.751869258705
738472.39930708264000713825,-0.138477736747337,-1.43093661305582,-298.650318918424
738472.39930717309471219778,-0.129245887630848,-1.42170476393933,-298.733405560472
738472.39930726343300193548,-0.166173284096805,-1.45863216040529,-298.733405560472
738472.39930735388770699501,-0.193868831446272,-1.42170476393933,-298.724173711356
738472.39930744434241205454,-0.184636982329783,-1.38477736747337,-298.742637409589
738472.39930753479711711407,-0.064622943815424,-1.37554551835688,-298.742637409589
738472.39930762525182217360,0.295419171727653,-1.30169072542497,-298.668782616657
738472.39930771570652723312,0.932416760765404,-1.43093661305582,-298.622623371075
738472.39930780604481697083,1.47709585863826,-1.60634174626911,-298.650318918424
738472.39930789649952203035,1.0247352519303,-1.68019653920103,-298.659550767541
738472.39930798695422708988,0.276955473494675,-1.78174687948241,-298.714941862239
738472.39930807740893214941,-0.424665059358501,-1.76328318124943,-298.761101107822
738472.39930816786363720894,-0.507751701406903,-1.60634174626911,-298.594927823725
738472.39930825820192694664,-0.406201361125523,-1.42170476393933,-298.594927823725
738472.39930834865663200617,-0.249259926145207,-1.36631366924039,-298.678014465773
738472.39930843911133706570,-0.0738547929319132,-1.34784997100742,-298.641087069308
738472.39930852956604212523,-0.0830866420484024,-1.42170476393933,-298.668782616657
738472.39930862002074718475,0,-1.36631366924039,-298.659550767541
738472.39930871047545224428,-0.0276955473494674,-1.39400921658986,-298.705710013123
738472.39930880081374198198,0.00923184911648915,-1.38477736747337,-298.68724631489
738472.39930889126844704151,0.0461592455824458,-1.36631366924039,-298.659550767541
738472.39930898172315210104,0.0369273964659566,-1.37554551835688,-298.724173711356
738472.39930907217785716057,0.0369273964659566,-1.36631366924039,-298.742637409589
738472.39930916263256222010,0.0461592455824458,-1.38477736747337,-298.659550767541
738472.39930925308726727962,0.0738547929319132,-1.36631366924039,-298.705710013123
738472.39930934342555701733,0.120014038514359,-1.33861812189093,-298.641087069308
738472.39930943388026207685,0.11078218939787,-1.3570818201239,-298.622623371075
738472.39930952433496713638,0.138477736747337,-1.34784997100742,-298.650318918424
738472.39930961478967219591,0.147709585863826,-1.34784997100742,-298.641087069308
738472.39930970524437725544,0.166173284096805,-1.33861812189093,-298.622623371075
738472.39930979569908231497,0.203100680562761,-1.32015442365795,-298.613391521958
738472.39930988603737205267,0.203100680562761,-1.32015442365795,-298.650318918424
738472.39930997649207711220,0.286187322611164,-1.26476332895901,-298.594927823725
738472.39931006694678217173,0.295419171727653,-1.26476332895901,-298.613391521958
738472.39931015740148723125,0.313882869960631,-1.24629963072604,-298.631855220191
738472.39931024785619229078,0.360042115543077,-1.22783593249306,-298.650318918424
738472.39931033831089735031,0.387737662892544,-1.20014038514359,-298.668782616657
738472.39931042864918708801,0.406201361125523,-1.18167668691061,-298.659550767541
738472.39931051910389214754,0.535447248756371,-1.1078218939787,-298.521073030793
738472.39931060955859720707,0.498519852290414,-1.14474929044465,-298.659550767541
738472.39931070001330226660,0.553910946989349,-1.08012634662923,-298.650318918424
738472.39931079046800732613,0.572374645222327,-1.07089449751274,-298.631855220191
738472.39931088080629706383,0.590838343455306,-1.08935819574572,-298.576464125492
738472.39931097126100212336,0.609302041688284,-1.05243079927976,-298.622623371075
738472.39931106171570718288,0.553910946989349,-1.1078218939787,-298.641087069308
738472.39931115217041224241,0.516983550523392,-1.12628559221168,-298.604159672842
738472.39931124262511730194,0.406201361125523,-1.18167668691061,-298.668782616657
738472.39931133307982236147,0.313882869960631,-1.23706778160955,-298.668782616657
738472.39931142341811209917,0.22156437879574,-1.2739951780755,-298.68724631489
738472.39931151387281715870,0.156941434980316,-1.30169072542497,-298.668782616657
738472.39931160432752221823,0.0553910946989349,-1.37554551835688,-298.724173711356
738472.39931169478222727776,0.0369273964659566,-1.37554551835688,-298.594927823725
738472.39931178523693233728,0.0184636982329783,-1.37554551835688,-298.613391521958
738472.39931187569163739681,-0.00923184911648915,-1.39400921658986,-298.724173711356
738472.39931196602992713451,-0.0369273964659566,-1.40324106570635,-298.751869258705
738472.39931205648463219404,-0.0184636982329783,-1.39400921658986,-298.668782616657
738472.39931214693933725357,-0.00923184911648915,-1.39400921658986,-298.742637409589
738472.39931223739404231310,-0.0276955473494674,-1.41247291482284,-298.751869258705
738472.39931232784874737263,-0.0276955473494674,-1.40324106570635,-298.742637409589
738472.39931241830345243216,-0.0276955473494674,-1.40324106570635,-298.705710013123
738472.39931250864174216986,-0.0184636982329783,-1.38477736747337,-298.742637409589
738472.39931259909644722939,-0.0369273964659566,-1.40324106570635,-298.751869258705
738472.39931268955115228891,0,-1.38477736747337,-298.631855220191
738472.39931278000585734844,0.00923184911648915,-1.38477736747337,-298.714941862239
738472.39931287046056240797,0,-1.39400921658986,-298.761101107822
738472.39931296091526746750,0,-1.39400921658986,-298.779564806055
738472.39931305125355720520,0.0276955473494674,-1.37554551835688,-298.733405560472
738472.39931314170826226473,0,-1.39400921658986,-298.696478164006
738472.39931323216296732426,0.0553910946989349,-1.3570818201239,-298.641087069308
738472.39931332261767238379,-0.00923184911648915,-1.41247291482284,-298.668782616657
738472.39931341307237744331,-0.00923184911648915,-1.39400921658986,-298.678014465773
738472.39931350341066718102,0,-1.36631366924039,-298.668782616657
738472.39931359386537224054,0.00923184911648915,-1.37554551835688,-298.678014465773
738472.39931368432007730007,-0.0553910946989349,-1.44016846217231,-298.696478164006
738472.39931377477478235960,-0.0461592455824458,-1.40324106570635,-298.678014465773
738472.39931386522948741913,-0.0369273964659566,-1.40324106570635,-298.622623371075
738472.39931395568419247866,-0.0276955473494674,-1.39400921658986,-298.631855220191
738472.39931404602248221636,-0.0369273964659566,-1.40324106570635,-298.641087069308
738472.39931413647718727589,-0.064622943815424,-1.42170476393933,-298.641087069308
738472.39931422693189233541,-0.0553910946989349,-1.41247291482284,-298.631855220191
738472.39931431738659739494,-0.064622943815424,-1.40324106570635,-298.622623371075
738472.39931440784130245447,-0.0461592455824458,-1.40324106570635,-298.668782616657
738472.39931449829600751400,-0.0738547929319132,-1.42170476393933,-298.714941862239
738472.39931458863429725170,-0.0553910946989349,-1.41247291482284,-298.659550767541
738472.39931467908900231123,-0.0738547929319132,-1.41247291482284,-298.696478164006
738472.39931476954370737076,-0.0276955473494674,-1.38477736747337,-298.724173711356
738472.39931485999841243029,-0.0830866420484024,-1.40324106570635,-298.761101107822
738472.39931495045311748981,-0.0923184911648915,-1.42170476393933,-298.659550767541
738472.39931504090782254934,-0.0738547929319132,-1.40324106570635,-298.724173711356
738472.39931513124611228704,-0.0738547929319132,-1.41247291482284,-298.742637409589
738472.39931522170081734657,-0.0553910946989349,-1.41247291482284,-298.604159672842
738472.39931531215552240610,-0.0830866420484024,-1.41247291482284,-298.659550767541
738472.39931540261022746563,-0.0923184911648915,-1.43093661305582,-298.779564806055
738472.39931549306493252516,-0.0830866420484024,-1.42170476393933,-298.742637409589
738472.39931558351963758469,-0.0830866420484024,-1.42170476393933,-298.705710013123
738472.39931567385792732239,-0.0830866420484024,-1.42170476393933,-298.742637409589
738472.39931576431263238192,-0.0461592455824458,-1.38477736747337,-298.733405560472
738472.39931585476733744144,-0.120014038514359,-1.43093661305582,-298.68724631489
738472.39931594522204250097,-0.0923184911648915,-1.41247291482284,-298.761101107822
738472.39931603567674756050,-0.064622943815424,-1.40324106570635,-298.742637409589
738472.39931612601503729820,-0.0830866420484024,-1.41247291482284,-298.705710013123
738472.39931621646974235773,-0.0830866420484024,-1.42170476393933,-298.724173711356
738472.39931630692444741726,-0.0830866420484024,-1.42170476393933,-298.733405560472
738472.39931639737915247679,-0.0738547929319132,-1.41247291482284,-298.733405560472
738472.39931648783385753632,-0.0276955473494674,-1.39400921658986,-298.724173711356
738472.39931657828856259584,0.00923184911648915,-1.38477736747337,-298.770332956938
738472.39931666862685233355,0.0461592455824458,-1.3570818201239,-298.761101107822
738472.39931675908155739307,0.0553910946989349,-1.36631366924039,-298.705710013123
738472.39931684953626245260,0.064622943815424,-1.39400921658986,-298.678014465773
738472.39931693999096751213,0.0830866420484024,-1.37554551835688,-298.678014465773
738472.39931703044567257166,0.0830866420484024,-1.3570818201239,-298.668782616657
738472.39931712090037763119,0.0830866420484024,-1.3570818201239,-298.714941862239
738472.39931721123866736889,0.0461592455824458,-1.36631366924039,-298.668782616657
738472.39931730169337242842,-0.0184636982329783,-1.40324106570635,-298.705710013123
738472.39931739214807748795,-0.0923184911648915,-1.42170476393933,-298.705710013123
738472.39931748260278254747,-0.0738547929319132,-1.41247291482284,-298.733405560472
738472.39931757305748760700,-0.101550340281381,-1.41247291482284,-298.659550767541
738472.39931766351219266653,-0.11078218939787,-1.44016846217231,-298.678014465773
738472.39931775385048240423,-0.120014038514359,-1.42170476393933,-298.705710013123
738472.39931784430518746376,-0.120014038514359,-1.43093661305582,-298.733405560472
738472.39931793475989252329,-0.156941434980316,-1.44016846217231,-298.733405560472
738472.39931802521459758282,-0.138477736747337,-1.45863216040529,-298.696478164006
738472.39931811566930264235,-0.156941434980316,-1.48632770775475,-298.705710013123
738472.39931820612400770187,-0.138477736747337,-1.46786400952177,-298.761101107822
738472.39931829646229743958,-0.147709585863826,-1.40324106570635,-298.742637409589
738472.39931838691700249910,-0.156941434980316,-1.37554551835688,-298.585695974609
738472.39931847737170755863,-0.193868831446272,-1.38477736747337,-298.68724631489
738472.39931856782641261816,-0.0830866420484024,-1.36631366924039,-298.696478164006
738472.39931865828111767769,0.175405133213294,-1.32938627277444,-298.668782616657
738472.39931874861940741539,0.710852381969665,-1.38477736747337,-298.511841181677
738472.39931883907411247492,1.41247291482284,-1.54171880245369,-298.447218237861
738472.39931892952881753445,1.15398113956114,-1.65250099185156,-298.567232276376
738472.39931901998352259398,0.452360606707968,-1.76328318124943,-298.68724631489
738472.39931911043822765350,-0.286187322611164,-1.84636982329783,-298.779564806055
738472.39931920089293271303,-0.498519852290414,-1.65250099185156,-298.751869258705
738472.39931929123122245073,-0.43389690847499,-1.43093661305582,-298.705710013123
738472.39931938168592751026,-0.304651020844142,-1.39400921658986,-298.705710013123
738472.39931947214063256979,-0.166173284096805,-1.44016846217231,-298.705710013123
738472.39931956259533762932,-0.0553910946989349,-1.34784997100742,-298.742637409589
738472.39931965305004268885,-0.0184636982329783,-1.32938627277444,-298.742637409589
738472.39931974350474774837,-0.0276955473494674,-1.38477736747337,-298.705710013123
738472.39931983384303748608,-0.0184636982329783,-1.42170476393933,-298.668782616657
738472.39931992429774254560,0.00923184911648915,-1.40324106570635,-298.705710013123
738472.39932001475244760513,0.0276955473494674,-1.36631366924039,-298.724173711356
738472.39932010520715266466,0.0553910946989349,-1.32015442365795,-298.724173711356
738472.39932019566185772419,0.0738547929319132,-1.31092257454146,-298.68724631489
738472.39932028611656278372,0.0553910946989349,-1.37554551835688,-298.742637409589
738472.39932037645485252142,0.11078218939787,-1.37554551835688,-298.705710013123
738472.39932046690955758095,0.11078218939787,-1.34784997100742,-298.68724631489
738472.39932055736426264048,0.147709585863826,-1.36631366924039,-298.68724631489
738472.39932064781896770000,0.147709585863826,-1.29245887630848,-298.68724631489
738472.39932073827367275953,0.166173284096805,-1.28322702719199,-298.714941862239
738472.39932082872837781906,0.193868831446272,-1.31092257454146,-298.724173711356
738472.39932091906666755676,0.249259926145207,-1.30169072542497,-298.659550767541
738472.39932100952137261629,0.249259926145207,-1.25553147984252,-298.668782616657
738472.39932109997607767582,0.304651020844142,-1.28322702719199,-298.68724631489
738472.39932119043078273535,0.313882869960631,-1.20014038514359,-298.641087069308
738472.39932128088548779488,0.387737662892544,-1.15398113956114,-298.705710013123
738472.39932137122377753258,0.415433210242012,-1.13551744132817,-298.678014465773
738472.39932146167848259211,0.43389690847499,-1.01550340281381,-298.585695974609
738472.39932155213318765163,0.54467909787286,-0.960112308114872,-298.622623371075
738472.39932164258789271116,0.480056154057436,-1.01550340281381,-298.641087069308
738472.39932173304259777069,0.507751701406903,-1.05243079927976,-298.585695974609
738472.39932182349730283022,0.553910946989349,-1.0247352519303,-298.558000427259
738472.39932191383559256792,0.572374645222327,-1.0247352519303,-298.622623371075
738472.39932200429029762745,0.563142796105838,-0.997039704580828,-298.613391521958
738472.39932209474500268698,0.581606494338817,-1.01550340281381,-298.558000427259
738472.39932218519970774651,0.489288003173925,-1.15398113956114,-298.631855220191
738472.39932227565441280603,0.43389690847499,-1.12628559221168,-298.539536729026
738472.39932236610911786556,0.32311471907712,-1.11705374309519,-298.521073030793
738472.39932245644740760326,0.240028077028718,-1.17244483779412,-298.613391521958
738472.39932254690211266279,0.175405133213294,-1.25553147984252,-298.622623371075
738472.39932263735681772232,0.0553910946989349,-1.34784997100742,-298.678014465773
738472.39932272781152278185,0.0830866420484024,-1.28322702719199,-298.650318918424
738472.39932281826622784138,0.0184636982329783,-1.32015442365795,-298.631855220191
738472.39932290872093290091,-0.0461592455824458,-1.3570818201239,-298.631855220191
738472.39932299905922263861,-0.0184636982329783,-1.33861812189093,-298.659550767541
738472.39932308951392769814,-0.0553910946989349,-1.38477736747337,-298.631855220191
738472.39932317996863275766,-0.0553910946989349,-1.4494003112888,-298.631855220191
738472.39932327042333781719,-0.0184636982329783,-1.43093661305582,-298.714941862239
738472.39932336087804287672,-0.0184636982329783,-1.31092257454146,-298.742637409589
738472.39932345133274793625,-0.0184636982329783,-1.31092257454146,-298.705710013123
738472.39932354167103767395,-0.0461592455824458,-1.37554551835688,-298.696478164006
738472.39932363212574273348,0.0276955473494674,-1.36631366924039,-298.733405560472
738472.39932372258044779301,-0.0369273964659566,-1.3570818201239,-298.705710013123
738472.39932381303515285254,-0.0276955473494674,-1.33861812189093,-298.696478164006
738472.39932390348985791206,-0.0184636982329783,-1.36631366924039,-298.714941862239
738472.39932399382814764977,-0.00923184911648915,-1.3570818201239,-298.733405560472
738472.39932408428285270929,-0.0184636982329783,-1.32015442365795,-298.68724631489
738472.39932417473755776882,0.00923184911648915,-1.33861812189093,-298.696478164006
738472.39932426519226282835,-0.0184636982329783,-1.3570818201239,-298.714941862239
738472.39932435564696788788,-0.0553910946989349,-1.36631366924039,-298.751869258705
738472.39932444610167294741,-0.0276955473494674,-1.36631366924039,-298.678014465773
738472.39932453643996268511,-0.0553910946989349,-1.40324106570635,-298.761101107822
738472.39932462689466774464,0.00923184911648915,-1.32938627277444,-298.742637409589
738472.39932471734937280416,-0.064622943815424,-1.34784997100742,-298.678014465773
738472.39932480780407786369,0,-1.32015442365795,-298.742637409589
738472.39932489825878292322,-0.0830866420484024,-1.41247291482284,-298.742637409589
738472.39932498871348798275,-0.0369273964659566,-1.37554551835688,-298.733405560472
738472.39932507905177772045,-0.11078218939787,-1.36631366924039,-298.705710013123
738472.39932516950648277998,-0.0738547929319132,-1.34784997100742,-298.705710013123
738472.39932525996118783951,-0.0553910946989349,-1.33861812189093,-298.641087069308
738472.39932535041589289904,-0.0923184911648915,-1.44016846217231,-298.659550767541
738472.39932544087059795856,-0.0923184911648915,-1.37554551835688,-298.659550767541
738472.39932553132530301809,-0.0830866420484024,-1.33861812189093,-298.659550767541
738472.39932562166359275579,-0.0738547929319132,-1.3570818201239,-298.641087069308
738472.39932571211829781532,-0.101550340281381,-1.41247291482284,-298.631855220191
738472.39932580257300287485,-0.0830866420484024,-1.38477736747337,-298.622623371075
738472.39932589302770793438,-0.101550340281381,-1.39400921658986,-298.558000427259
738472.39932598348241299391,-0.0923184911648915,-1.39400921658986,-298.668782616657
738472.39932607393711805344,-0.0830866420484024,-1.37554551835688,-298.668782616657
738472.39932616427540779114,-0.0830866420484024,-1.32938627277444,-298.696478164006
738472.39932625473011285067,-0.11078218939787,-1.38477736747337,-298.714941862239
738472.39932634518481791019,-0.11078218939787,-1.39400921658986,-298.631855220191
738472.39932643563952296972,-0.147709585863826,-1.40324106570635,-298.678014465773
738472.39932652609422802925,-0.129245887630848,-1.47709585863826,-298.696478164006
738472.39932661643251776695,-0.101550340281381,-1.34784997100742,-298.68724631489
738472.39932670688722282648,-0.11078218939787,-1.43093661305582,-298.705710013123
738472.39932679734192788601,-0.129245887630848,-1.40324106570635,-298.696478164006
738472.39932688779663294554,-0.120014038514359,-1.40324106570635,-298.678014465773
738472.39932697825133800507,-0.120014038514359,-1.34784997100742,-298.696478164006
738472.39932706870604306459,-0.11078218939787,-1.32938627277444,-298.678014465773
738472.39932715904433280230,-0.138477736747337,-1.40324106570635,-298.733405560472
738472.39932724949903786182,-0.129245887630848,-1.42170476393933,-298.751869258705
738472.39932733995374292135,-0.0923184911648915,-1.28322702719199,-298.733405560472
738472.39932743040844798088,-0.120014038514359,-1.32015442365795,-298.659550767541
738472.39932752086315304041,-0.0830866420484024,-1.3570818201239,-298.714941862239
738472.39932761131785809994,-0.120014038514359,-1.41247291482284,-298.751869258705
738472.39932770165614783764,-0.0553910946989349,-1.41247291482284,-298.68724631489
738472.39932779211085289717,-0.0184636982329783,-1.30169072542497,-298.714941862239
738472.39932788256555795670,0.0369273964659566,-1.29245887630848,-298.742637409589
738472.39932797302026301622,0.0553910946989349,-1.34784997100742,-298.733405560472
738472.39932806347496807575,0.11078218939787,-1.30169072542497,-298.696478164006
738472.39932815392967313528,0.064622943815424,-1.34784997100742,-298.724173711356
738472.39932824426796287298,0.064622943815424,-1.30169072542497,-298.751869258705
738472.39932833472266793251,0.0553910946989349,-1.32015442365795,-298.678014465773
738472.39932842517737299204,0.00923184911648915,-1.3570818201239,-298.714941862239
738472.39932851563207805157,-0.0369273964659566,-1.31092257454146,-298.714941862239
738472.39932860608678311110,-0.101550340281381,-1.38477736747337,-298.724173711356
738472.39932869654148817062,-0.0923184911648915,-1.37554551835688,-298.68724631489
738472.39932878687977790833,-0.129245887630848,-1.39400921658986,-298.650318918424
738472.39932887733448296785,-0.138477736747337,-1.39400921658986,-298.641087069308
738472.39932896778918802738,-0.156941434980316,-1.33861812189093,-298.622623371075
738472.39932905824389308691,-0.129245887630848,-1.34784997100742,-298.622623371075
738472.39932914869859814644,-0.184636982329783,-1.4494003112888,-298.724173711356
738472.39932923903688788414,-0.166173284096805,-1.43093661305582,-298.714941862239
738472.39932932949159294367,-0.166173284096805,-1.40324106570635,-298.68724631489
738472.39932941994629800320,-0.166173284096805,-1.32938627277444,-298.604159672842
738472.39932951040100306273,-0.166173284096805,-1.32938627277444,-298.68724631489
738472.39932960085570812225,-0.22156437879574,-1.34784997100742,-298.68724631489
738472.39932969131041318178,-0.175405133213294,-1.40324106570635,-298.696478164006
738472.39932978164870291948,-0.00923184911648915,-1.30169072542497,-298.68724631489
738472.39932987210340797901,0.415433210242012,-1.18167668691061,-298.594927823725
738472.39932996255811303854,1.14474929044465,-1.37554551835688,-298.604159672842
738472.39933005301281809807,1.3570818201239,-1.56018250068667,-298.594927823725
738472.39933014346752315760,0.710852381969665,-1.68942838831751,-298.659550767541
738472.39933023392222821712,0.00923184911648915,-1.7909787285989,-298.798028504288
738472.39933032426051795483,-0.498519852290414,-1.68019653920103,-298.788796655171
738472.39933041471522301435,-0.470824304940947,-1.49555955687124,-298.696478164006
738472.39933050516992807388,-0.406201361125523,-1.36631366924039,-298.650318918424
738472.39933059562463313341,-0.240028077028718,-1.33861812189093,-298.631855220191
738472.39933068607933819294,-0.129245887630848,-1.32938627277444,-298.604159672842
738472.39933077653404325247,-0.064622943815424,-1.32938627277444,-298.68724631489
738472.39933086687233299017,-0.064622943815424,-1.33861812189093,-298.696478164006
738472.39933095732703804970,-0.00923184911648915,-1.32015442365795,-298.668782616657
738472.39933104778174310923,-0.0369273964659566,-1.3570818201239,-298.631855220191
738472.39933113823644816875,0,-1.33861812189093,-298.714941862239
738472.39933122869115322828,0,-1.31092257454146,-298.714941862239
738472.39933131914585828781,0.0184636982329783,-1.32015442365795,-298.668782616657
738472.39933140948414802551,0.0276955473494674,-1.36631366924039,-298.696478164006
738472.39933149993885308504,0.0276955473494674,-1.32938627277444,-298.678014465773
738472.39933159039355814457,0.0923184911648915,-1.23706778160955,-298.631855220191
738472.39933168084826320410,0.0830866420484024,-1.28322702719199,-298.705710013123
738472.39933177130296826363,0.11078218939787,-1.28322702719199,-298.659550767541
738472.39933186164125800133,0.120014038514359,-1.28322702719199,-298.696478164006
738472.39933195209596306086,0.156941434980316,-1.26476332895901,-298.724173711356
738472.39933204255066812038,0.166173284096805,-1.28322702719199,-298.594927823725
738472.39933213300537317991,0.193868831446272,-1.24629963072604,-298.668782616657
738472.39933222346007823944,0.203100680562761,-1.21860408337657,-298.678014465773
738472.39933231391478329897,0.258491775261696,-1.23706778160955,-298.622623371075
738472.39933240425307303667,0.286187322611164,-1.1909085360271,-298.659550767541
738472.39933249470777809620,0.332346568193609,-1.09859004486221,-298.631855220191
738472.39933258516248315573,0.369273964659566,-1.08935819574572,-298.622623371075
738472.39933267561718821526,0.396969512009033,-1.08012634662923,-298.613391521958
738472.39933276607189327478,0.443128757591479,-1.04319895016327,-298.613391521958
738472.39933285652659833431,0.461592455824458,-1.0247352519303,-298.419522690512
738472.39933294686488807201,0.480056154057436,-1.00627155369732,-298.456450086978
738472.39933303731959313154,0.498519852290414,-1.00627155369732,-298.604159672842
738472.39933312777429819107,0.535447248756371,-0.987807855464339,-298.604159672842
738472.39933321822900325060,0.516983550523392,-0.997039704580828,-298.585695974609
738472.39933330868370831013,0.489288003173925,-1.0247352519303,-298.613391521958
738472.39933339913841336966,0.415433210242012,-1.08935819574572,-298.631855220191
738472.39933348947670310736,0.341578417310099,-1.11705374309519,-298.641087069308
738472.39933357993140816689,0.230796227912229,-1.17244483779412,-298.604159672842
738472.39933367038611322641,0.175405133213294,-1.24629963072604,-298.641087069308
738472.39933376084081828594,0.0738547929319132,-1.2739951780755,-298.641087069308
738472.39933385129552334547,0.0369273964659566,-1.2739951780755,-298.641087069308
738472.39933394175022840500,-0.0184636982329783,-1.32015442365795,-298.622623371075
738472.39933403208851814270,-0.0276955473494674,-1.34784997100742,-298.650318918424
738472.39933412254322320223,-0.0553910946989349,-1.3570818201239,-298.659550767541
738472.39933421299792826176,-0.0461592455824458,-1.36631366924039,-298.678014465773
738472.39933430345263332129,-0.064622943815424,-1.36631366924039,-298.650318918424
738472.39933439390733838081,-0.0738547929319132,-1.38477736747337,-298.650318918424
738472.39933448424562811852,-0.064622943815424,-1.3570818201239,-298.613391521958
738472.39933457470033317804,-0.0738547929319132,-1.37554551835688,-298.631855220191
738472.39933466515503823757,-0.0553910946989349,-1.38477736747337,-298.631855220191
738472.39933475560974329710,-0.0830866420484024,-1.40324106570635,-298.641087069308
738472.39933484606444835663,-0.064622943815424,-1.37554551835688,-298.650318918424
738472.39933493651915341616,-0.0553910946989349,-1.3570818201239,-298.641087069308
738472.39933502685744315386,-0.0461592455824458,-1.3570818201239,-298.714941862239
738472.39933511731214821339,-0.0461592455824458,-1.36631366924039,-298.751869258705
738472.39933520776685327291,-0.0461592455824458,-1.34784997100742,-298.641087069308
738472.39933529822155833244,-0.0553910946989349,-1.3570818201239,-298.705710013123
738472.39933538867626339197,-0.0461592455824458,-1.36631366924039,-298.668782616657
738472.39933547913096845150,-0.0553910946989349,-1.36631366924039,-298.668782616657
738472.39933556946925818920,-0.0553910946989349,-1.37554551835688,-298.631855220191
738472.39933565992396324873,-0.0553910946989349,-1.37554551835688,-298.724173711356
738472.39933575037866830826,-0.064622943815424,-1.38477736747337,-298.68724631489
738472.39933584083337336779,-0.0738547929319132,-1.37554551835688,-298.641087069308
738472.39933593128807842731,-0.0830866420484024,-1.38477736747337,-298.678014465773
738472.39933602174278348684,-0.0830866420484024,-1.37554551835688,-298.641087069308
738472.39933611208107322454,-0.0830866420484024,-1.41247291482284,-298.742637409589
738472.39933620253577828407,-0.101550340281381,-1.40324106570635,-298.733405560472
738472.39933629299048334360,-0.11078218939787,-1.37554551835688,-298.668782616657
738472.39933638344518840313,-0.0923184911648915,-1.36631366924039,-298.548768578143
738472.39933647389989346266,-0.120014038514359,-1.39400921658986,-298.650318918424
738472.39933656435459852219,-0.101550340281381,-1.38477736747337,-298.742637409589
738472.39933665469288825989,-0.101550340281381,-1.38477736747337,-298.68724631489
738472.39933674514759331942,-0.101550340281381,-1.39400921658986,-298.751869258705
738472.39933683560229837894,-0.129245887630848,-1.41247291482284,-298.742637409589
738472.39933692605700343847,-0.120014038514359,-1.40324106570635,-298.714941862239
738472.39933701651170849800,-0.129245887630848,-1.42170476393933,-298.724173711356
738472.39933710684999823570,-0.120014038514359,-1.41247291482284,-298.724173711356
738472.39933719730470329523,-0.120014038514359,-1.41247291482284,-298.742637409589
738472.39933728775940835476,-0.138477736747337,-1.41247291482284,-298.724173711356
738472.39933737821411341429,-0.101550340281381,-1.38477736747337,-298.742637409589
738472.39933746866881847382,-0.129245887630848,-1.40324106570635,-298.761101107822
738472.39933755912352353334,-0.120014038514359,-1.40324106570635,-298.705710013123
738472.39933764946181327105,-0.138477736747337,-1.41247291482284,-298.733405560472
738472.39933773991651833057,-0.120014038514359,-1.41247291482284,-298.659550767541
738472.39933783037122339010,-0.138477736747337,-1.41247291482284,-298.650318918424
738472.39933792082592844963,-0.120014038514359,-1.41247291482284,-298.650318918424
738472.39933801128063350916,-0.129245887630848,-1.40324106570635,-298.659550767541
738472.39933810173533856869,-0.129245887630848,-1.40324106570635,-298.678014465773
738472.39933819207362830639,-0.138477736747337,-1.40324106570635,-298.724173711356
738472.39933828252833336592,-0.11078218939787,-1.38477736747337,-298.604159672842
738472.39933837298303842545,-0.138477736747337,-1.40324106570635,-298.650318918424
738472.39933846343774348497,-0.120014038514359,-1.39400921658986,-298.678014465773
738472.39933855389244854450,-0.129245887630848,-1.40324106570635,-298.668782616657
738472.39933864434715360403,-0.147709585863826,-1.41247291482284,-298.68724631489
738472.39933873468544334173,-0.129245887630848,-1.39400921658986,-298.678014465773
738472.39933882514014840126,-0.156941434980316,-1.42170476393933,-298.659550767541
738472.39933891559485346079,-0.129245887630848,-1.42170476393933,-298.641087069308
738472.39933900604955852032,-0.138477736747337,-1.42170476393933,-298.659550767541
738472.39933909650426357985,-0.11078218939787,-1.38477736747337,-298.659550767541
738472.39933918695896863937,-0.120014038514359,-1.39400921658986,-298.68724631489
738472.39933927729725837708,-0.0553910946989349,-1.3570818201239,-298.659550767541
738472.39933936775196343660,-0.0184636982329783,-1.34784997100742,-298.668782616657
738472.39933945820666849613,0.0184636982329783,-1.33861812189093,-298.751869258705
738472.39933954866137355566,0.0276955473494674,-1.36631366924039,-298.724173711356
738472.39933963911607861519,0.0553910946989349,-1.36631366924039,-298.659550767541
738472.39933972945436835289,0.0553910946989349,-1.33861812189093,-298.724173711356
738472.39933981990907341242,0.0553910946989349,-1.34784997100742,-298.696478164006
738472.39933991036377847195,0.0184636982329783,-1.33861812189093,-298.53030487991
738472.39934000081848353148,0,-1.37554551835688,-298.622623371075
738472.39934009127318859100,-0.064622943815424,-1.37554551835688,-298.696478164006
738472.39934018172789365053,-0.101550340281381,-1.38477736747337,-298.68724631489
738472.39934027206618338823,-0.11078218939787,-1.38477736747337,-298.742637409589
738472.39934036252088844776,-0.147709585863826,-1.41247291482284,-298.733405560472
738472.39934045297559350729,-0.147709585863826,-1.40324106570635,-298.714941862239
738472.39934054343029856682,-0.166173284096805,-1.42170476393933,-298.724173711356
738472.39934063388500362635,-0.166173284096805,-1.42170476393933,-298.751869258705
738472.39934072433970868587,-0.184636982329783,-1.42170476393933,-298.742637409589
738472.39934081467799842358,-0.175405133213294,-1.42170476393933,-298.659550767541
738472.39934090513270348310,-0.175405133213294,-1.42170476393933,-298.761101107822
738472.39934099558740854263,-0.184636982329783,-1.4494003112888,-298.742637409589
738472.39934108604211360216,-0.193868831446272,-1.43093661305582,-298.678014465773
738472.39934117649681866169,-0.21233252967925,-1.39400921658986,-298.733405560472
738472.39934126695152372122,-0.230796227912229,-1.38477736747337,-298.733405560472
738472.39934135728981345892,-0.064622943815424,-1.32015442365795,-298.733405560472
738472.39934144774451851845,0.276955473494675,-1.30169072542497,-298.659550767541
738472.39934153819922357798,0.950880458998382,-1.41247291482284,-298.659550767541
738472.39934162865392863750,1.3570818201239,-1.56018250068667,-298.631855220191
738472.39934171910863369703,0.793939024018067,-1.68942838831751,-298.696478164006
738472.39934180956333875656,0.0830866420484024,-1.82790612506485,-298.816492202521
738472.39934189990162849426,-0.461592455824458,-1.7909787285989,-298.881115146336
738472.39934199035633355379,-0.470824304940947,-1.59710989715262,-298.742637409589
738472.39934208081103861332,-0.424665059358501,-1.41247291482284,-298.724173711356
738472.39934217126574367285,-0.295419171727653,-1.38477736747337,-298.761101107822
738472.39934226172044873238,-0.22156437879574,-1.37554551835688,-298.761101107822
738472.39934235205873847008,-0.101550340281381,-1.34784997100742,-298.696478164006
738472.39934244251344352961,-0.064622943815424,-1.36631366924039,-298.751869258705
738472.39934253296814858913,-0.0738547929319132,-1.39400921658986,-298.751869258705
738472.39934262342285364866,-0.0461592455824458,-1.38477736747337,-298.733405560472
738472.39934271387755870819,-0.0276955473494674,-1.37554551835688,-298.761101107822
738472.39934280433226376772,0.00923184911648915,-1.34784997100742,-298.733405560472
738472.39934289467055350542,0.0184636982329783,-1.36631366924039,-298.751869258705
738472.39934298512525856495,0.0461592455824458,-1.33861812189093,-298.742637409589
738472.39934307557996362448,0.0369273964659566,-1.3570818201239,-298.705710013123
738472.39934316603466868401,0.0553910946989349,-1.34784997100742,-298.622623371075
738472.39934325648937374353,0.0923184911648915,-1.31092257454146,-298.659550767541
738472.39934334694407880306,0.101550340281381,-1.31092257454146,-298.613391521958
738472.39934343728236854076,0.120014038514359,-1.31092257454146,-298.493377483444
738472.39934352773707360029,0.138477736747337,-1.30169072542497,-298.558000427259
738472.39934361819177865982,0.147709585863826,-1.30169072542497,-298.604159672842
738472.39934370864648371935,0.203100680562761,-1.25553147984252,-298.576464125492
738472.39934379910118877888,0.203100680562761,-1.23706778160955,-298.613391521958
738472.39934388955589383841,0.249259926145207,-1.21860408337657,-298.650318918424
738472.39934397989418357611,0.276955473494675,-1.20937223426008,-298.659550767541
738472.39934407034888863564,0.286187322611164,-1.20014038514359,-298.585695974609
738472.39934416080359369516,0.341578417310099,-1.13551744132817,-298.641087069308
738472.39934425125829875469,0.350810266426588,-1.13551744132817,-298.641087069308
738472.39934434171300381422,0.406201361125523,-1.09859004486221,-298.622623371075
738472.39934443216770887375,0.43389690847499,-1.07089449751274,-298.622623371075
738472.39934452250599861145,0.480056154057436,-1.04319895016327,-298.622623371075
738472.39934461296070367098,0.498519852290414,-1.0247352519303,-298.668782616657
738472.39934470341540873051,0.507751701406903,-1.01550340281381,-298.558000427259
738472.39934479387011379004,0.535447248756371,-1.00627155369732,-298.668782616657
738472.39934488432481884956,0.489288003173925,-1.05243079927976,-298.650318918424
738472.39934497466310858727,0.452360606707968,-1.07089449751274,-298.585695974609
738472.39934506511781364679,0.378505813776055,-1.13551744132817,-298.68724631489
738472.39934515557251870632,0.276955473494675,-1.20014038514359,-298.678014465773
738472.39934524602722376585,0.184636982329783,-1.26476332895901,-298.705710013123
738472.39934533648192882538,0.11078218939787,-1.29245887630848,-298.696478164006
738472.39934542693663388491,0.064622943815424,-1.32938627277444,-298.733405560472
738472.39934551727492362261,0.00923184911648915,-1.37554551835688,-298.742637409589
738472.39934560772962868214,0,-1.38477736747337,-298.668782616657
738472.39934569818433374166,-0.0461592455824458,-1.40324106570635,-298.733405560472
738472.39934578863903880119,-0.0369273964659566,-1.39400921658986,-298.779564806055
738472.39934587909374386072,-0.0461592455824458,-1.38477736747337,-298.770332956938
738472.39934596954844892025,-0.0369273964659566,-1.38477736747337,-298.705710013123
738472.39934605988673865795,-0.0553910946989349,-1.40324106570635,-298.761101107822
738472.39934615034144371748,-0.0553910946989349,-1.40324106570635,-298.751869258705
738472.39934624079614877701,-0.0276955473494674,-1.39400921658986,-298.668782616657
738472.39934633125085383654,-0.0276955473494674,-1.40324106570635,-298.714941862239
738472.39934642170555889606,-0.0184636982329783,-1.38477736747337,-298.761101107822
738472.39934651216026395559,-0.0553910946989349,-1.41247291482284,-298.668782616657
738472.39934660249855369329,-0.0184636982329783,-1.40324106570635,-298.714941862239
738472.39934669295325875282,-0.0461592455824458,-1.41247291482284,-298.761101107822
738472.39934678340796381235,-0.0184636982329783,-1.40324106570635,-298.742637409589
738472.39934687386266887188,-0.0369273964659566,-1.43093661305582,-298.724173711356
738472.39934696431737393141,-0.0276955473494674,-1.42170476393933,-298.622623371075
738472.39934705477207899094,-0.0461592455824458,-1.42170476393933,-298.659550767541
738472.39934714511036872864,-0.00923184911648915,-1.39400921658986,-298.696478164006
738472.39934723556507378817,-0.064622943815424,-1.43093661305582,-298.678014465773
738472.39934732601977884769,-0.0461592455824458,-1.41247291482284,-298.678014465773
738472.39934741647448390722,-0.0738547929319132,-1.42170476393933,-298.622623371075
738472.39934750692918896675,-0.064622943815424,-1.41247291482284,-298.668782616657
738472.39934759726747870445,-0.0738547929319132,-1.42170476393933,-298.668782616657
738472.39934768772218376398,-0.0738547929319132,-1.42170476393933,-298.678014465773
738472.39934777817688882351,-0.064622943815424,-1.42170476393933,-298.678014465773
738472.39934786863159388304,-0.0830866420484024,-1.43093661305582,-298.668782616657
738472.39934795908629894257,-0.0738547929319132,-1.42170476393933,-298.705710013123
738472.39934804954100400209,-0.0738547929319132,-1.42170476393933,-298.668782616657
738472.39934813987929373980,-0.0738547929319132,-1.42170476393933,-298.678014465773
738472.39934823033399879932,-0.101550340281381,-1.43093661305582,-298.678014465773
738472.39934832078870385885,-0.0830866420484024,-1.42170476393933,-298.696478164006
738472.39934841124340891838,-0.101550340281381,-1.43093661305582,-298.696478164006
738472.39934850169811397791,-0.11078218939787,-1.43093661305582,-298.724173711356
738472.39934859215281903744,-0.0923184911648915,-1.42170476393933,-298.678014465773
738472.39934868249110877514,-0.101550340281381,-1.43093661305582,-298.668782616657
738472.39934877294581383467,-0.0923184911648915,-1.42170476393933,-298.733405560472
738472.39934886340051889420,-0.101550340281381,-1.43093661305582,-298.751869258705
738472.39934895385522395372,-0.101550340281381,-1.42170476393933,-298.751869258705
738472.39934904430992901325,-0.11078218939787,-1.43093661305582,-298.724173711356
738472.39934913476463407278,-0.101550340281381,-1.42170476393933,-298.733405560472
738472.39934922510292381048,-0.101550340281381,-1.41247291482284,-298.733405560472
738472.39934931555762887001,-0.0738547929319132,-1.39400921658986,-298.68724631489
738472.39934940601233392954,-0.120014038514359,-1.43093661305582,-298.761101107822
738472.39934949646703898907,-0.101550340281381,-1.41247291482284,-298.751869258705
738472.39934958692174404860,-0.101550340281381,-1.41247291482284,-298.770332956938
738472.39934967737644910812,-0.11078218939787,-1.43093661305582,-298.714941862239
738472.39934976771473884583,-0.101550340281381,-1.42170476393933,-298.770332956938
738472.39934985816944390535,-0.11078218939787,-1.43093661305582,-298.770332956938
738472.39934994862414896488,-0.0830866420484024,-1.40324106570635,-298.705710013123
738472.39935003907885402441,-0.101550340281381,-1.42170476393933,-298.770332956938
738472.39935012953355908394,-0.0738547929319132,-1.39400921658986,-298.779564806055
738472.39935021987184882164,-0.0184636982329783,-1.37554551835688,-298.714941862239
738472.39935031032655388117,0.0276955473494674,-1.3570818201239,-298.751869258705
738472.39935040078125894070,0.0369273964659566,-1.36631366924039,-298.770332956938
738472.39935049123596400023,0.0738547929319132,-1.38477736747337,-298.585695974609
738472.39935058169066905975,0.0923184911648915,-1.36631366924039,-298.631855220191
738472.39935067214537411928,0.11078218939787,-1.33861812189093,-298.650318918424
738472.39935076248366385698,0.0830866420484024,-1.33861812189093,-298.631855220191
738472.39935085293836891651,0.0276955473494674,-1.36631366924039,-298.650318918424
738472.39935094339307397604,-0.00923184911648915,-1.39400921658986,-298.659550767541
738472.39935103384777903557,-0.064622943815424,-1.40324106570635,-298.668782616657
738472.39935112430248409510,-0.064622943815424,-1.39400921658986,-298.641087069308
738472.39935121475718915462,-0.0923184911648915,-1.42170476393933,-298.622623371075
738472.39935130509547889233,-0.101550340281381,-1.41247291482284,-298.68724631489
738472.39935139555018395185,-0.147709585863826,-1.4494003112888,-298.696478164006
738472.39935148600488901138,-0.147709585863826,-1.44016846217231,-298.678014465773
738472.39935157645959407091,-0.147709585863826,-1.44016846217231,-298.68724631489
738472.39935166691429913044,-0.101550340281381,-1.40324106570635,-298.678014465773
738472.39935175736900418997,-0.138477736747337,-1.43093661305582,-298.68724631489
738472.39935184770729392767,-0.11078218939787,-1.41247291482284,-298.678014465773
738472.39935193816199898720,-0.129245887630848,-1.43093661305582,-298.696478164006
738472.39935202861670404673,-0.156941434980316,-1.43093661305582,-298.705710013123
738472.39935211907140910625,-0.240028077028718,-1.44016846217231,-298.705710013123
738472.39935220952611416578,-0.129245887630848,-1.39400921658986,-298.705710013123
738472.39935229998081922531,0.0369273964659566,-1.39400921658986,-298.705710013123
738472.39935239031910896301,0.498519852290414,-1.34784997100742,-298.585695974609
738472.39935248077381402254,1.25553147984252,-1.44016846217231,-298.631855220191
738472.39935257122851908207,1.16321298867763,-1.6155735953856,-298.631855220191
738472.39935266168322414160,0.424665059358501,-1.67096469008454,-298.678014465773
738472.39935275213792920113,-0.156941434980316,-1.80944242683187,-298.798028504288
738472.39935284247621893883,-0.406201361125523,-1.6155735953856,-298.751869258705
738472.39935293293092399836,-0.396969512009033,-1.4494003112888,-298.696478164006
738472.39935302338562905788,-0.369273964659566,-1.34784997100742,-298.705710013123
738472.39935311384033411741,-0.267723624378185,-1.37554551835688,-298.714941862239
738472.39935320429503917694,-0.138477736747337,-1.36631366924039,-298.68724631489
738472.39935329474974423647,-0.11078218939787,-1.38477736747337,-298.705710013123
738472.39935338508803397417,-0.0369273964659566,-1.37554551835688,-298.696478164006
738472.39935347554273903370,-0.0276955473494674,-1.38477736747337,-298.705710013123
738472.39935356599744409323,0,-1.36631366924039,-298.705710013123
738472.39935365645214915276,0,-1.38477736747337,-298.631855220191
738472.39935374690685421228,0.0553910946989349,-1.34784997100742,-298.705710013123
738472.39935383736155927181,0.0461592455824458,-1.36631366924039,-298.714941862239
738472.39935392769984900951,0.0276955473494674,-1.40324106570635,-298.696478164006
738472.39935401815455406904,0.0461592455824458,-1.39400921658986,-298.585695974609
738472.39935410860925912857,0.147709585863826,-1.30169072542497,-298.594927823725
738472.39935419906396418810,0.147709585863826,-1.32938627277444,-298.724173711356
738472.39935428951866924763,0.101550340281381,-1.36631366924039,-298.650318918424
738472.39935437997337430716,0.129245887630848,-1.34784997100742,-298.705710013123
738472.39935447031166404486,0.147709585863826,-1.34784997100742,-298.724173711356
738472.39935456076636910439,0.175405133213294,-1.33861812189093,-298.641087069308
738472.39935465122107416391,0.21233252967925,-1.31092257454146,-298.678014465773
738472.39935474167577922344,0.258491775261696,-1.25553147984252,-298.705710013123
738472.39935483213048428297,0.304651020844142,-1.22783593249306,-298.696478164006
738472.39935492258518934250,0.286187322611164,-1.24629963072604,-298.641087069308
738472.39935501292347908020,0.332346568193609,-1.21860408337657,-298.668782616657
738472.39935510337818413973,0.378505813776055,-1.16321298867763,-298.696478164006
738472.39935519383288919926,0.360042115543077,-1.18167668691061,-298.668782616657
738472.39935528428759425879,0.387737662892544,-1.18167668691061,-298.650318918424
738472.39935537474229931831,0.43389690847499,-1.14474929044465,-298.668782616657
738472.39935546508058905602,0.498519852290414,-1.08935819574572,-298.594927823725
738472.39935555553529411554,0.470824304940947,-1.1078218939787,-298.558000427259
738472.39935564598999917507,0.516983550523392,-1.06166264839625,-298.585695974609
738472.39935573644470423460,0.489288003173925,-1.08935819574572,-298.567232276376
738472.39935582689940929413,0.452360606707968,-1.11705374309519,-298.594927823725
738472.39935591735411435366,0.43389690847499,-1.09859004486221,-298.613391521958
738472.39935600769240409136,0.249259926145207,-1.26476332895901,-298.622623371075
738472.39935609814710915089,0.184636982329783,-1.28322702719199,-298.622623371075
738472.39935618860181421041,0.120014038514359,-1.32938627277444,-298.641087069308
738472.39935627905651926994,0.064622943815424,-1.36631366924039,-298.650318918424
738472.39935636951122432947,0.0369273964659566,-1.37554551835688,-298.696478164006
738472.39935645996592938900,0.00923184911648915,-1.39400921658986,-298.678014465773
738472.39935655030421912670,-0.0184636982329783,-1.40324106570635,-298.650318918424
738472.39935664075892418623,-0.00923184911648915,-1.40324106570635,-298.668782616657
738472.39935673121362924576,-0.0461592455824458,-1.44016846217231,-298.68724631489
738472.39935682166833430529,-0.0184636982329783,-1.41247291482284,-298.742637409589
738472.39935691212303936481,-0.00923184911648915,-1.40324106570635,-298.733405560472
738472.39935700257774442434,-0.0184636982329783,-1.41247291482284,-298.678014465773
738472.39935709291603416204,-0.0276955473494674,-1.41247291482284,-298.659550767541
738472.39935718337073922157,0,-1.39400921658986,-298.724173711356
738472.39935727382544428110,-0.0184636982329783,-1.41247291482284,-298.714941862239
738472.39935736428014934063,-0.0276955473494674,-1.42170476393933,-298.733405560472
738472.39935745473485440016,-0.00923184911648915,-1.39400921658986,-298.733405560472
738472.39935754518955945969,-0.0553910946989349,-1.44016846217231,-298.668782616657
738472.39935763552784919739,-0.0184636982329783,-1.40324106570635,-298.622623371075
738472.39935772598255425692,-0.0276955473494674,-1.39400921658986,-298.742637409589
738472.39935781643725931644,0,-1.37554551835688,-298.696478164006
738472.39935790689196437597,-0.0276955473494674,-1.40324106570635,-298.724173711356
738472.39935799734666943550,-0.0276955473494674,-1.40324106570635,-298.761101107822
738472.39935808768495917320,-0.0553910946989349,-1.43093661305582,-298.696478164006
738472.39935817813966423273,-0.0461592455824458,-1.41247291482284,-298.724173711356
738472.39935826859436929226,-0.0276955473494674,-1.39400921658986,-298.733405560472
738472.39935835904907435179,0,-1.36631366924039,-298.714941862239
738472.39935844950377941132,-0.0923184911648915,-1.44016846217231,-298.751869258705
738472.39935853995848447084,-0.120014038514359,-1.48632770775475,-298.761101107822
738472.39935863029677420855,-0.11078218939787,-1.45863216040529,-298.742637409589
738472.39935872075147926807,-0.0830866420484024,-1.44016846217231,-298.705710013123
738472.39935881120618432760,-0.101550340281381,-1.4494003112888,-298.724173711356
738472.39935890166088938713,-0.0923184911648915,-1.44016846217231,-298.742637409589
738472.39935899211559444666,-0.0369273964659566,-1.39400921658986,-298.714941862239
738472.39935908257029950619,-0.0738547929319132,-1.41247291482284,-298.742637409589
738472.39935917290858924389,-0.101550340281381,-1.4494003112888,-298.779564806055
738472.39935926336329430342,-0.120014038514359,-1.46786400952177,-298.770332956938
738472.39935935381799936295,-0.0923184911648915,-1.4494003112888,-298.751869258705
738472.39935944427270442247,-0.101550340281381,-1.44016846217231,-298.668782616657
738472.39935953472740948200,-0.0461592455824458,-1.39400921658986,-298.613391521958
738472.39935962518211454153,-0.0830866420484024,-1.41247291482284,-298.631855220191
738472.39935971552040427923,-0.11078218939787,-1.4494003112888,-298.622623371075
738472.39935980597510933876,-0.138477736747337,-1.47709585863826,-298.650318918424
738472.39935989642981439829,-0.11078218939787,-1.4494003112888,-298.659550767541
738472.39935998688451945782,-0.11078218939787,-1.4494003112888,-298.68724631489
738472.39936007733922451735,-0.0923184911648915,-1.44016846217231,-298.714941862239
738472.39936016779392957687,-0.11078218939787,-1.4494003112888,-298.696478164006
738472.39936025813221931458,-0.101550340281381,-1.44016846217231,-298.733405560472
738472.39936034858692437410,-0.0923184911648915,-1.41247291482284,-298.714941862239
738472.39936043904162943363,-0.0830866420484024,-1.43093661305582,-298.705710013123
738472.39936052949633449316,-0.064622943815424,-1.41247291482284,-298.714941862239
738472.39936061995103955269,0.0276955473494674,-1.36631366924039,-298.761101107822
738472.39936071028932929039,0.0553910946989349,-1.34784997100742,-298.733405560472
738472.39936080074403434992,0.0830866420484024,-1.32938627277444,-298.705710013123
738472.39936089119873940945,0.064622943815424,-1.42170476393933,-298.724173711356
738472.39936098165344446898,0.0553910946989349,-1.42170476393933,-298.696478164006
738472.39936107210814952850,0.0830866420484024,-1.38477736747337,-298.641087069308
738472.39936116256285458803,0.101550340281381,-1.32938627277444,-298.594927823725
738472.39936125290114432573,0.11078218939787,-1.31092257454146,-298.68724631489
738472.39936134335584938526,0,-1.41247291482284,-298.68724631489
738472.39936143381055444479,-0.0923184911648915,-1.46786400952177,-298.650318918424
738472.39936152426525950432,-0.0738547929319132,-1.41247291482284,-298.678014465773
738472.39936161471996456385,-0.0738547929319132,-1.41247291482284,-298.714941862239
738472.39936170517466962337,-0.00923184911648915,-1.32938627277444,-298.761101107822
738472.39936179551295936108,-0.101550340281381,-1.42170476393933,-298.751869258705
738472.39936188596766442060,-0.11078218939787,-1.39400921658986,-298.705710013123
738472.39936197642236948013,-0.064622943815424,-1.34784997100742,-298.761101107822
738472.39936206687707453966,0,-1.30169072542497,-298.724173711356
738472.39936215733177959919,-0.101550340281381,-1.39400921658986,-298.678014465773
738472.39936224778648465872,-0.295419171727653,-1.59710989715262,-298.770332956938
738472.39936233812477439642,-0.267723624378185,-1.57864619891964,-298.751869258705
738472.39936242857947945595,-0.120014038514359,-1.40324106570635,-298.724173711356
738472.39936251903418451548,-0.203100680562761,-1.40324106570635,-298.705710013123
738472.39936260948888957500,-0.240028077028718,-1.48632770775475,-298.770332956938
738472.39936269994359463453,0,-1.3570818201239,-298.714941862239
738472.39936279039829969406,0.350810266426588,-1.41247291482284,-298.641087069308
738472.39936288073658943176,1.13551744132817,-1.47709585863826,-298.68724631489
738472.39936297119129449129,1.42170476393933,-1.57864619891964,-298.678014465773
738472.39936306164599955082,0.609302041688284,-1.86483352153081,-298.68724631489
738472.39936315210070461035,-0.0369273964659566,-1.94792016357921,-298.862651448103
738472.39936324255540966988,-0.360042115543077,-1.67096469008454,-298.862651448103
738472.39936333289369940758,-0.387737662892544,-1.50479140598773,-298.714941862239
738472.39936342334840446711,-0.600070192571795,-1.62480544450209,-298.668782616657
738472.39936351380310952663,-0.378505813776055,-1.54171880245369,-298.668782616657
738472.39936360425781458616,-0.175405133213294,-1.4494003112888,-298.650318918424
738472.39936369471251964569,-0.166173284096805,-1.50479140598773,-298.668782616657
738472.39936378516722470522,-0.0553910946989349,-1.43093661305582,-298.678014465773
738472.39936387550551444292,-0.064622943815424,-1.44016846217231,-298.613391521958
738472.39936396596021950245,-0.0830866420484024,-1.48632770775475,-298.659550767541
738472.39936405641492456198,-0.0553910946989349,-1.45863216040529,-298.696478164006
738472.39936414686962962151,0.0461592455824458,-1.36631366924039,-298.668782616657
738472.39936423732433468103,-0.00923184911648915,-1.40324106570635,-298.678014465773
738472.39936432777903974056,0.00923184911648915,-1.44016846217231,-298.678014465773
738472.39936441811732947826,0.00923184911648915,-1.43093661305582,-298.678014465773
738472.39936450857203453779,0.064622943815424,-1.38477736747337,-298.705710013123
738472.39936459902673959732,0.0461592455824458,-1.41247291482284,-298.68724631489
738472.39936468948144465685,0.064622943815424,-1.40324106570635,-298.594927823725
738472.39936477993614971638,0.0830866420484024,-1.40324106570635,-298.68724631489
738472.39936487039085477591,0.193868831446272,-1.29245887630848,-298.733405560472
738472.39936496072914451361,0.21233252967925,-1.28322702719199,-298.659550767541
738472.39936505118384957314,0.138477736747337,-1.37554551835688,-298.631855220191
738472.39936514163855463266,0.147709585863826,-1.37554551835688,-298.631855220191
738472.39936523209325969219,0.21233252967925,-1.32015442365795,-298.650318918424
738472.39936532254796475172,0.304651020844142,-1.23706778160955,-298.650318918424
738472.39936541300266981125,0.267723624378185,-1.24629963072604,-298.622623371075
738472.39936550334095954895,0.360042115543077,-1.20014038514359,-298.613391521958
738472.39936559379566460848,0.396969512009033,-1.15398113956114,-298.668782616657
738472.39936568425036966801,0.452360606707968,-1.11705374309519,-298.641087069308
738472.39936577470507472754,0.470824304940947,-1.11705374309519,-298.594927823725
738472.39936586515977978706,0.516983550523392,-1.08012634662923,-298.641087069308
738472.39936595549806952477,0.516983550523392,-1.07089449751274,-298.668782616657
738472.39936604595277458429,0.489288003173925,-1.11705374309519,-298.641087069308
738472.39936613640747964382,0.461592455824458,-1.13551744132817,-298.585695974609
738472.39936622686218470335,0.452360606707968,-1.13551744132817,-298.622623371075
738472.39936631731688976288,0.415433210242012,-1.15398113956114,-298.650318918424
738472.39936640777159482241,0.332346568193609,-1.1909085360271,-298.678014465773
738472.39936649810988456011,0.22156437879574,-1.25553147984252,-298.622623371075
738472.39936658856458961964,0.0923184911648915,-1.3570818201239,-298.724173711356
738472.39936667901929467916,0.0461592455824458,-1.38477736747337,-298.714941862239
738472.39936676947399973869,-0.0184636982329783,-1.41247291482284,-298.604159672842
738472.39936685992870479822,-0.00923184911648915,-1.41247291482284,-298.659550767541
738472.39936695038340985775,-0.0276955473494674,-1.40324106570635,-298.659550767541
738472.39936704072169959545,-0.101550340281381,-1.48632770775475,-298.659550767541
738472.39936713117640465498,-0.0923184911648915,-1.45863216040529,-298.668782616657
738472.39936722163110971451,-0.0553910946989349,-1.43093661305582,-298.724173711356
738472.39936731208581477404,-0.0461592455824458,-1.40324106570635,-298.742637409589
738472.39936740254051983356,-0.120014038514359,-1.49555955687124,-298.714941862239
738472.39936749299522489309,-0.0923184911648915,-1.47709585863826,-298.714941862239
738472.39936758333351463079,-0.0276955473494674,-1.41247291482284,-298.742637409589
738472.39936767378821969032,-0.0738547929319132,-1.44016846217231,-298.724173711356
738472.39936776424292474985,-0.0553910946989349,-1.44016846217231,-298.696478164006
738472.39936785469762980938,-0.0276955473494674,-1.40324106570635,-298.714941862239
738472.39936794515233486891,-0.0923184911648915,-1.49555955687124,-298.761101107822
738472.39936803560703992844,-0.0738547929319132,-1.46786400952177,-298.659550767541
738472.39936812594532966614,-0.0830866420484024,-1.46786400952177,-298.622623371075
738472.39936821640003472567,-0.0553910946989349,-1.4494003112888,-298.53030487991
738472.39936830685473978519,-0.064622943815424,-1.4494003112888,-298.668782616657
738472.39936839730944484472,-0.0184636982329783,-1.41247291482284,-298.678014465773
738472.39936848776414990425,-0.0738547929319132,-1.4494003112888,-298.705710013123
738472.39936857810243964195,-0.0276955473494674,-1.42170476393933,-298.705710013123
738472.39936866855714470148,-0.0830866420484024,-1.45863216040529,-298.751869258705
738472.39936875901184976101,-0.0923184911648915,-1.46786400952177,-298.678014465773
738472.39936884946655482054,-0.0830866420484024,-1.4494003112888,-298.68724631489
738472.39936893992125988007,-0.101550340281381,-1.45863216040529,-298.724173711356
738472.39936903037596493959,-0.0923184911648915,-1.4494003112888,-298.714941862239
738472.39936912071425467730,-0.0923184911648915,-1.45863216040529,-298.68724631489
738472.39936921116895973682,-0.11078218939787,-1.47709585863826,-298.714941862239
738472.39936930162366479635,-0.101550340281381,-1.4494003112888,-298.742637409589
738472.39936939207836985588,-0.101550340281381,-1.44016846217231,-298.742637409589
738472.39936948253307491541,-0.101550340281381,-1.4494003112888,-298.68724631489
738472.39936957298777997494,-0.0738547929319132,-1.41247291482284,-298.678014465773
738472.39936966332606971264,-0.11078218939787,-1.4494003112888,-298.751869258705
738472.39936975378077477217,-0.120014038514359,-1.47709585863826,-298.668782616657
738472.39936984423547983170,-0.11078218939787,-1.4494003112888,-298.678014465773
738472.39936993469018489122,-0.129245887630848,-1.47709585863826,-298.705710013123
738472.39937002514488995075,-0.11078218939787,-1.46786400952177,-298.650318918424
738472.39937011559959501028,-0.0923184911648915,-1.4494003112888,-298.678014465773
738472.39937020593788474798,-0.129245887630848,-1.45863216040529,-298.668782616657
