time_dn,ecg_projection_ll_ra_mV,ecg_projection_la_ra_mV,ecg_projection_vx_rl_mV
738472.36716432555112987757,-0.193868831446272,-2.67723624378185,-299.39809869686
738472.36716441600583493710,-0.360042115543077,-2.60338145084994,-299.287316507462
738472.36716450646053999662,-0.295419171727653,-2.39104892117069,-299.259620960112
738472.36716459691524505615,-0.147709585863826,-2.36335337382122,-299.241157261879
738472.36716468725353479385,-0.0461592455824458,-2.34488967558824,-299.278084658345
738472.36716477770823985338,0.064622943815424,-2.30796227912229,-299.231925412763
738472.36716486816294491291,0.101550340281381,-2.32642597735527,-299.259620960112
738472.36716495861764997244,0.101550340281381,-2.33565782647175,-299.287316507462
738472.36716504907235503197,0.156941434980316,-2.30796227912229,-299.287316507462
738472.36716513941064476967,0.129245887630848,-2.33565782647175,-299.231925412763
738472.36716522986534982920,0.156941434980316,-2.32642597735527,-299.250389110996
738472.36716532032005488873,0.175405133213294,-2.30796227912229,-299.287316507462
738472.36716541077475994825,0.21233252967925,-2.28949858088931,-299.222693563646
738472.36716550122946500778,0.21233252967925,-2.28949858088931,-299.278084658345
738472.36716559156775474548,0.230796227912229,-2.28949858088931,-299.296548356578
738472.36716568202245980501,0.22156437879574,-2.2987304300058,-299.231925412763
738472.36716577247716486454,0.249259926145207,-2.28949858088931,-299.250389110996
738472.36716586293186992407,0.267723624378185,-2.26180303353984,-299.278084658345
738472.36716595338657498360,0.276955473494675,-2.27103488265633,-299.268852809229
738472.36716604372486472130,0.304651020844142,-2.25257118442335,-299.241157261879
738472.36716613417956978083,0.350810266426588,-2.2156437879574,-299.241157261879
738472.36716622463427484035,0.350810266426588,-2.22487563707389,-299.231925412763
738472.36716631508897989988,0.378505813776055,-2.20641193884091,-299.194998016297
738472.36716640554368495941,0.443128757591479,-2.15102084414197,-299.231925412763
738472.36716649588197469711,0.424665059358501,-2.18794824060793,-299.241157261879
738472.36716658633667975664,0.470824304940947,-2.15102084414197,-299.167302468947
738472.36716667679138481617,0.54467909787286,-2.06793420209357,-299.18576616718
738472.36716676724608987570,0.581606494338817,-2.06793420209357,-299.139606921598
738472.36716685770079493523,0.664693136387219,-2.00331125827815,-299.038056581317
738472.36716694803908467293,0.75701162755211,-1.93868831446272,-299.130375072481
738472.36716703849378973246,0.747779778435621,-1.97561571092868,-299.167302468947
738472.36716712894849479198,0.738547929319132,-2.01254310739463,-299.158070619831
738472.36716721940319985151,0.821634571367534,-1.94792016357921,-299.093447676016
738472.36716730985790491104,0.784707174901578,-1.99407940916166,-299.148838770714
738472.36716740031260997057,0.720084231086154,-2.03100680562761,-299.148838770714
738472.36716749065089970827,0.65546128727073,-2.05870235297708,-299.121143223365
738472.36716758110560476780,0.563142796105838,-2.10486159855953,-299.194998016297
738472.36716767156030982733,0.452360606707968,-2.16025269325846,-299.21346171453
738472.36716776201501488686,0.295419171727653,-2.27103488265633,-299.204229865413
738472.36716785246971994638,0.21233252967925,-2.30796227912229,-299.231925412763
738472.36716794280800968409,0.184636982329783,-2.31719412823878,-299.231925412763
738472.36716803326271474361,0.193868831446272,-2.28026673177282,-299.241157261879
738472.36716812371741980314,0.129245887630848,-2.34488967558824,-299.18576616718
738472.36716821417212486267,0.0461592455824458,-2.41874446852016,-299.250389110996
738472.36716830462682992220,0.0738547929319132,-2.39104892117069,-299.250389110996
738472.36716839496511965990,0.064622943815424,-2.3818170720542,-299.241157261879
738472.36716848541982471943,0.0830866420484024,-2.3818170720542,-299.194998016297
738472.36716857587452977896,0.101550340281381,-2.35412152470473,-299.241157261879
738472.36716866632923483849,0.064622943815424,-2.39104892117069,-299.250389110996
738472.36716875678393989801,0.0738547929319132,-2.3818170720542,-299.194998016297
738472.36716884712222963572,0.11078218939787,-2.34488967558824,-299.250389110996
738472.36716893757693469524,0.064622943815424,-2.40028077028718,-299.250389110996
738472.36716902803163975477,0.0738547929319132,-2.3818170720542,-299.222693563646
738472.36716911848634481430,0.064622943815424,-2.40028077028718,-299.250389110996
738472.36716920894104987383,0.0738547929319132,-2.39104892117069,-299.222693563646
738472.36716929927933961153,0.129245887630848,-2.34488967558824,-299.18576616718
738472.36716938973404467106,0.0738547929319132,-2.39104892117069,-299.176534318064
738472.36716948018874973059,0.0923184911648915,-2.3818170720542,-299.18576616718
738472.36716957064345479012,0.11078218939787,-2.35412152470473,-299.194998016297
738472.36716966109815984964,0.0738547929319132,-2.40028077028718,-299.21346171453
738472.36716975155286490917,0.0923184911648915,-2.37258522293771,-299.250389110996
738472.36716984189115464687,0.0923184911648915,-2.37258522293771,-299.250389110996
738472.36716993234585970640,0.0553910946989349,-2.39104892117069,-299.241157261879
738472.36717002280056476593,0.064622943815424,-2.39104892117069,-299.250389110996
738472.36717011325526982546,0.0369273964659566,-2.40028077028718,-299.250389110996
738472.36717020370997488499,0.0738547929319132,-2.37258522293771,-299.21346171453
738472.36717029404826462269,0.0369273964659566,-2.40028077028718,-299.102679525132
738472.36717038450296968222,0.0369273964659566,-2.40951261940367,-299.074983977782
738472.36717047495767474174,0.0369273964659566,-2.40028077028718,-299.204229865413
738472.36717056541237980127,0.0184636982329783,-2.40951261940367,-299.231925412763
738472.36717065586708486080,0.0553910946989349,-2.3818170720542,-299.194998016297
738472.36717074620537459850,0.0369273964659566,-2.3818170720542,-299.18576616718
738472.36717083666007965803,0.0184636982329783,-2.41874446852016,-299.21346171453
738472.36717092711478471756,0.00923184911648915,-2.41874446852016,-299.204229865413
738472.36717101756948977709,0.0553910946989349,-2.3818170720542,-299.241157261879
738472.36717110802419483662,0.0276955473494674,-2.39104892117069,-299.241157261879
738472.36717119836248457432,0.0276955473494674,-2.40028077028718,-299.241157261879
738472.36717128881718963385,0,-2.40951261940367,-299.21346171453
738472.36717137927189469337,0.00923184911648915,-2.41874446852016,-299.222693563646
738472.36717146972659975290,0,-2.41874446852016,-299.241157261879
738472.36717156018130481243,0.00923184911648915,-2.41874446852016,-299.222693563646
738472.36717165051959455013,-0.00923184911648915,-2.42797631763665,-299.278084658345
738472.36717174097429960966,0,-2.42797631763665,-299.231925412763
738472.36717183142900466919,0.0276955473494674,-2.39104892117069,-299.259620960112
738472.36717192188370972872,0.0369273964659566,-2.3818170720542,-299.250389110996
738472.36717201233841478825,0.00923184911648915,-2.40951261940367,-299.21346171453
738472.36717210267670452595,0,-2.41874446852016,-299.287316507462
738472.36717219313140958548,0,-2.42797631763665,-299.278084658345
738472.36717228358611464500,-0.0184636982329783,-2.42797631763665,-299.268852809229
738472.36717237404081970453,0,-2.43720816675314,-299.268852809229
738472.36717246449552476406,0.0276955473494674,-2.40028077028718,-299.194998016297
738472.36717255495022982359,0.00923184911648915,-2.41874446852016,-299.231925412763
738472.36717264528851956129,-0.00923184911648915,-2.42797631763665,-299.21346171453
738472.36717273574322462082,-0.00923184911648915,-2.43720816675314,-299.296548356578
738472.36717282619792968035,0.0184636982329783,-2.40028077028718,-299.268852809229
738472.36717291665263473988,0.0369273964659566,-2.39104892117069,-299.21346171453
738472.36717300710733979940,0.00923184911648915,-2.40951261940367,-299.268852809229
738472.36717309744562953711,0,-2.41874446852016,-299.268852809229
738472.36717318790033459663,0.0276955473494674,-2.40028077028718,-299.268852809229
738472.36717327835503965616,0.0276955473494674,-2.39104892117069,-299.259620960112
738472.36717336880974471569,-0.0184636982329783,-2.43720816675314,-299.296548356578
738472.36717345926444977522,-0.0276955473494674,-2.44644001586962,-299.278084658345
738472.36717354960273951292,0.00923184911648915,-2.41874446852016,-299.231925412763
738472.36717364005744457245,0.00923184911648915,-2.41874446852016,-299.268852809229
738472.36717373051214963198,0.0461592455824458,-2.3818170720542,-299.287316507462
738472.36717382096685469151,0.00923184911648915,-2.41874446852016,-299.038056581317
738472.36717391142155975103,0.0369273964659566,-2.39104892117069,-299.21346171453
738472.36717400175984948874,0,-2.43720816675314,-299.278084658345
738472.36717409221455454826,0,-2.44644001586962,-299.287316507462
738472.36717418266925960779,0.0276955473494674,-2.40951261940367,-299.194998016297
738472.36717427312396466732,0,-2.43720816675314,-299.204229865413
738472.36717436357866972685,0.0184636982329783,-2.40951261940367,-299.204229865413
738472.36717445391695946455,0.0553910946989349,-2.40951261940367,-299.194998016297
738472.36717454437166452408,0.129245887630848,-2.36335337382122,-299.231925412763
738472.36717463482636958361,0.166173284096805,-2.34488967558824,-299.268852809229
738472.36717472528107464314,0.193868831446272,-2.37258522293771,-299.241157261879
738472.36717481573577970266,0.193868831446272,-2.37258522293771,-299.268852809229
738472.36717490607406944036,0.203100680562761,-2.34488967558824,-299.194998016297
738472.36717499652877449989,0.184636982329783,-2.34488967558824,-299.18576616718
738472.36717508698347955942,0.184636982329783,-2.31719412823878,-299.204229865413
738472.36717517743818461895,0.0830866420484024,-2.41874446852016,-299.250389110996
738472.36717526789288967848,0.0553910946989349,-2.40951261940367,-299.250389110996
738472.36717535834759473801,0.0276955473494674,-2.40951261940367,-299.222693563646
738472.36717544868588447571,0.0276955473494674,-2.40028077028718,-299.222693563646
738472.36717553914058953524,0.00923184911648915,-2.40028077028718,-299.250389110996
738472.36717562959529459476,-0.0184636982329783,-2.43720816675314,-299.250389110996
738472.36717572004999965429,-0.0184636982329783,-2.43720816675314,-299.241157261879
738472.36717581050470471382,0,-2.41874446852016,-299.250389110996
738472.36717590084299445152,-0.0461592455824458,-2.43720816675314,-299.250389110996
738472.36717599129769951105,-0.0276955473494674,-2.42797631763665,-299.250389110996
738472.36717608175240457058,-0.0369273964659566,-2.43720816675314,-299.305780205695
738472.36717617220710963011,-0.0553910946989349,-2.45567186498611,-299.259620960112
738472.36717626266181468964,-0.0184636982329783,-2.42797631763665,-299.268852809229
738472.36717635300010442734,-0.0276955473494674,-2.40951261940367,-299.250389110996
738472.36717644345480948687,-0.0553910946989349,-2.36335337382122,-299.231925412763
738472.36717653390951454639,-0.0184636982329783,-2.39104892117069,-299.231925412763
738472.36717662436421960592,0.230796227912229,-2.33565782647175,-299.204229865413
738472.36717671481892466545,0.784707174901578,-2.31719412823878,-299.18576616718
738472.36717680515721440315,1.58787804803613,-2.49259926145207,-299.176534318064
738472.36717689561191946268,1.42170476393933,-2.56645405438398,-299.139606921598
738472.36717698606662452221,0.65546128727073,-2.6403088473159,-299.268852809229
738472.36717707652132958174,-0.129245887630848,-2.86187322611164,-299.407330545976
738472.36717716697603464127,-0.341578417310099,-2.66800439466536,-299.351939451277
738472.36717725731432437897,-0.332346568193609,-2.4649037141026,-299.241157261879
738472.36717734776902943850,-0.21233252967925,-2.37258522293771,-299.111911374248
738472.36717743822373449802,-0.0738547929319132,-2.3818170720542,-299.18576616718
738472.36717752867843955755,0.0830866420484024,-2.31719412823878,-299.18576616718
738472.36717761913314461708,0.11078218939787,-2.32642597735527,-299.268852809229
738472.36717770958784967661,0.138477736747337,-2.31719412823878,-299.250389110996
738472.36717779992613941431,0.0923184911648915,-2.36335337382122,-299.259620960112
738472.36717789038084447384,0.0923184911648915,-2.3818170720542,-299.222693563646
738472.36717798083554953337,0.138477736747337,-2.35412152470473,-299.250389110996
738472.36717807129025459290,0.203100680562761,-2.30796227912229,-299.259620960112
738472.36717816174495965242,0.166173284096805,-2.34488967558824,-299.148838770714
738472.36717825208324939013,0.175405133213294,-2.33565782647175,-299.176534318064
738472.36717834253795444965,0.193868831446272,-2.34488967558824,-299.18576616718
738472.36717843299265950918,0.193868831446272,-2.33565782647175,-299.148838770714
738472.36717852344736456871,0.249259926145207,-2.31719412823878,-299.176534318064
738472.36717861390206962824,0.276955473494675,-2.28949858088931,-299.21346171453
738472.36717870424035936594,0.286187322611164,-2.2987304300058,-299.222693563646
738472.36717879469506442547,0.295419171727653,-2.28026673177282,-299.21346171453
738472.36717888514976948500,0.332346568193609,-2.26180303353984,-299.241157261879
738472.36717897560447454453,0.369273964659566,-2.22487563707389,-299.259620960112
738472.36717906605917960405,0.378505813776055,-2.23410748619037,-299.18576616718
738472.36717915639746934175,0.396969512009033,-2.20641193884091,-299.176534318064
738472.36717924685217440128,0.406201361125523,-2.2156437879574,-299.176534318064
738472.36717933730687946081,0.489288003173925,-2.14178899502548,-299.21346171453
738472.36717942776158452034,0.516983550523392,-2.13255714590899,-299.204229865413
738472.36717951821628957987,0.563142796105838,-2.09562974944304,-299.21346171453
738472.36717960855457931757,0.636997589037751,-2.04947050386059,-299.167302468947
738472.36717969900928437710,0.692388683736686,-2.01254310739463,-299.148838770714
738472.36717978946398943663,0.701620532853175,-2.00331125827815,-299.130375072481
738472.36717987991869449615,0.738547929319132,-1.99407940916166,-299.111911374248
738472.36717997037339955568,0.775475325785089,-1.96638386181219,-299.121143223365
738472.36718006071168929338,0.812402722251045,-1.97561571092868,-299.121143223365
738472.36718015116639435291,0.775475325785089,-2.00331125827815,-299.121143223365
738472.36718024162109941244,0.720084231086154,-2.04947050386059,-299.139606921598
738472.36718033207580447197,0.64622943815424,-2.05870235297708,-299.139606921598
738472.36718042253050953150,0.461592455824458,-2.19718008972442,-299.194998016297
738472.36718051298521459103,0.406201361125523,-2.2156437879574,-299.204229865413
738472.36718060332350432873,0.332346568193609,-2.24333933530686,-299.194998016297
738472.36718069377820938826,0.258491775261696,-2.30796227912229,-299.18576616718
738472.36718078423291444778,0.147709585863826,-2.37258522293771,-299.21346171453
738472.36718087468761950731,0.147709585863826,-2.36335337382122,-299.130375072481
738472.36718096514232456684,0.11078218939787,-2.3818170720542,-299.176534318064
738472.36718105548061430454,0.120014038514359,-2.3818170720542,-299.222693563646
738472.36718114593531936407,0.11078218939787,-2.37258522293771,-299.241157261879
738472.36718123639002442360,0.138477736747337,-2.36335337382122,-299.231925412763
738472.36718132684472948313,0.11078218939787,-2.37258522293771,-299.18576616718
738472.36718141729943454266,0.101550340281381,-2.40028077028718,-299.18576616718
738472.36718150763772428036,0.101550340281381,-2.39104892117069,-299.18576616718
738472.36718159809242933989,0.129245887630848,-2.37258522293771,-299.194998016297
738472.36718168854713439941,0.138477736747337,-2.36335337382122,-299.158070619831
738472.36718177900183945894,0.11078218939787,-2.3818170720542,-299.250389110996
738472.36718186945654451847,0.120014038514359,-2.3818170720542,-299.241157261879
738472.36718195979483425617,0.101550340281381,-2.40028077028718,-299.259620960112
738472.36718205024953931570,0.11078218939787,-2.39104892117069,-299.268852809229
738472.36718214070424437523,0.11078218939787,-2.3818170720542,-299.268852809229
738472.36718223115894943476,0.138477736747337,-2.36335337382122,-299.268852809229
738472.36718232161365449429,0.138477736747337,-2.36335337382122,-299.241157261879
738472.36718241195194423199,0.138477736747337,-2.35412152470473,-299.287316507462
738472.36718250240664929152,0.101550340281381,-2.3818170720542,-299.287316507462
738472.36718259286135435104,0.0923184911648915,-2.39104892117069,-299.241157261879
738472.36718268331605941057,0.0923184911648915,-2.39104892117069,-299.287316507462
738472.36718277377076447010,0.11078218939787,-2.3818170720542,-299.296548356578
738472.36718286410905420780,0.138477736747337,-2.33565782647175,-299.287316507462
738472.36718295456375926733,0.101550340281381,-2.37258522293771,-299.259620960112
738472.36718304501846432686,0.0276955473494674,-2.42797631763665,-299.241157261879
738472.36718313547316938639,0.0553910946989349,-2.41874446852016,-299.222693563646
738472.36718322592787444592,0.064622943815424,-2.40028077028718,-299.259620960112
738472.36718331638257950544,0.0553910946989349,-2.40028077028718,-299.231925412763
738472.36718340672086924314,0.0923184911648915,-2.35412152470473,-299.222693563646
738472.36718349717557430267,0.0830866420484024,-2.37258522293771,-299.204229865413
738472.36718358763027936220,0.0369273964659566,-2.41874446852016,-299.231925412763
738472.36718367808498442173,0.0276955473494674,-2.41874446852016,-299.250389110996
738472.36718376853968948126,0.0461592455824458,-2.40951261940367,-299.204229865413
738472.36718385887797921896,0.0369273964659566,-2.40951261940367,-299.222693563646
738472.36718394933268427849,0.0553910946989349,-2.40028077028718,-299.21346171453
738472.36718403978738933802,0.0461592455824458,-2.40028077028718,-299.222693563646
738472.36718413024209439754,0.0461592455824458,-2.40951261940367,-299.231925412763
738472.36718422069679945707,0.064622943815424,-2.37258522293771,-299.241157261879
738472.36718431103508919477,0.11078218939787,-2.34488967558824,-299.259620960112
738472.36718440148979425430,0.00923184911648915,-2.43720816675314,-299.121143223365
738472.36718449194449931383,0.0369273964659566,-2.41874446852016,-299.111911374248
738472.36718458239920437336,0.0369273964659566,-2.40951261940367,-299.21346171453
738472.36718467285390943289,0.0184636982329783,-2.42797631763665,-299.204229865413
738472.36718476319219917059,0.0276955473494674,-2.41874446852016,-299.167302468947
738472.36718485364690423012,0.0553910946989349,-2.39104892117069,-299.21346171453
738472.36718494410160928965,0.0184636982329783,-2.42797631763665,-299.231925412763
738472.36718503455631434917,0.0276955473494674,-2.41874446852016,-299.222693563646
738472.36718512501101940870,0.0461592455824458,-2.40028077028718,-299.268852809229
738472.36718521534930914640,0.0738547929319132,-2.36335337382122,-299.268852809229
738472.36718530580401420593,0.0461592455824458,-2.40951261940367,-299.241157261879
738472.36718539625871926546,0.0184636982329783,-2.41874446852016,-299.259620960112
738472.36718548671342432499,0.0184636982329783,-2.43720816675314,-299.296548356578
738472.36718557716812938452,0.0276955473494674,-2.41874446852016,-299.315012054811
738472.36718566762283444405,0.0276955473494674,-2.41874446852016,-299.250389110996
738472.36718575796112418175,0.0369273964659566,-2.40028077028718,-299.305780205695
738472.36718584841582924128,0.0461592455824458,-2.40028077028718,-299.287316507462
738472.36718593887053430080,0.0276955473494674,-2.40951261940367,-299.21346171453
738472.36718602932523936033,0.0276955473494674,-2.40951261940367,-299.278084658345
738472.36718611977994441986,0.0553910946989349,-2.3818170720542,-299.268852809229
738472.36718621011823415756,0.0461592455824458,-2.39104892117069,-299.305780205695
738472.36718630057293921709,0.0276955473494674,-2.40951261940367,-299.250389110996
738472.36718639102764427662,0.0553910946989349,-2.40028077028718,-299.296548356578
738472.36718648148234933615,0.064622943815424,-2.39104892117069,-299.305780205695
738472.36718657193705439568,0.0184636982329783,-2.42797631763665,-299.241157261879
738472.36718666227534413338,0.0369273964659566,-2.40951261940367,-299.315012054811
738472.36718675273004919291,0.11078218939787,-2.36335337382122,-299.305780205695
738472.36718684318475425243,0.184636982329783,-2.34488967558824,-299.305780205695
738472.36718693363945931196,0.21233252967925,-2.32642597735527,-299.315012054811
738472.36718702409416437149,0.21233252967925,-2.3818170720542,-299.278084658345
738472.36718711443245410919,0.249259926145207,-2.33565782647175,-299.296548356578
738472.36718720488715916872,0.22156437879574,-2.33565782647175,-299.324243903928
738472.36718729534186422825,0.203100680562761,-2.34488967558824,-299.250389110996
738472.36718738579656928778,0.193868831446272,-2.34488967558824,-299.305780205695
738472.36718747625127434731,0.175405133213294,-2.34488967558824,-299.250389110996
738472.36718756658956408501,0.138477736747337,-2.36335337382122,-299.231925412763
738472.36718765704426914454,0.0461592455824458,-2.40028077028718,-299.259620960112
738472.36718774749897420406,0.0461592455824458,-2.40951261940367,-299.259620960112
738472.36718783795367926359,0.0184636982329783,-2.40951261940367,-299.259620960112
738472.36718792840838432312,0.00923184911648915,-2.40028077028718,-299.176534318064
738472.36718801874667406082,0.0276955473494674,-2.3818170720542,-299.121143223365
738472.36718810920137912035,0.0276955473494674,-2.3818170720542,-299.204229865413
738472.36718819965608417988,0,-2.41874446852016,-299.176534318064
738472.36718829011078923941,-0.0276955473494674,-2.42797631763665,-299.204229865413
738472.36718838056549429893,-0.0184636982329783,-2.42797631763665,-299.176534318064
738472.36718847102019935846,-0.00923184911648915,-2.41874446852016,-299.176534318064
738472.36718856135848909616,0.00923184911648915,-2.39104892117069,-299.222693563646
738472.36718865181319415569,-0.0553910946989349,-2.40951261940367,-299.241157261879
738472.36718874226789921522,-0.0369273964659566,-2.34488967558824,-299.222693563646
738472.36718883272260427475,0.064622943815424,-2.32642597735527,-299.176534318064
738472.36718892317730933428,0.396969512009033,-2.28026673177282,-299.158070619831
738472.36718901351559907198,1.05243079927976,-2.31719412823878,-299.111911374248
738472.36718910397030413151,1.49555955687124,-2.42797631763665,-299.121143223365
738472.36718919442500919104,1.57864619891964,-2.53875850703452,-299.111911374248
738472.36718928487971425056,0.821634571367534,-2.65877254554888,-299.241157261879
738472.36718937533441931009,0.0830866420484024,-2.79725028229621,-299.324243903928
738472.36718946567270904779,-0.341578417310099,-2.66800439466536,-299.287316507462
738472.36718955612741410732,-0.286187322611164,-2.4649037141026,-299.21346171453
738472.36718964658211916685,-0.230796227912229,-2.37258522293771,-299.176534318064
738472.36718973703682422638,-0.0553910946989349,-2.37258522293771,-299.241157261879
738472.36718982749152928591,0.064622943815424,-2.31719412823878,-299.278084658345
738472.36718991782981902361,0.129245887630848,-2.2987304300058,-299.250389110996
738472.36719000828452408314,0.11078218939787,-2.32642597735527,-299.194998016297
738472.36719009873922914267,0.138477736747337,-2.31719412823878,-299.287316507462
738472.36719018919393420219,0.147709585863826,-2.32642597735527,-299.259620960112
738472.36719027964863926172,0.166173284096805,-2.32642597735527,-299.259620960112
738472.36719036998692899942,0.193868831446272,-2.30796227912229,-299.268852809229
738472.36719046044163405895,0.21233252967925,-2.2987304300058,-299.268852809229
738472.36719055089633911848,0.240028077028718,-2.26180303353984,-299.21346171453
738472.36719064135104417801,0.203100680562761,-2.33565782647175,-299.241157261879
738472.36719073180574923754,0.240028077028718,-2.28949858088931,-299.287316507462
738472.36719082214403897524,0.276955473494675,-2.28026673177282,-299.259620960112
738472.36719091259874403477,0.295419171727653,-2.26180303353984,-299.18576616718
738472.36719100305344909430,0.304651020844142,-2.25257118442335,-299.231925412763
738472.36719109350815415382,0.32311471907712,-2.26180303353984,-299.250389110996
738472.36719118396285921335,0.32311471907712,-2.25257118442335,-299.204229865413
738472.36719127441756427288,0.378505813776055,-2.22487563707389,-299.222693563646
738472.36719136475585401058,0.360042115543077,-2.22487563707389,-299.259620960112
738472.36719145521055907011,0.415433210242012,-2.19718008972442,-299.167302468947
738472.36719154566526412964,0.452360606707968,-2.17871639149144,-299.05652027955
738472.36719163611996918917,0.535447248756371,-2.11409344767602,-299.158070619831
738472.36719172657467424870,0.563142796105838,-2.04947050386059,-299.139606921598
738472.36719181691296398640,0.572374645222327,-2.07716605121006,-299.148838770714
738472.36719190736766904593,0.627765739921262,-2.0402386547441,-299.111911374248
738472.36719199782237410545,0.692388683736686,-2.01254310739463,-299.102679525132
738472.36719208827707916498,0.75701162755211,-1.96638386181219,-299.111911374248
738472.36719217873178422451,0.830866420484023,-1.93868831446272,-299.139606921598
738472.36719226907007396221,0.840098269600513,-1.92945646534623,-299.111911374248
738472.36719235952477902174,0.803170873134556,-1.97561571092868,-299.102679525132
738472.36719244997948408127,0.784707174901578,-2.00331125827815,-299.130375072481
738472.36719254043418914080,0.747779778435621,-2.02177495651112,-299.148838770714
738472.36719263088889420033,0.627765739921262,-2.07716605121006,-299.139606921598
738472.36719272122718393803,0.443128757591479,-2.19718008972442,-299.231925412763
738472.36719281168188899755,0.387737662892544,-2.23410748619037,-299.21346171453
738472.36719290213659405708,0.341578417310099,-2.25257118442335,-299.241157261879
738472.36719299259129911661,0.267723624378185,-2.28949858088931,-299.148838770714
738472.36719308304600417614,0.249259926145207,-2.2987304300058,-299.231925412763
738472.36719317338429391384,0.193868831446272,-2.34488967558824,-299.241157261879
738472.36719326383899897337,0.175405133213294,-2.2987304300058,-299.158070619831
738472.36719335429370403290,0.0830866420484024,-2.39104892117069,-299.231925412763
738472.36719344474840909243,0.129245887630848,-2.35412152470473,-299.204229865413
738472.36719353520311415195,0.120014038514359,-2.36335337382122,-299.21346171453
738472.36719362565781921148,0.11078218939787,-2.39104892117069,-299.241157261879
738472.36719371599610894918,0.11078218939787,-2.3818170720542,-299.259620960112
738472.36719380645081400871,0.120014038514359,-2.36335337382122,-299.18576616718
738472.36719389690551906824,0.138477736747337,-2.34488967558824,-299.21346171453
738472.36719398736022412777,0.147709585863826,-2.35412152470473,-299.268852809229
738472.36719407781492918730,0.11078218939787,-2.37258522293771,-299.259620960112
738472.36719416815321892500,0.129245887630848,-2.37258522293771,-299.241157261879
738472.36719425860792398453,0.147709585863826,-2.35412152470473,-299.222693563646
738472.36719434906262904406,0.156941434980316,-2.34488967558824,-299.250389110996
738472.36719443951733410358,0.120014038514359,-2.36335337382122,-299.278084658345
738472.36719452997203916311,0.129245887630848,-2.37258522293771,-299.222693563646
738472.36719462031032890081,0.129245887630848,-2.37258522293771,-299.241157261879
738472.36719471076503396034,0.138477736747337,-2.36335337382122,-299.278084658345
738472.36719480121973901987,0.156941434980316,-2.33565782647175,-299.250389110996
738472.36719489167444407940,0.129245887630848,-2.35412152470473,-299.21346171453
738472.36719498212914913893,0.138477736747337,-2.36335337382122,-299.21346171453
738472.36719507246743887663,0.11078218939787,-2.35412152470473,-299.158070619831
738472.36719516292214393616,0.11078218939787,-2.37258522293771,-299.231925412763
738472.36719525337684899569,0.120014038514359,-2.35412152470473,-299.259620960112
738472.36719534383155405521,0.11078218939787,-2.35412152470473,-299.250389110996
738472.36719543428625911474,0.064622943815424,-2.3818170720542,-299.241157261879
738472.36719552462454885244,0.0923184911648915,-2.37258522293771,-299.278084658345
738472.36719561507925391197,0.0923184911648915,-2.36335337382122,-299.305780205695
738472.36719570553395897150,0.101550340281381,-2.37258522293771,-299.296548356578
738472.36719579598866403103,0.0738547929319132,-2.3818170720542,-299.231925412763
738472.36719588644336909056,0.0923184911648915,-2.39104892117069,-299.296548356578
738472.36719597678165882826,0.064622943815424,-2.40951261940367,-299.268852809229
738472.36719606723636388779,0.0461592455824458,-2.40951261940367,-299.231925412763
738472.36719615769106894732,0.064622943815424,-2.37258522293771,-299.296548356578
738472.36719624814577400684,0.0553910946989349,-2.40028077028718,-299.167302468947
738472.36719633860047906637,0.0553910946989349,-2.3818170720542,-299.18576616718
738472.36719642905518412590,0.11078218939787,-2.32642597735527,-299.194998016297
738472.36719651939347386360,0.0276955473494674,-2.41874446852016,-299.194998016297
738472.36719660984817892313,0.0369273964659566,-2.42797631763665,-299.21346171453
738472.36719670030288398266,0.0369273964659566,-2.42797631763665,-299.21346171453
738472.36719679075758904219,0.0553910946989349,-2.40028077028718,-299.231925412763
738472.36719688121229410172,0.064622943815424,-2.37258522293771,-299.204229865413
738472.36719697155058383942,0.0830866420484024,-2.34488967558824,-299.167302468947
738472.36719706200528889894,0.0553910946989349,-2.40028077028718,-299.167302468947
738472.36719715245999395847,0.0553910946989349,-2.36335337382122,-299.241157261879
738472.36719724291469901800,0.0184636982329783,-2.42797631763665,-299.241157261879
738472.36719733336940407753,0.0369273964659566,-2.39104892117069,-299.259620960112
738472.36719742370769381523,0.064622943815424,-2.39104892117069,-299.241157261879
738472.36719751416239887476,0.064622943815424,-2.37258522293771,-299.231925412763
738472.36719760461710393429,0.064622943815424,-2.3818170720542,-299.287316507462
738472.36719769507180899382,0.0369273964659566,-2.37258522293771,-299.18576616718
738472.36719778552651405334,0.0369273964659566,-2.39104892117069,-299.158070619831
738472.36719787586480379105,0.0553910946989349,-2.3818170720542,-299.204229865413
738472.36719796631950885057,0.0369273964659566,-2.40028077028718,-299.18576616718
738472.36719805677421391010,0.0923184911648915,-2.35412152470473,-299.176534318064
738472.36719814722891896963,0.0184636982329783,-2.42797631763665,-299.204229865413
738472.36719823768362402916,0.0276955473494674,-2.40028077028718,-299.222693563646
738472.36719832802191376686,0.0276955473494674,-2.40028077028718,-299.259620960112
738472.36719841847661882639,0.0553910946989349,-2.3818170720542,-299.259620960112
738472.36719850893132388592,0.0461592455824458,-2.39104892117069,-299.241157261879
738472.36719859938602894545,0.0923184911648915,-2.36335337382122,-299.102679525132
738472.36719868984073400497,0.064622943815424,-2.37258522293771,-299.268852809229
738472.36719878017902374268,0.0461592455824458,-2.40028077028718,-299.287316507462
738472.36719887063372880220,0.064622943815424,-2.36335337382122,-299.259620960112
738472.36719896108843386173,0.0553910946989349,-2.39104892117069,-299.241157261879
738472.36719905154313892126,0.0461592455824458,-2.39104892117069,-299.250389110996
738472.36719914199784398079,0.0461592455824458,-2.40028077028718,-299.250389110996
738472.36719923245254904032,0.0461592455824458,-2.39104892117069,-299.231925412763
738472.36719932279083877802,0.0369273964659566,-2.43720816675314,-299.250389110996
738472.36719941324554383755,0.064622943815424,-2.36335337382122,-299.278084658345
738472.36719950370024889708,0.0738547929319132,-2.35412152470473,-299.231925412763
738472.36719959415495395660,0.147709585863826,-2.30796227912229,-299.250389110996
738472.36719968460965901613,0.184636982329783,-2.2987304300058,-299.278084658345
738472.36719977494794875383,0.184636982329783,-2.32642597735527,-299.305780205695
738472.36719986540265381336,0.230796227912229,-2.34488967558824,-299.241157261879
738472.36719995585735887289,0.249259926145207,-2.32642597735527,-299.287316507462
738472.36720004631206393242,0.249259926145207,-2.28949858088931,-299.268852809229
738472.36720013676676899195,0.249259926145207,-2.30796227912229,-299.204229865413
738472.36720022710505872965,0.184636982329783,-2.33565782647175,-299.241157261879
738472.36720031755976378918,0.166173284096805,-2.34488967558824,-299.158070619831
738472.36720040801446884871,0.129245887630848,-2.35412152470473,-299.139606921598
738472.36720049846917390823,0.11078218939787,-2.33565782647175,-299.176534318064
738472.36720058892387896776,0.064622943815424,-2.3818170720542,-299.194998016297
738472.36720067926216870546,0.0276955473494674,-2.40028077028718,-299.18576616718
738472.36720076971687376499,0.064622943815424,-2.35412152470473,-299.204229865413
738472.36720086017157882452,0.0184636982329783,-2.40028077028718,-299.250389110996
738472.36720095062628388405,0.0184636982329783,-2.40028077028718,-299.278084658345
738472.36720104108098894358,0,-2.40028077028718,-299.21346171453
738472.36720113141927868128,0.0369273964659566,-2.34488967558824,-299.204229865413
738472.36720122187398374081,-0.00923184911648915,-2.40028077028718,-299.194998016297
738472.36720131232868880033,0,-2.40028077028718,-299.21346171453
738472.36720140278339385986,0.00923184911648915,-2.3818170720542,-299.222693563646
738472.36720149323809891939,-0.0276955473494674,-2.39104892117069,-299.21346171453
738472.36720158369280397892,-0.0369273964659566,-2.33565782647175,-299.250389110996
738472.36720167403109371662,0.0738547929319132,-2.31719412823878,-299.250389110996
738472.36720176448579877615,0.406201361125523,-2.24333933530686,-299.139606921598
738472.36720185494050383568,1.06166264839625,-2.31719412823878,-299.084215826899
738472.36720194539520889521,1.68019653920103,-2.51106295968505,-299.093447676016
738472.36720203584991395473,1.22783593249306,-2.61261329996643,-298.954969939268
738472.36720212618820369244,0.452360606707968,-2.74185918759728,-299.158070619831
738472.36720221664290875196,-0.184636982329783,-2.76032288583026,-299.296548356578
738472.36720230709761381149,-0.313882869960631,-2.66800439466536,-299.287316507462
738472.36720239755231887102,-0.304651020844142,-2.45567186498611,-299.222693563646
738472.36720248800702393055,-0.166173284096805,-2.30796227912229,-299.241157261879
738472.36720257834531366825,-0.0553910946989349,-2.32642597735527,-299.278084658345
738472.36720266880001872778,0.0830866420484024,-2.2987304300058,-299.231925412763
738472.36720275925472378731,0.129245887630848,-2.30796227912229,-299.204229865413
738472.36720284970942884684,0.11078218939787,-2.33565782647175,-299.250389110996
738472.36720294016413390636,0.138477736747337,-2.30796227912229,-299.278084658345
738472.36720303050242364407,0.184636982329783,-2.30796227912229,-299.204229865413
738472.36720312095712870359,0.166173284096805,-2.31719412823878,-299.278084658345
738472.36720321141183376312,0.175405133213294,-2.31719412823878,-299.241157261879
738472.36720330186653882265,0.21233252967925,-2.28026673177282,-299.167302468947
738472.36720339232124388218,0.22156437879574,-2.2987304300058,-299.250389110996
738472.36720348265953361988,0.249259926145207,-2.28026673177282,-299.231925412763
738472.36720357311423867941,0.249259926145207,-2.28026673177282,-299.231925412763
738472.36720366356894373894,0.258491775261696,-2.28026673177282,-299.21346171453
738472.36720375402364879847,0.304651020844142,-2.23410748619037,-299.241157261879
738472.36720384447835385799,0.332346568193609,-2.2156437879574,-299.222693563646
738472.36720393481664359570,0.313882869960631,-2.25257118442335,-299.204229865413
738472.36720402527134865522,0.396969512009033,-2.17871639149144,-299.241157261879
738472.36720411572605371475,0.424665059358501,-2.18794824060793,-299.231925412763
738472.36720420618075877428,0.369273964659566,-2.25257118442335,-299.259620960112
738472.36720429663546383381,0.369273964659566,-2.20641193884091,-299.204229865413
738472.36720438709016889334,0.452360606707968,-2.15102084414197,-299.222693563646
738472.36720447742845863104,0.489288003173925,-2.09562974944304,-299.158070619831
738472.36720456788316369057,0.563142796105838,-2.06793420209357,-299.139606921598
738472.36720465833786875010,0.581606494338817,-2.04947050386059,-299.093447676016
738472.36720474879257380962,0.65546128727073,-1.99407940916166,-299.111911374248
738472.36720483924727886915,0.692388683736686,-1.97561571092868,-299.111911374248
738472.36720492958556860685,0.784707174901578,-1.92022461622974,-299.111911374248
738472.36720502004027366638,0.784707174901578,-1.92022461622974,-299.102679525132
738472.36720511049497872591,0.793939024018067,-1.97561571092868,-299.102679525132
738472.36720520094968378544,0.821634571367534,-1.94792016357921,-299.111911374248
738472.36720529140438884497,0.821634571367534,-1.94792016357921,-299.084215826899
738472.36720538174267858267,0.738547929319132,-2.00331125827815,-299.065752128666
738472.36720547219738364220,0.673924985503708,-2.03100680562761,-299.139606921598
738472.36720556265208870173,0.516983550523392,-2.13255714590899,-298.973433637501
738472.36720565310679376125,0.396969512009033,-2.2156437879574,-299.074983977782
738472.36720574356149882078,0.350810266426588,-2.24333933530686,-299.148838770714
738472.36720583389978855848,0.267723624378185,-2.26180303353984,-299.148838770714
738472.36720592435449361801,0.240028077028718,-2.28026673177282,-299.18576616718
738472.36720601480919867754,0.175405133213294,-2.31719412823878,-299.18576616718
738472.36720610526390373707,0.156941434980316,-2.35412152470473,-299.176534318064
738472.36720619571860879660,0.147709585863826,-2.34488967558824,-299.18576616718
738472.36720628605689853430,0.147709585863826,-2.32642597735527,-299.204229865413
738472.36720637651160359383,0.120014038514359,-2.35412152470473,-299.259620960112
738472.36720646696630865335,0.138477736747337,-2.34488967558824,-299.241157261879
738472.36720655742101371288,0.147709585863826,-2.33565782647175,-299.231925412763
738472.36720664787571877241,0.129245887630848,-2.36335337382122,-299.278084658345
738472.36720673821400851011,0.147709585863826,-2.32642597735527,-299.259620960112
738472.36720682866871356964,0.156941434980316,-2.33565782647175,-299.278084658345
738472.36720691912341862917,0.138477736747337,-2.35412152470473,-299.21346171453
738472.36720700957812368870,0.156941434980316,-2.32642597735527,-299.241157261879
738472.36720710003282874823,0.193868831446272,-2.32642597735527,-299.278084658345
738472.36720719048753380775,0.120014038514359,-2.39104892117069,-299.194998016297
738472.36720728082582354546,0.184636982329783,-2.31719412823878,-299.259620960112
738472.36720737128052860498,0.166173284096805,-2.31719412823878,-299.250389110996
738472.36720746173523366451,0.11078218939787,-2.36335337382122,-299.21346171453
738472.36720755218993872404,0.138477736747337,-2.33565782647175,-299.241157261879
738472.36720764264464378357,0.184636982329783,-2.32642597735527,-299.287316507462
738472.36720773298293352127,0.129245887630848,-2.35412152470473,-299.222693563646
738472.36720782343763858080,0.138477736747337,-2.32642597735527,-299.250389110996
738472.36720791389234364033,0.147709585863826,-2.32642597735527,-299.287316507462
738472.36720800434704869986,0.147709585863826,-2.33565782647175,-299.268852809229
738472.36720809480175375938,0.11078218939787,-2.35412152470473,-299.21346171453
738472.36720818514004349709,0.101550340281381,-2.36335337382122,-299.259620960112
738472.36720827559474855661,0.138477736747337,-2.33565782647175,-299.278084658345
738472.36720836604945361614,0.0738547929319132,-2.39104892117069,-299.250389110996
738472.36720845650415867567,0.11078218939787,-2.34488967558824,-299.278084658345
738472.36720854695886373520,0.0923184911648915,-2.36335337382122,-299.287316507462
738472.36720863729715347290,0.101550340281381,-2.35412152470473,-299.204229865413
738472.36720872775185853243,0.129245887630848,-2.32642597735527,-299.231925412763
738472.36720881820656359196,0.064622943815424,-2.39104892117069,-299.278084658345
738472.36720890866126865149,0.0738547929319132,-2.36335337382122,-299.204229865413
738472.36720899911597371101,0.129245887630848,-2.32642597735527,-299.296548356578
738472.36720908945426344872,0.11078218939787,-2.34488967558824,-299.139606921598
738472.36720917990896850824,0.0923184911648915,-2.36335337382122,-299.167302468947
738472.36720927036367356777,0.0738547929319132,-2.3818170720542,-299.241157261879
738472.36720936081837862730,0.0923184911648915,-2.36335337382122,-299.194998016297
738472.36720945127308368683,0.0553910946989349,-2.3818170720542,-299.194998016297
738472.36720954172778874636,0.0830866420484024,-2.37258522293771,-299.194998016297
738472.36720963206607848406,0.064622943815424,-2.37258522293771,-299.194998016297
738472.36720972252078354359,0.0923184911648915,-2.35412152470473,-299.194998016297
738472.36720981297548860312,0.120014038514359,-2.33565782647175,-299.204229865413
738472.36720990343019366264,0.0923184911648915,-2.34488967558824,-299.204229865413
738472.36720999388489872217,0.064622943815424,-2.40028077028718,-299.21346171453
738472.36721008422318845987,0.0461592455824458,-2.40028077028718,-299.176534318064
738472.36721017467789351940,0.101550340281381,-2.35412152470473,-299.148838770714
738472.36721026513259857893,0.0923184911648915,-2.35412152470473,-299.130375072481
738472.36721035558730363846,0.064622943815424,-2.39104892117069,-299.148838770714
738472.36721044604200869799,0.0923184911648915,-2.35412152470473,-299.176534318064
738472.36721053638029843569,0.0923184911648915,-2.35412152470473,-299.139606921598
738472.36721062683500349522,0.0738547929319132,-2.37258522293771,-299.139606921598
738472.36721071728970855474,0.120014038514359,-2.33565782647175,-299.231925412763
738472.36721080774441361427,0.0923184911648915,-2.36335337382122,-299.194998016297
738472.36721089819911867380,0.0461592455824458,-2.40951261940367,-299.204229865413
738472.36721098853740841150,0.0738547929319132,-2.37258522293771,-299.268852809229
738472.36721107899211347103,0.0830866420484024,-2.37258522293771,-299.241157261879
738472.36721116944681853056,0.0923184911648915,-2.35412152470473,-299.222693563646
738472.36721125990152359009,0.101550340281381,-2.35412152470473,-299.241157261879
738472.36721135035622864962,0.11078218939787,-2.35412152470473,-299.296548356578
738472.36721144069451838732,0.0923184911648915,-2.35412152470473,-299.287316507462
738472.36721153114922344685,0.064622943815424,-2.39104892117069,-299.241157261879
738472.36721162160392850637,0.0738547929319132,-2.3818170720542,-299.231925412763
738472.36721171205863356590,0.064622943815424,-2.39104892117069,-299.250389110996
738472.36721180251333862543,0.0830866420484024,-2.36335337382122,-299.268852809229
738472.36721189285162836313,0.120014038514359,-2.33565782647175,-299.268852809229
738472.36721198330633342266,0.101550340281381,-2.34488967558824,-299.250389110996
738472.36721207376103848219,0.166173284096805,-2.31719412823878,-299.287316507462
738472.36721216421574354172,0.203100680562761,-2.31719412823878,-299.287316507462
738472.36721225467044860125,0.230796227912229,-2.32642597735527,-299.231925412763
738472.36721234512515366077,0.295419171727653,-2.27103488265633,-299.268852809229
738472.36721243546344339848,0.276955473494675,-2.30796227912229,-299.296548356578
738472.36721252591814845800,0.267723624378185,-2.28949858088931,-299.231925412763
738472.36721261637285351753,0.258491775261696,-2.28949858088931,-299.158070619831
738472.36721270682755857706,0.22156437879574,-2.30796227912229,-299.065752128666
738472.36721279728226363659,0.184636982329783,-2.33565782647175,-299.21346171453
738472.36721288762055337429,0.138477736747337,-2.35412152470473,-299.194998016297
738472.36721297807525843382,0.101550340281381,-2.36335337382122,-299.204229865413
738472.36721306852996349335,0.0923184911648915,-2.33565782647175,-299.18576616718
738472.36721315898466855288,0.120014038514359,-2.30796227912229,-299.194998016297
738472.36721324943937361240,0.0461592455824458,-2.3818170720542,-299.194998016297
738472.36721333977766335011,0.0184636982329783,-2.39104892117069,-299.194998016297
738472.36721343023236840963,0.0923184911648915,-2.33565782647175,-299.204229865413
738472.36721352068707346916,0.0184636982329783,-2.3818170720542,-299.241157261879
738472.36721361114177852869,0,-2.39104892117069,-299.18576616718
738472.36721370159648358822,0.0553910946989349,-2.36335337382122,-299.18576616718
738472.36721379193477332592,0.0369273964659566,-2.39104892117069,-299.21346171453
738472.36721388238947838545,0.0553910946989349,-2.32642597735527,-299.21346171453
738472.36721397284418344498,-0.0553910946989349,-2.36335337382122,-299.222693563646
738472.36721406329888850451,0.0461592455824458,-2.2987304300058,-299.250389110996
738472.36721415375359356403,0.21233252967925,-2.26180303353984,-299.250389110996
738472.36721424409188330173,0.636997589037751,-2.24333933530686,-299.241157261879
738472.36721433454658836126,1.43093661305582,-2.34488967558824,-299.130375072481
738472.36721442500129342079,1.56018250068667,-2.52029480880154,-299.121143223365
738472.36721451545599848032,0.803170873134556,-2.58491775261696,-299.204229865413
738472.36721460591070353985,0.129245887630848,-2.7233954893643,-299.361171300394
738472.36721469624899327755,-0.295419171727653,-2.65877254554888,-299.342707602161
738472.36721478670369833708,-0.267723624378185,-2.48336741233558,-299.176534318064
738472.36721487715840339661,-0.184636982329783,-2.28026673177282,-299.148838770714
738472.36721496761310845613,-0.0553910946989349,-2.28026673177282,-299.18576616718
738472.36721505806781351566,0.0553910946989349,-2.28949858088931,-299.158070619831
738472.36721514852251857519,0.120014038514359,-2.2987304300058,-299.176534318064
738472.36721523886080831289,0.138477736747337,-2.2987304300058,-299.158070619831
738472.36721532931551337242,0.193868831446272,-2.28026673177282,-299.167302468947
738472.36721541977021843195,0.21233252967925,-2.26180303353984,-299.222693563646
738472.36721551022492349148,0.175405133213294,-2.30796227912229,-299.231925412763
738472.36721560067962855101,0.22156437879574,-2.2987304300058,-299.21346171453
738472.36721569101791828871,0.22156437879574,-2.28949858088931,-299.204229865413
738472.36721578147262334824,0.249259926145207,-2.26180303353984,-299.259620960112
738472.36721587192732840776,0.240028077028718,-2.28026673177282,-299.231925412763
738472.36721596238203346729,0.276955473494675,-2.27103488265633,-299.167302468947
738472.36721605283673852682,0.304651020844142,-2.25257118442335,-299.21346171453
738472.36721614317502826452,0.295419171727653,-2.27103488265633,-299.158070619831
738472.36721623362973332405,0.304651020844142,-2.25257118442335,-299.084215826899
738472.36721632408443838358,0.369273964659566,-2.20641193884091,-299.21346171453
738472.36721641453914344311,0.369273964659566,-2.20641193884091,-299.222693563646
738472.36721650499384850264,0.378505813776055,-2.2156437879574,-299.204229865413
738472.36721659533213824034,0.378505813776055,-2.20641193884091,-299.18576616718
738472.36721668578684329987,0.424665059358501,-2.16948454237495,-299.21346171453
738472.36721677624154835939,0.498519852290414,-2.10486159855953,-299.21346171453
738472.36721686669625341892,0.516983550523392,-2.10486159855953,-299.176534318064
738472.36721695715095847845,0.609302041688284,-2.03100680562761,-299.18576616718
738472.36721704748924821615,0.553910946989349,-2.08639790032655,-299.176534318064
738472.36721713794395327568,0.618533890804773,-2.0402386547441,-299.130375072481
738472.36721722839865833521,0.65546128727073,-2.02177495651112,-299.18576616718
738472.36721731885336339474,0.692388683736686,-1.99407940916166,-299.176534318064
738472.36721740930806845427,0.75701162755211,-1.92945646534623,-299.18576616718
738472.36721749976277351379,0.830866420484023,-1.90176091799676,-299.139606921598
738472.36721759010106325150,0.830866420484023,-1.91099276711325,-299.18576616718
738472.36721768055576831102,0.766243476668599,-1.97561571092868,-299.093447676016
738472.36721777101047337055,0.720084231086154,-2.00331125827815,-299.139606921598
738472.36721786146517843008,0.701620532853175,-2.00331125827815,-299.093447676016
738472.36721795191988348961,0.609302041688284,-2.04947050386059,-299.111911374248
738472.36721804225817322731,0.480056154057436,-2.14178899502548,-299.148838770714
738472.36721813271287828684,0.332346568193609,-2.24333933530686,-299.18576616718
738472.36721822316758334637,0.276955473494675,-2.27103488265633,-299.231925412763
738472.36721831362228840590,0.230796227912229,-2.28026673177282,-299.176534318064
738472.36721840407699346542,0.22156437879574,-2.28949858088931,-299.18576616718
738472.36721849441528320312,0.203100680562761,-2.28026673177282,-299.194998016297
738472.36721858486998826265,0.156941434980316,-2.32642597735527,-299.18576616718
738472.36721867532469332218,0.147709585863826,-2.33565782647175,-299.176534318064
738472.36721876577939838171,0.120014038514359,-2.35412152470473,-299.204229865413
738472.36721885623410344124,0.120014038514359,-2.35412152470473,-299.18576616718
738472.36721894657239317894,0.166173284096805,-2.31719412823878,-299.241157261879
738472.36721903702709823847,0.193868831446272,-2.28949858088931,-299.241157261879
738472.36721912748180329800,0.147709585863826,-2.34488967558824,-299.167302468947
738472.36721921793650835752,0.138477736747337,-2.35412152470473,-299.21346171453
738472.36721930839121341705,0.138477736747337,-2.34488967558824,-299.194998016297
738472.36721939872950315475,0.156941434980316,-2.32642597735527,-299.158070619831
738472.36721948918420821428,0.184636982329783,-2.28949858088931,-299.167302468947
738472.36721957963891327381,0.184636982329783,-2.2987304300058,-299.167302468947
738472.36721967009361833334,0.156941434980316,-2.32642597735527,-299.158070619831
738472.36721976054832339287,0.129245887630848,-2.34488967558824,-299.18576616718
738472.36721985088661313057,0.184636982329783,-2.2987304300058,-299.231925412763
738472.36721994134131819010,0.129245887630848,-2.33565782647175,-299.259620960112
738472.36722003179602324963,0.156941434980316,-2.30796227912229,-299.259620960112
738472.36722012225072830915,0.11078218939787,-2.34488967558824,-299.241157261879
738472.36722021270543336868,0.120014038514359,-2.34488967558824,-299.250389110996
738472.36722030316013842821,0.11078218939787,-2.34488967558824,-299.204229865413
738472.36722039349842816591,0.147709585863826,-2.28949858088931,-299.250389110996
738472.36722048395313322544,0.129245887630848,-2.30796227912229,-299.278084658345
738472.36722057440783828497,0.0830866420484024,-2.36335337382122,-299.241157261879
738472.36722066486254334450,0.0738547929319132,-2.34488967558824,-299.222693563646
738472.36722075531724840403,0.0738547929319132,-2.36335337382122,-299.250389110996
738472.36722084565553814173,0.064622943815424,-2.36335337382122,-299.278084658345
738472.36722093611024320126,0.0830866420484024,-2.35412152470473,-299.222693563646
738472.36722102656494826078,0.0923184911648915,-2.34488967558824,-299.250389110996
738472.36722111701965332031,0.0738547929319132,-2.35412152470473,-299.287316507462
738472.36722120747435837984,0.0830866420484024,-2.34488967558824,-299.287316507462
738472.36722129781264811754,0.064622943815424,-2.34488967558824,-299.259620960112
738472.36722138826735317707,0.0738547929319132,-2.34488967558824,-299.259620960112
738472.36722147872205823660,0.0923184911648915,-2.32642597735527,-299.194998016297
738472.36722156917676329613,0.064622943815424,-2.37258522293771,-299.176534318064
738472.36722165963146835566,0.0553910946989349,-2.36335337382122,-299.21346171453
738472.36722174996975809336,0.0738547929319132,-2.35412152470473,-299.204229865413
738472.36722184042446315289,0.0276955473494674,-2.39104892117069,-299.194998016297
738472.36722193087916821241,0.064622943815424,-2.37258522293771,-299.241157261879
738472.36722202133387327194,0.0461592455824458,-2.36335337382122,-299.21346171453
738472.36722211178857833147,0.0738547929319132,-2.35412152470473,-299.222693563646
738472.36722220212686806917,0.0923184911648915,-2.31719412823878,-299.231925412763
738472.36722229258157312870,0.0553910946989349,-2.36335337382122,-299.231925412763
738472.36722238303627818823,0.0369273964659566,-2.37258522293771,-299.259620960112
738472.36722247349098324776,0.064622943815424,-2.36335337382122,-299.241157261879
738472.36722256394568830729,0.064622943815424,-2.35412152470473,-299.268852809229
738472.36722265428397804499,0.0276955473494674,-2.3818170720542,-299.176534318064
738472.36722274473868310452,0.0461592455824458,-2.36335337382122,-299.231925412763
738472.36722283519338816404,0.0553910946989349,-2.36335337382122,-299.231925412763
738472.36722292564809322357,0.0553910946989349,-2.36335337382122,-299.250389110996
738472.36722301610279828310,0.064622943815424,-2.33565782647175,-299.21346171453
738472.36722310655750334263,0.0738547929319132,-2.33565782647175,-299.21346171453
738472.36722319689579308033,0.0369273964659566,-2.37258522293771,-299.222693563646
738472.36722328735049813986,0.064622943815424,-2.35412152470473,-299.139606921598
738472.36722337780520319939,0.0553910946989349,-2.34488967558824,-299.241157261879
738472.36722346825990825891,0.0276955473494674,-2.3818170720542,-299.250389110996
738472.36722355871461331844,0.0276955473494674,-2.3818170720542,-299.241157261879
738472.36722364905290305614,0.0830866420484024,-2.32642597735527,-299.222693563646
738472.36722373950760811567,0.138477736747337,-2.26180303353984,-299.250389110996
738472.36722382996231317520,0.064622943815424,-2.39104892117069,-299.268852809229
738472.36722392041701823473,0.120014038514359,-2.34488967558824,-299.268852809229
738472.36722401087172329426,0.203100680562761,-2.30796227912229,-299.21346171453
738472.36722410121001303196,0.230796227912229,-2.30796227912229,-299.278084658345
738472.36722419166471809149,0.276955473494675,-2.25257118442335,-299.287316507462
738472.36722428211942315102,0.258491775261696,-2.25257118442335,-299.167302468947
738472.36722437257412821054,0.193868831446272,-2.2987304300058,-299.259620960112
738472.36722446302883327007,0.166173284096805,-2.32642597735527,-299.259620960112
738472.36722455336712300777,0.101550340281381,-2.37258522293771,-299.278084658345
738472.36722464382182806730,0.064622943815424,-2.34488967558824,-299.268852809229
738472.36722473427653312683,0.0923184911648915,-2.32642597735527,-299.259620960112
738472.36722482473123818636,0.11078218939787,-2.31719412823878,-299.296548356578
738472.36722491518594324589,0.0369273964659566,-2.34488967558824,-299.194998016297
738472.36722500552423298359,-0.00923184911648915,-2.40028077028718,-299.259620960112
738472.36722509597893804312,0,-2.36335337382122,-299.259620960112
738472.36722518643364310265,-0.0184636982329783,-2.3818170720542,-299.250389110996
738472.36722527688834816217,-0.00923184911648915,-2.37258522293771,-299.278084658345
738472.36722536734305322170,0.0276955473494674,-2.34488967558824,-299.287316507462
738472.36722545779775828123,-0.0369273964659566,-2.40028077028718,-299.296548356578
738472.36722554813604801893,-0.0738547929319132,-2.42797631763665,-299.231925412763
738472.36722563859075307846,-0.0369273964659566,-2.3818170720542,-299.250389110996
738472.36722572904545813799,-0.0553910946989349,-2.30796227912229,-299.278084658345
738472.36722581950016319752,0.00923184911648915,-2.2987304300058,-299.259620960112
738472.36722590995486825705,0.267723624378185,-2.19718008972442,-299.222693563646
738472.36722600029315799475,0.692388683736686,-2.28949858088931,-299.21346171453
738472.36722609074786305428,1.51402325510422,-2.4649037141026,-299.176534318064
738472.36722618120256811380,1.48632770775475,-2.51106295968505,-299.139606921598
738472.36722627165727317333,0.65546128727073,-2.67723624378185,-299.296548356578
738472.36722636211197823286,0.00923184911648915,-2.75109103671377,-299.315012054811
738472.36722645245026797056,-0.406201361125523,-2.67723624378185,-299.278084658345
738472.36722654290497303009,-0.304651020844142,-2.41874446852016,-299.21346171453
738472.36722663335967808962,-0.22156437879574,-2.30796227912229,-299.194998016297
738472.36722672381438314915,-0.0923184911648915,-2.27103488265633,-299.148838770714
738472.36722681426908820868,0.064622943815424,-2.23410748619037,-299.047288430433
738472.36722690460737794638,0.0553910946989349,-2.31719412823878,-299.231925412763
738472.36722699506208300591,0.064622943815424,-2.32642597735527,-299.176534318064
738472.36722708551678806543,0.0923184911648915,-2.30796227912229,-299.18576616718
738472.36722717597149312496,0.138477736747337,-2.28026673177282,-299.18576616718
738472.36722726642619818449,0.0738547929319132,-2.36335337382122,-299.204229865413
738472.36722735676448792219,0.147709585863826,-2.31719412823878,-299.194998016297
738472.36722744721919298172,0.249259926145207,-2.17871639149144,-299.176534318064
738472.36722753767389804125,0.193868831446272,-2.27103488265633,-299.18576616718
738472.36722762812860310078,0.166173284096805,-2.2987304300058,-299.21346171453
738472.36722771858330816031,0.156941434980316,-2.32642597735527,-299.194998016297
738472.36722780892159789801,0.193868831446272,-2.28026673177282,-299.204229865413
738472.36722789937630295753,0.267723624378185,-2.23410748619037,-299.259620960112
738472.36722798983100801706,0.304651020844142,-2.2156437879574,-299.241157261879
738472.36722808028571307659,0.341578417310099,-2.16948454237495,-299.18576616718
738472.36722817074041813612,0.286187322611164,-2.23410748619037,-299.241157261879
738472.36722826119512319565,0.295419171727653,-2.24333933530686,-299.241157261879
738472.36722835153341293335,0.341578417310099,-2.19718008972442,-299.259620960112
738472.36722844198811799288,0.350810266426588,-2.19718008972442,-299.204229865413
738472.36722853244282305241,0.415433210242012,-2.13255714590899,-299.204229865413
738472.36722862289752811193,0.443128757591479,-2.11409344767602,-299.241157261879
738472.36722871335223317146,0.489288003173925,-2.09562974944304,-299.167302468947
738472.36722880369052290916,0.581606494338817,-2.00331125827815,-299.18576616718
738472.36722889414522796869,0.627765739921262,-1.97561571092868,-299.194998016297
738472.36722898459993302822,0.636997589037751,-1.99407940916166,-299.21346171453
738472.36722907505463808775,0.627765739921262,-2.02177495651112,-299.158070619831
738472.36722916550934314728,0.692388683736686,-1.96638386181219,-299.204229865413
738472.36722925584763288498,0.738547929319132,-1.94792016357921,-299.158070619831
738472.36722934630233794451,0.784707174901578,-1.91099276711325,-299.130375072481
738472.36722943675704300404,0.766243476668599,-1.94792016357921,-299.176534318064
738472.36722952721174806356,0.664693136387219,-2.01254310739463,-299.222693563646
738472.36722961766645312309,0.618533890804773,-2.04947050386059,-299.194998016297
738472.36722970800474286079,0.516983550523392,-2.09562974944304,-299.21346171453
738472.36722979845944792032,0.452360606707968,-2.11409344767602,-299.130375072481
738472.36722988891415297985,0.286187322611164,-2.24333933530686,-299.176534318064
738472.36722997936885803938,0.184636982329783,-2.2987304300058,-299.194998016297
738472.36723006982356309891,0.184636982329783,-2.26180303353984,-299.176534318064
738472.36723016016185283661,0.156941434980316,-2.2987304300058,-299.176534318064
738472.36723025061655789614,0.11078218939787,-2.32642597735527,-299.0288247322
738472.36723034107126295567,0.0553910946989349,-2.36335337382122,-299.18576616718
738472.36723043152596801519,0.0738547929319132,-2.35412152470473,-299.204229865413
738472.36723052198067307472,0.0923184911648915,-2.32642597735527,-299.250389110996
738472.36723061231896281242,0.0830866420484024,-2.34488967558824,-299.296548356578
738472.36723070277366787195,0.147709585863826,-2.26180303353984,-299.268852809229
738472.36723079322837293148,0.0923184911648915,-2.33565782647175,-299.231925412763
738472.36723088368307799101,0.0830866420484024,-2.34488967558824,-299.259620960112
738472.36723097413778305054,0.120014038514359,-2.31719412823878,-299.268852809229
738472.36723106459248811007,0.0830866420484024,-2.35412152470473,-299.194998016297
738472.36723115493077784777,0.0830866420484024,-2.35412152470473,-299.250389110996
738472.36723124538548290730,0.11078218939787,-2.32642597735527,-299.305780205695
738472.36723133584018796682,0.120014038514359,-2.30796227912229,-299.21346171453
738472.36723142629489302635,0.147709585863826,-2.28949858088931,-299.259620960112
738472.36723151674959808588,0.129245887630848,-2.30796227912229,-299.278084658345
738472.36723160708788782358,0.129245887630848,-2.28949858088931,-299.231925412763
738472.36723169754259288311,0.0553910946989349,-2.3818170720542,-299.231925412763
738472.36723178799729794264,0.0830866420484024,-2.35412152470473,-299.231925412763
738472.36723187845200300217,0.0738547929319132,-2.33565782647175,-299.222693563646
738472.36723196890670806170,0.0923184911648915,-2.33565782647175,-299.268852809229
738472.36723205924499779940,0.0738547929319132,-2.34488967558824,-299.250389110996
738472.36723214969970285892,0.0830866420484024,-2.33565782647175,-299.21346171453
738472.36723224015440791845,0.0830866420484024,-2.32642597735527,-299.259620960112
738472.36723233060911297798,0.120014038514359,-2.28949858088931,-299.259620960112
738472.36723242106381803751,0.156941434980316,-2.26180303353984,-299.305780205695
738472.36723251140210777521,-0.064622943815424,-2.4649037141026,-299.250389110996
738472.36723260185681283474,0.0184636982329783,-2.3818170720542,-299.305780205695
738472.36723269231151789427,0.0461592455824458,-2.34488967558824,-299.324243903928
738472.36723278276622295380,0.0369273964659566,-2.36335337382122,-299.305780205695
738472.36723287322092801332,0.0276955473494674,-2.37258522293771,-299.278084658345
738472.36723296355921775103,0.0553910946989349,-2.35412152470473,-299.250389110996
738472.36723305401392281055,0,-2.3818170720542,-299.21346171453
738472.36723314446862787008,0.0184636982329783,-2.36335337382122,-299.21346171453
738472.36723323492333292961,0.0276955473494674,-2.36335337382122,-299.21346171453
738472.36723332537803798914,0.0553910946989349,-2.33565782647175,-299.21346171453
738472.36723341571632772684,0.0553910946989349,-2.32642597735527,-299.259620960112
738472.36723350617103278637,0.0738547929319132,-2.31719412823878,-299.250389110996
738472.36723359662573784590,-0.0461592455824458,-2.43720816675314,-299.268852809229
738472.36723368708044290543,0.00923184911648915,-2.3818170720542,-299.259620960112
738472.36723377753514796495,0.00923184911648915,-2.37258522293771,-299.121143223365
738472.36723386798985302448,0.0369273964659566,-2.36335337382122,-299.21346171453
738472.36723395832814276218,0.0184636982329783,-2.34488967558824,-299.222693563646
738472.36723404878284782171,0.0276955473494674,-2.37258522293771,-299.176534318064
738472.36723413923755288124,0.00923184911648915,-2.37258522293771,-299.194998016297
738472.36723422969225794077,0.0184636982329783,-2.37258522293771,-299.250389110996
738472.36723432014696300030,0.0276955473494674,-2.37258522293771,-299.204229865413
738472.36723441048525273800,0.0184636982329783,-2.34488967558824,-299.222693563646
738472.36723450093995779753,0.120014038514359,-2.28949858088931,-299.231925412763
738472.36723459139466285706,0.0369273964659566,-2.35412152470473,-299.222693563646
738472.36723468184936791658,-0.00923184911648915,-2.40028077028718,-299.250389110996
738472.36723477230407297611,0.0184636982329783,-2.35412152470473,-299.259620960112
738472.36723486264236271381,0.0830866420484024,-2.31719412823878,-299.241157261879
738472.36723495309706777334,0.00923184911648915,-2.37258522293771,-299.21346171453
738472.36723504355177283287,0,-2.40028077028718,-299.278084658345
738472.36723513400647789240,0.0184636982329783,-2.36335337382122,-299.21346171453
738472.36723522446118295193,0.0369273964659566,-2.37258522293771,-299.231925412763
738472.36723531479947268963,0.0184636982329783,-2.35412152470473,-299.21346171453
738472.36723540525417774916,0.0830866420484024,-2.30796227912229,-299.241157261879
738472.36723549570888280869,0.11078218939787,-2.30796227912229,-299.250389110996
738472.36723558616358786821,0.138477736747337,-2.31719412823878,-299.259620960112
738472.36723567661829292774,0.22156437879574,-2.25257118442335,-299.268852809229
738472.36723576695658266544,0.267723624378185,-2.26180303353984,-299.231925412763
738472.36723585741128772497,0.193868831446272,-2.33565782647175,-299.250389110996
738472.36723594786599278450,0.156941434980316,-2.33565782647175,-299.268852809229
738472.36723603832069784403,0.184636982329783,-2.2987304300058,-299.259620960112
738472.36723612877540290356,0.193868831446272,-2.28026673177282,-299.250389110996
738472.36723621923010796309,0.175405133213294,-2.2987304300058,-299.268852809229
738472.36723630956839770079,0.0553910946989349,-2.35412152470473,-299.305780205695
738472.36723640002310276031,0.0461592455824458,-2.34488967558824,-299.296548356578
738472.36723649047780781984,0.0276955473494674,-2.36335337382122,-299.268852809229
738472.36723658093251287937,0,-2.36335337382122,-299.315012054811
738472.36723667138721793890,0.0738547929319132,-2.28026673177282,-299.287316507462
738472.36723676172550767660,-0.0184636982329783,-2.3818170720542,-299.268852809229
738472.36723685218021273613,-0.0553910946989349,-2.40028077028718,-299.287316507462
738472.36723694263491779566,-0.0276955473494674,-2.3818170720542,-299.305780205695
738472.36723703308962285519,-0.0369273964659566,-2.37258522293771,-299.278084658345
738472.36723712354432791471,-0.00923184911648915,-2.36335337382122,-299.296548356578
738472.36723721388261765242,-0.0276955473494674,-2.3818170720542,-299.296548356578
738472.36723730433732271194,-0.0461592455824458,-2.37258522293771,-299.167302468947
738472.36723739479202777147,-0.064622943815424,-2.30796227912229,-299.167302468947
738472.36723748524673283100,0.00923184911648915,-2.2987304300058,-299.296548356578
738472.36723757570143789053,0.203100680562761,-2.26180303353984,-299.259620960112
738472.36723766603972762823,0.720084231086154,-2.24333933530686,-299.18576616718
738472.36723775649443268776,1.5324869533372,-2.41874446852016,-299.18576616718
738472.36723784694913774729,1.4494003112888,-2.52029480880154,-299.21346171453
738472.36723793740384280682,0.701620532853175,-2.6403088473159,-299.259620960112
738472.36723802785854786634,0.396969512009033,-2.67723624378185,-299.324243903928
738472.36723811819683760405,-0.166173284096805,-2.65877254554888,-299.407330545976
738472.36723820865154266357,-0.341578417310099,-2.55722220526749,-299.37040314951
738472.36723829910624772310,-0.286187322611164,-2.35412152470473,-299.278084658345
738472.36723838956095278263,-0.156941434980316,-2.32642597735527,-299.259620960112
738472.36723848001565784216,0.0184636982329783,-2.28949858088931,-299.148838770714
738472.36723857035394757986,0.129245887630848,-2.23410748619037,-299.241157261879
738472.36723866080865263939,0.101550340281381,-2.28026673177282,-299.231925412763
738472.36723875126335769892,0.0923184911648915,-2.30796227912229,-299.167302468947
738472.36723884171806275845,0.129245887630848,-2.28949858088931,-299.158070619831
738472.36723893217276781797,0.156941434980316,-2.28026673177282,-299.176534318064
738472.36723902262747287750,0.166173284096805,-2.28026673177282,-299.158070619831
738472.36723911296576261520,0.193868831446272,-2.26180303353984,-299.148838770714
738472.36723920342046767473,0.184636982329783,-2.27103488265633,-299.18576616718
738472.36723929387517273426,0.22156437879574,-2.27103488265633,-299.21346171453
738472.36723938432987779379,0.230796227912229,-2.26180303353984,-299.176534318064
738472.36723947478458285332,0.313882869960631,-2.18794824060793,-299.148838770714
738472.36723956512287259102,0.304651020844142,-2.19718008972442,-299.176534318064
738472.36723965557757765055,0.249259926145207,-2.28026673177282,-299.204229865413
738472.36723974603228271008,0.32311471907712,-2.2156437879574,-299.176534318064
738472.36723983648698776960,0.304651020844142,-2.24333933530686,-299.194998016297
738472.36723992694169282913,0.313882869960631,-2.22487563707389,-299.204229865413
738472.36724001727998256683,0.350810266426588,-2.18794824060793,-299.167302468947
738472.36724010773468762636,0.415433210242012,-2.15102084414197,-299.139606921598
738472.36724019818939268589,0.470824304940947,-2.10486159855953,-299.167302468947
738472.36724028864409774542,0.470824304940947,-2.10486159855953,-299.194998016297
738472.36724037909880280495,0.526215399639882,-2.0402386547441,-299.167302468947
738472.36724046943709254265,0.507751701406903,-2.06793420209357,-299.158070619831
738472.36724055989179760218,0.581606494338817,-2.02177495651112,-299.139606921598
738472.36724065034650266171,0.65546128727073,-2.00331125827815,-299.130375072481
738472.36724074080120772123,0.701620532853175,-1.93868831446272,-299.18576616718
738472.36724083125591278076,0.738547929319132,-1.91099276711325,-299.05652027955
738472.36724092159420251846,0.766243476668599,-1.91099276711325,-299.074983977782
738472.36724101204890757799,0.803170873134556,-1.92945646534623,-299.176534318064
738472.36724110250361263752,0.784707174901578,-1.94792016357921,-299.176534318064
738472.36724119295831769705,0.803170873134556,-1.89252906888028,-299.194998016297
738472.36724128341302275658,0.609302041688284,-2.0402386547441,-299.176534318064
738472.36724137375131249428,0.516983550523392,-2.1233252967925,-299.231925412763
738472.36724146420601755381,0.415433210242012,-2.15102084414197,-299.241157261879
738472.36724155466072261333,0.304651020844142,-2.23410748619037,-299.222693563646
738472.36724164511542767286,0.22156437879574,-2.27103488265633,-299.250389110996
738472.36724173557013273239,0.193868831446272,-2.28026673177282,-299.241157261879
738472.36724182602483779192,0.21233252967925,-2.27103488265633,-299.268852809229
738472.36724191636312752962,0.156941434980316,-2.2987304300058,-299.231925412763
738472.36724200681783258915,0.156941434980316,-2.2987304300058,-299.176534318064
738472.36724209727253764868,0.147709585863826,-2.28949858088931,-299.176534318064
738472.36724218772724270821,0.156941434980316,-2.28949858088931,-299.167302468947
738472.36724227818194776773,0.129245887630848,-2.30796227912229,-299.176534318064
738472.36724236852023750544,0.0830866420484024,-2.3818170720542,-299.204229865413
738472.36724245897494256496,0.129245887630848,-2.31719412823878,-299.259620960112
738472.36724254942964762449,0.147709585863826,-2.28949858088931,-299.222693563646
738472.36724263988435268402,0.101550340281381,-2.35412152470473,-299.158070619831
738472.36724273033905774355,0.129245887630848,-2.33565782647175,-299.176534318064
738472.36724282067734748125,0.138477736747337,-2.2987304300058,-299.21346171453
738472.36724291113205254078,0.129245887630848,-2.33565782647175,-299.21346171453
738472.36724300158675760031,0.193868831446272,-2.26180303353984,-299.194998016297
738472.36724309204146265984,0.166173284096805,-2.2987304300058,-299.18576616718
738472.36724318249616771936,0.0923184911648915,-2.37258522293771,-299.222693563646
738472.36724327283445745707,0.101550340281381,-2.32642597735527,-299.231925412763
738472.36724336328916251659,0.138477736747337,-2.31719412823878,-299.222693563646
738472.36724345374386757612,0.184636982329783,-2.25257118442335,-299.204229865413
738472.36724354419857263565,0.156941434980316,-2.28949858088931,-299.21346171453
738472.36724363465327769518,0.0738547929319132,-2.35412152470473,-299.241157261879
738472.36724372499156743288,0.101550340281381,-2.34488967558824,-299.241157261879
738472.36724381544627249241,0.0923184911648915,-2.36335337382122,-299.268852809229
738472.36724390590097755194,0.101550340281381,-2.32642597735527,-299.287316507462
738472.36724399635568261147,0.11078218939787,-2.31719412823878,-299.148838770714
738472.36724408681038767099,0.138477736747337,-2.28949858088931,-299.259620960112
738472.36724417726509273052,0.129245887630848,-2.2987304300058,-299.268852809229
738472.36724426760338246822,0.101550340281381,-2.33565782647175,-299.259620960112
738472.36724435805808752775,0.11078218939787,-2.30796227912229,-299.148838770714
738472.36724444851279258728,0.0369273964659566,-2.40028077028718,-299.204229865413
738472.36724453896749764681,0.0553910946989349,-2.3818170720542,-299.278084658345
738472.36724462942220270634,0.064622943815424,-2.35412152470473,-299.204229865413
738472.36724471976049244404,0.120014038514359,-2.28949858088931,-299.268852809229
738472.36724481021519750357,0.0830866420484024,-2.34488967558824,-299.250389110996
738472.36724490066990256310,0.0830866420484024,-2.35412152470473,-299.18576616718
738472.36724499112460762262,0.0830866420484024,-2.32642597735527,-299.21346171453
738472.36724508157931268215,0.064622943815424,-2.36335337382122,-299.259620960112
738472.36724517191760241985,0.0923184911648915,-2.33565782647175,-299.278084658345
738472.36724526237230747938,0.138477736747337,-2.28026673177282,-299.250389110996
738472.36724535282701253891,0.0461592455824458,-2.37258522293771,-299.268852809229
738472.36724544328171759844,0.0923184911648915,-2.35412152470473,-299.278084658345
738472.36724553373642265797,0.101550340281381,-2.32642597735527,-299.296548356578
738472.36724562407471239567,0.0461592455824458,-2.36335337382122,-299.250389110996
738472.36724571452941745520,0.0738547929319132,-2.34488967558824,-299.296548356578
738472.36724580498412251472,0.0738547929319132,-2.34488967558824,-299.278084658345
738472.36724589543882757425,0.0738547929319132,-2.36335337382122,-299.21346171453
738472.36724598589353263378,0.0923184911648915,-2.33565782647175,-299.259620960112
738472.36724607623182237148,0.101550340281381,-2.32642597735527,-299.21346171453
738472.36724616668652743101,0.0830866420484024,-2.33565782647175,-299.204229865413
738472.36724625714123249054,0.0369273964659566,-2.37258522293771,-299.176534318064
738472.36724634759593755007,0.0369273964659566,-2.3818170720542,-299.194998016297
738472.36724643805064260960,0.120014038514359,-2.30796227912229,-299.204229865413
738472.36724652838893234730,0.0738547929319132,-2.36335337382122,-299.250389110996
738472.36724661884363740683,0.0830866420484024,-2.36335337382122,-299.278084658345
738472.36724670929834246635,0.120014038514359,-2.32642597735527,-299.287316507462
738472.36724679975304752588,0.156941434980316,-2.30796227912229,-299.287316507462
738472.36724689020775258541,0.240028077028718,-2.24333933530686,-299.231925412763
738472.36724698066245764494,0.341578417310099,-2.2156437879574,-299.305780205695
738472.36724707100074738264,0.230796227912229,-2.36335337382122,-299.305780205695
738472.36724716145545244217,0.22156437879574,-2.32642597735527,-299.222693563646
738472.36724725191015750170,0.240028077028718,-2.28949858088931,-299.21346171453
738472.36724734236486256123,0.276955473494675,-2.26180303353984,-299.18576616718
738472.36724743281956762075,0.230796227912229,-2.2987304300058,-299.176534318064
738472.36724752315785735846,0.184636982329783,-2.30796227912229,-299.21346171453
738472.36724761361256241798,0.147709585863826,-2.32642597735527,-299.231925412763
738472.36724770406726747751,0.147709585863826,-2.2987304300058,-299.231925412763
738472.36724779452197253704,0.0738547929319132,-2.34488967558824,-299.21346171453
738472.36724788497667759657,0.0369273964659566,-2.3818170720542,-299.158070619831
738472.36724797531496733427,0.0830866420484024,-2.36335337382122,-299.121143223365
738472.36724806576967239380,0.00923184911648915,-2.39104892117069,-299.241157261879
738472.36724815622437745333,0.0276955473494674,-2.36335337382122,-299.204229865413
738472.36724824667908251286,0.0461592455824458,-2.33565782647175,-299.194998016297
738472.36724833713378757238,0.0461592455824458,-2.36335337382122,-299.241157261879
738472.36724842747207731009,0.0369273964659566,-2.36335337382122,-299.250389110996
738472.36724851792678236961,0.0461592455824458,-2.37258522293771,-299.268852809229
738472.36724860838148742914,0.0553910946989349,-2.32642597735527,-299.250389110996
738472.36724869883619248867,-0.00923184911648915,-2.28949858088931,-299.241157261879
738472.36724878929089754820,0.0923184911648915,-2.27103488265633,-299.241157261879
738472.36724887962918728590,0.313882869960631,-2.28026673177282,-299.231925412763
738472.36724897008389234543,0.932416760765404,-2.2987304300058,-299.148838770714
738472.36724906053859740496,1.59710989715262,-2.45567186498611,-299.121143223365
738472.36724915099330246449,1.22783593249306,-2.51106295968505,-299.139606921598
738472.36724924144800752401,0.784707174901578,-2.54799035615101,-299.222693563646
738472.36724933178629726171,0.166173284096805,-2.71416364024781,-299.379634998627
738472.36724942224100232124,-0.184636982329783,-2.54799035615101,-299.379634998627
738472.36724951269570738077,-0.249259926145207,-2.45567186498611,-299.241157261879
738472.36724960315041244030,-0.267723624378185,-2.32642597735527,-299.241157261879
738472.36724969360511749983,-0.11078218939787,-2.30796227912229,-299.259620960112
738472.36724978405982255936,0.0461592455824458,-2.28949858088931,-299.21346171453
738472.36724987439811229706,0.129245887630848,-2.27103488265633,-299.268852809229
738472.36724996485281735659,0.129245887630848,-2.28026673177282,-299.250389110996
738472.36725005530752241611,0.156941434980316,-2.28026673177282,-299.278084658345
738472.36725014576222747564,0.203100680562761,-2.28026673177282,-299.259620960112
738472.36725023621693253517,0.203100680562761,-2.26180303353984,-299.231925412763
738472.36725032655522227287,0.258491775261696,-2.23410748619037,-299.167302468947
738472.36725041700992733240,0.22156437879574,-2.2987304300058,-299.167302468947
738472.36725050746463239193,0.258491775261696,-2.26180303353984,-299.176534318064
738472.36725059791933745146,0.295419171727653,-2.2156437879574,-299.176534318064
738472.36725068837404251099,0.295419171727653,-2.25257118442335,-299.18576616718
738472.36725077871233224869,0.313882869960631,-2.22487563707389,-299.21346171453
738472.36725086916703730822,0.369273964659566,-2.18794824060793,-299.241157261879
738472.36725095962174236774,0.313882869960631,-2.23410748619037,-299.204229865413
738472.36725105007644742727,0.341578417310099,-2.25257118442335,-299.194998016297
738472.36725114053115248680,0.360042115543077,-2.2156437879574,-299.093447676016
738472.36725123086944222450,0.396969512009033,-2.18794824060793,-299.158070619831
738472.36725132132414728403,0.415433210242012,-2.17871639149144,-299.176534318064
738472.36725141177885234356,0.43389690847499,-2.16948454237495,-299.148838770714
738472.36725150223355740309,0.507751701406903,-2.09562974944304,-299.074983977782
738472.36725159268826246262,0.526215399639882,-2.08639790032655,-299.167302468947
738472.36725168302655220032,0.572374645222327,-2.06793420209357,-299.176534318064
738472.36725177348125725985,0.590838343455306,-2.04947050386059,-299.194998016297
738472.36725186393596231937,0.692388683736686,-1.96638386181219,-299.158070619831
738472.36725195439066737890,0.729316080202643,-1.92022461622974,-299.148838770714
738472.36725204484537243843,0.775475325785089,-1.93868831446272,-299.148838770714
738472.36725213530007749796,0.75701162755211,-1.96638386181219,-299.176534318064
738472.36725222563836723566,0.775475325785089,-1.96638386181219,-299.176534318064
738472.36725231609307229519,0.784707174901578,-1.94792016357921,-299.102679525132
738472.36725240654777735472,0.747779778435621,-1.97561571092868,-299.111911374248
738472.36725249700248241425,0.729316080202643,-1.9571520126957,-299.148838770714
738472.36725258745718747377,0.664693136387219,-2.02177495651112,-299.204229865413
738472.36725267779547721148,0.498519852290414,-2.1233252967925,-299.18576616718
738472.36725276825018227100,0.387737662892544,-2.17871639149144,-299.241157261879
738472.36725285870488733053,0.295419171727653,-2.22487563707389,-299.194998016297
738472.36725294915959239006,0.249259926145207,-2.27103488265633,-299.194998016297
738472.36725303961429744959,0.230796227912229,-2.27103488265633,-299.222693563646
738472.36725312995258718729,0.184636982329783,-2.30796227912229,-299.278084658345
738472.36725322040729224682,0.240028077028718,-2.25257118442335,-299.250389110996
738472.36725331086199730635,0.203100680562761,-2.2987304300058,-299.250389110996
738472.36725340131670236588,0.138477736747337,-2.34488967558824,-299.268852809229
738472.36725349177140742540,0.138477736747337,-2.32642597735527,-299.268852809229
738472.36725358210969716311,0.203100680562761,-2.28026673177282,-299.278084658345
738472.36725367256440222263,0.138477736747337,-2.33565782647175,-299.259620960112
738472.36725376301910728216,0.193868831446272,-2.32642597735527,-299.268852809229
738472.36725385347381234169,0.129245887630848,-2.34488967558824,-299.259620960112
738472.36725394392851740122,0.193868831446272,-2.30796227912229,-299.296548356578
738472.36725403426680713892,0.184636982329783,-2.2987304300058,-299.241157261879
738472.36725412472151219845,0.138477736747337,-2.33565782647175,-299.259620960112
738472.36725421517621725798,0.166173284096805,-2.30796227912229,-299.259620960112
738472.36725430563092231750,0.166173284096805,-2.33565782647175,-299.231925412763
738472.36725439608562737703,0.22156437879574,-2.25257118442335,-299.241157261879
738472.36725448642391711473,0.175405133213294,-2.28026673177282,-299.268852809229
738472.36725457687862217426,0.147709585863826,-2.31719412823878,-299.259620960112
738472.36725466733332723379,0.120014038514359,-2.35412152470473,-299.241157261879
738472.36725475778803229332,0.156941434980316,-2.31719412823878,-299.278084658345
738472.36725484824273735285,0.129245887630848,-2.34488967558824,-299.268852809229
738472.36725493869744241238,0.129245887630848,-2.32642597735527,-299.18576616718
738472.36725502903573215008,0.120014038514359,-2.30796227912229,-299.121143223365
738472.36725511949043720961,0.120014038514359,-2.33565782647175,-299.278084658345
738472.36725520994514226913,0.129245887630848,-2.30796227912229,-299.278084658345
738472.36725530039984732866,0.11078218939787,-2.34488967558824,-299.231925412763
738472.36725539085455238819,0.0923184911648915,-2.34488967558824,-299.259620960112
738472.36725548119284212589,0.129245887630848,-2.2987304300058,-299.278084658345
738472.36725557164754718542,0.129245887630848,-2.28949858088931,-299.222693563646
738472.36725566210225224495,0.0830866420484024,-2.35412152470473,-299.148838770714
738472.36725575255695730448,0.064622943815424,-2.36335337382122,-299.21346171453
738472.36725584301166236401,0.0738547929319132,-2.35412152470473,-299.231925412763
738472.36725593334995210171,0.11078218939787,-2.30796227912229,-299.194998016297
738472.36725602380465716124,0.064622943815424,-2.35412152470473,-299.18576616718
738472.36725611425936222076,0.0830866420484024,-2.35412152470473,-299.18576616718
738472.36725620471406728029,0.0830866420484024,-2.34488967558824,-299.222693563646
738472.36725629516877233982,0.120014038514359,-2.28949858088931,-299.231925412763
738472.36725638550706207752,0.11078218939787,-2.2987304300058,-299.204229865413
738472.36725647596176713705,0.064622943815424,-2.35412152470473,-299.18576616718
738472.36725656641647219658,0.0276955473494674,-2.39104892117069,-299.241157261879
738472.36725665687117725611,0.0830866420484024,-2.33565782647175,-299.21346171453
738472.36725674732588231564,0.064622943815424,-2.33565782647175,-299.21346171453
738472.36725683766417205334,0.0738547929319132,-2.32642597735527,-299.241157261879
738472.36725692811887711287,0.064622943815424,-2.35412152470473,-299.222693563646
738472.36725701857358217239,0.129245887630848,-2.28949858088931,-299.21346171453
738472.36725710902828723192,0.0830866420484024,-2.32642597735527,-299.296548356578
738472.36725719948299229145,0.0553910946989349,-2.35412152470473,-299.278084658345
738472.36725728982128202915,0.0830866420484024,-2.32642597735527,-299.194998016297
738472.36725738027598708868,0.064622943815424,-2.35412152470473,-299.268852809229
738472.36725747073069214821,0.0738547929319132,-2.33565782647175,-299.259620960112
738472.36725756118539720774,0.0461592455824458,-2.36335337382122,-299.204229865413
738472.36725765164010226727,0.0923184911648915,-2.28949858088931,-299.241157261879
738472.36725774209480732679,0.0830866420484024,-2.32642597735527,-299.250389110996
738472.36725783243309706450,0.0830866420484024,-2.33565782647175,-299.259620960112
738472.36725792288780212402,0.147709585863826,-2.2987304300058,-299.278084658345
738472.36725801334250718355,0.21233252967925,-2.27103488265633,-299.241157261879
738472.36725810379721224308,0.230796227912229,-2.28949858088931,-299.278084658345
738472.36725819425191730261,0.240028077028718,-2.2987304300058,-299.296548356578
738472.36725828459020704031,0.267723624378185,-2.28026673177282,-299.222693563646
738472.36725837504491209984,0.249259926145207,-2.27103488265633,-299.259620960112
738472.36725846549961715937,0.258491775261696,-2.25257118442335,-299.084215826899
738472.36725855595432221889,0.249259926145207,-2.25257118442335,-299.21346171453
738472.36725864640902727842,0.203100680562761,-2.28949858088931,-299.231925412763
738472.36725873674731701612,0.120014038514359,-2.33565782647175,-299.259620960112
738472.36725882720202207565,0.0923184911648915,-2.32642597735527,-299.278084658345
738472.36725891765672713518,0.0461592455824458,-2.36335337382122,-299.278084658345
738472.36725900811143219471,0.0369273964659566,-2.34488967558824,-299.241157261879
738472.36725909856613725424,0.0830866420484024,-2.30796227912229,-299.268852809229
738472.36725918890442699194,0.064622943815424,-2.32642597735527,-299.296548356578
738472.36725927935913205147,-0.00923184911648915,-2.37258522293771,-299.241157261879
738472.36725936981383711100,0.0184636982329783,-2.36335337382122,-299.278084658345
738472.36725946026854217052,0.0276955473494674,-2.35412152470473,-299.194998016297
738472.36725955072324723005,0.0276955473494674,-2.35412152470473,-299.18576616718
738472.36725964106153696775,0.0184636982329783,-2.36335337382122,-299.194998016297
738472.36725973151624202728,-0.0184636982329783,-2.39104892117069,-299.18576616718
738472.36725982197094708681,0,-2.28949858088931,-299.139606921598
738472.36725991242565214634,0.0276955473494674,-2.28949858088931,-299.18576616718
738472.36726000288035720587,0.166173284096805,-2.27103488265633,-299.130375072481
738472.36726009333506226540,0.701620532853175,-2.23410748619037,-299.130375072481
738472.36726018367335200310,1.47709585863826,-2.39104892117069,-299.084215826899
738472.36726027412805706263,1.56941434980316,-2.48336741233558,-299.093447676016
738472.36726036458276212215,0.895489364299448,-2.53875850703452,-299.222693563646
738472.36726045503746718168,0.120014038514359,-2.74185918759728,-299.333475753044
738472.36726054549217224121,-0.175405133213294,-2.71416364024781,-299.37040314951
738472.36726063583046197891,-0.341578417310099,-2.58491775261696,-299.287316507462
738472.36726072628516703844,-0.286187322611164,-2.37258522293771,-299.222693563646
738472.36726081673987209797,-0.0923184911648915,-2.26180303353984,-299.268852809229
738472.36726090719457715750,0.0461592455824458,-2.25257118442335,-299.241157261879
738472.36726099764928221703,0.101550340281381,-2.27103488265633,-299.278084658345
738472.36726108798757195473,0.129245887630848,-2.28949858088931,-299.222693563646
738472.36726117844227701426,0.193868831446272,-2.2156437879574,-299.241157261879
738472.36726126889698207378,0.193868831446272,-2.24333933530686,-299.250389110996
738472.36726135935168713331,0.101550340281381,-2.34488967558824,-299.194998016297
738472.36726144980639219284,0.156941434980316,-2.30796227912229,-299.204229865413
738472.36726154014468193054,0.193868831446272,-2.28026673177282,-299.194998016297
738472.36726163059938699007,0.203100680562761,-2.28026673177282,-299.259620960112
738472.36726172105409204960,0.240028077028718,-2.25257118442335,-299.18576616718
738472.36726181150879710913,0.240028077028718,-2.26180303353984,-299.21346171453
738472.36726190196350216866,0.276955473494675,-2.23410748619037,-299.167302468947
738472.36726199230179190636,0.313882869960631,-2.19718008972442,-299.038056581317
738472.36726208275649696589,0.295419171727653,-2.25257118442335,-299.139606921598
738472.36726217321120202541,0.32311471907712,-2.2156437879574,-299.250389110996
738472.36726226366590708494,0.341578417310099,-2.20641193884091,-299.148838770714
738472.36726235412061214447,0.369273964659566,-2.18794824060793,-299.222693563646
738472.36726244445890188217,0.378505813776055,-2.18794824060793,-299.21346171453
738472.36726253491360694170,0.415433210242012,-2.15102084414197,-299.204229865413
738472.36726262536831200123,0.43389690847499,-2.15102084414197,-299.176534318064
738472.36726271582301706076,0.489288003173925,-2.11409344767602,-299.194998016297
738472.36726280627772212029,0.54467909787286,-2.04947050386059,-299.204229865413
738472.36726289673242717981,0.563142796105838,-2.04947050386059,-299.158070619831
738472.36726298707071691751,0.636997589037751,-1.99407940916166,-299.167302468947
738472.36726307752542197704,0.664693136387219,-1.96638386181219,-299.194998016297
738472.36726316798012703657,0.720084231086154,-1.92945646534623,-299.102679525132
738472.36726325843483209610,0.775475325785089,-1.90176091799676,-299.158070619831
738472.36726334888953715563,0.766243476668599,-1.9571520126957,-299.148838770714
738472.36726343922782689333,0.775475325785089,-1.9571520126957,-299.167302468947
738472.36726352968253195286,0.793939024018067,-1.92945646534623,-299.139606921598
738472.36726362013723701239,0.720084231086154,-1.99407940916166,-299.158070619831
738472.36726371059194207191,0.600070192571795,-2.04947050386059,-299.204229865413
738472.36726380104664713144,0.563142796105838,-2.06793420209357,-299.130375072481
738472.36726389138493686914,0.415433210242012,-2.16025269325846,-299.176534318064
738472.36726398183964192867,0.341578417310099,-2.19718008972442,-299.176534318064
738472.36726407229434698820,0.230796227912229,-2.24333933530686,-299.158070619831
738472.36726416274905204773,0.22156437879574,-2.26180303353984,-299.204229865413
738472.36726425320375710726,0.120014038514359,-2.34488967558824,-299.167302468947
738472.36726434354204684496,0.138477736747337,-2.32642597735527,-299.18576616718
738472.36726443399675190449,0.138477736747337,-2.30796227912229,-299.204229865413
738472.36726452445145696402,0.129245887630848,-2.31719412823878,-299.241157261879
738472.36726461490616202354,0.11078218939787,-2.33565782647175,-299.194998016297
738472.36726470536086708307,0.120014038514359,-2.31719412823878,-299.21346171453
738472.36726479569915682077,0.120014038514359,-2.30796227912229,-299.231925412763
738472.36726488615386188030,0.101550340281381,-2.33565782647175,-299.21346171453
738472.36726497660856693983,0.147709585863826,-2.27103488265633,-299.167302468947
738472.36726506706327199936,0.11078218939787,-2.31719412823878,-299.158070619831
738472.36726515751797705889,0.11078218939787,-2.32642597735527,-299.176534318064
738472.36726524785626679659,0.129245887630848,-2.31719412823878,-299.167302468947
738472.36726533831097185612,0.129245887630848,-2.33565782647175,-299.21346171453
738472.36726542876567691565,0.0923184911648915,-2.34488967558824,-299.176534318064
738472.36726551922038197517,0.203100680562761,-2.25257118442335,-299.05652027955
738472.36726560967508703470,0.129245887630848,-2.30796227912229,-299.111911374248
738472.36726570012979209423,0.120014038514359,-2.31719412823878,-299.222693563646
738472.36726579046808183193,0.147709585863826,-2.30796227912229,-299.250389110996
738472.36726588092278689146,0.166173284096805,-2.27103488265633,-299.176534318064
738472.36726597137749195099,0.0830866420484024,-2.33565782647175,-299.194998016297
738472.36726606183219701052,0.101550340281381,-2.35412152470473,-299.231925412763
738472.36726615228690207005,0.129245887630848,-2.32642597735527,-299.241157261879
738472.36726624262519180775,0.11078218939787,-2.33565782647175,-299.241157261879
738472.36726633307989686728,0.120014038514359,-2.31719412823878,-299.250389110996
738472.36726642353460192680,0.0830866420484024,-2.32642597735527,-299.259620960112
738472.36726651398930698633,0.101550340281381,-2.33565782647175,-299.268852809229
738472.36726660444401204586,0.0738547929319132,-2.34488967558824,-299.194998016297
738472.36726669478230178356,0.101550340281381,-2.31719412823878,-299.231925412763
738472.36726678523700684309,0.0461592455824458,-2.35412152470473,-299.278084658345
738472.36726687569171190262,0.0553910946989349,-2.35412152470473,-299.21346171453
738472.36726696614641696215,0.0738547929319132,-2.32642597735527,-299.250389110996
738472.36726705660112202168,0.0830866420484024,-2.32642597735527,-299.278084658345
738472.36726714693941175938,0.0461592455824458,-2.36335337382122,-299.259620960112
738472.36726723739411681890,0.0738547929319132,-2.32642597735527,-299.222693563646
738472.36726732784882187843,0.0738547929319132,-2.31719412823878,-299.250389110996
738472.36726741830352693796,0.0369273964659566,-2.39104892117069,-299.268852809229
738472.36726750875823199749,0.0369273964659566,-2.39104892117069,-299.194998016297
738472.36726759909652173519,0.0553910946989349,-2.35412152470473,-299.296548356578
738472.36726768955122679472,0.0369273964659566,-2.36335337382122,-299.259620960112
738472.36726778000593185425,0.0553910946989349,-2.36335337382122,-299.18576616718
738472.36726787046063691378,0.0553910946989349,-2.35412152470473,-299.241157261879
738472.36726796091534197330,0.00923184911648915,-2.37258522293771,-299.287316507462
738472.36726805137004703283,0.0553910946989349,-2.34488967558824,-299.259620960112
738472.36726814170833677053,0.064622943815424,-2.34488967558824,-299.158070619831
738472.36726823216304183006,0.0923184911648915,-2.34488967558824,-299.268852809229
738472.36726832261774688959,0.064622943815424,-2.33565782647175,-299.268852809229
738472.36726841307245194912,0.064622943815424,-2.35412152470473,-299.18576616718
738472.36726850352715700865,0.00923184911648915,-2.35412152470473,-299.167302468947
738472.36726859386544674635,0.0369273964659566,-2.35412152470473,-299.148838770714
738472.36726868432015180588,0.0369273964659566,-2.35412152470473,-299.139606921598
738472.36726877477485686541,0.0184636982329783,-2.39104892117069,-299.139606921598
738472.36726886522956192493,0.0276955473494674,-2.36335337382122,-299.167302468947
738472.36726895568426698446,0.0369273964659566,-2.36335337382122,-299.222693563646
738472.36726904602255672216,0.0461592455824458,-2.35412152470473,-299.093447676016
738472.36726913647726178169,0.0923184911648915,-2.32642597735527,-299.148838770714
738472.36726922693196684122,0.0553910946989349,-2.32642597735527,-299.18576616718
738472.36726931738667190075,0.0369273964659566,-2.34488967558824,-299.194998016297
738472.36726940784137696028,0.0369273964659566,-2.37258522293771,-299.194998016297
738472.36726949817966669798,0.0369273964659566,-2.33565782647175,-299.204229865413
738472.36726958863437175751,0.0276955473494674,-2.36335337382122,-299.194998016297
738472.36726967908907681704,0,-2.40028077028718,-299.194998016297
738472.36726976954378187656,0.0553910946989349,-2.36335337382122,-299.231925412763
738472.36726985999848693609,0.0923184911648915,-2.32642597735527,-299.231925412763
738472.36726995033677667379,0.120014038514359,-2.32642597735527,-299.268852809229
738472.36727004079148173332,0.21233252967925,-2.23410748619037,-299.250389110996
738472.36727013124618679285,0.175405133213294,-2.28026673177282,-299.231925412763
738472.36727022170089185238,0.175405133213294,-2.33565782647175,-299.21346171453
738472.36727031215559691191,0.230796227912229,-2.28949858088931,-299.268852809229
738472.36727040249388664961,0.230796227912229,-2.26180303353984,-299.250389110996
738472.36727049294859170914,0.184636982329783,-2.2987304300058,-299.176534318064
738472.36727058340329676867,0.193868831446272,-2.28949858088931,-299.241157261879
738472.36727067385800182819,0.175405133213294,-2.31719412823878,-299.241157261879
738472.36727076431270688772,0.101550340281381,-2.33565782647175,-299.222693563646
738472.36727085476741194725,0.0461592455824458,-2.32642597735527,-299.231925412763
738472.36727094510570168495,0.064622943815424,-2.31719412823878,-299.231925412763
738472.36727103556040674448,0.0553910946989349,-2.30796227912229,-299.222693563646
738472.36727112601511180401,-0.0369273964659566,-2.39104892117069,-299.259620960112
738472.36727121646981686354,-0.0276955473494674,-2.3818170720542,-299.259620960112
738472.36727130692452192307,0.00923184911648915,-2.35412152470473,-299.296548356578
738472.36727139726281166077,-0.00923184911648915,-2.34488967558824,-299.231925412763
738472.36727148771751672029,-0.0184636982329783,-2.39104892117069,-299.241157261879
738472.36727157817222177982,0.00923184911648915,-2.32642597735527,-299.259620960112
738472.36727166862692683935,-0.00923184911648915,-2.34488967558824,-299.21346171453
738472.36727175908163189888,-0.0553910946989349,-2.36335337382122,-299.250389110996
738472.36727184941992163658,-0.0923184911648915,-2.37258522293771,-299.268852809229
738472.36727193987462669611,-0.00923184911648915,-2.2987304300058,-299.241157261879
738472.36727203032933175564,0.120014038514359,-2.26180303353984,-299.204229865413
738472.36727212078403681517,0.535447248756371,-2.17871639149144,-299.204229865413
738472.36727221123874187469,1.23706778160955,-2.34488967558824,-299.176534318064
738472.36727230157703161240,1.62480544450209,-2.49259926145207,-299.130375072481
738472.36727239203173667192,0.987807855464339,-2.60338145084994,-299.241157261879
738472.36727248248644173145,0.240028077028718,-2.73262733848079,-299.259620960112
738472.36727257294114679098,-0.276955473494675,-2.71416364024781,-299.204229865413
738472.36727266339585185051,-0.304651020844142,-2.49259926145207,-299.121143223365
738472.36727275373414158821,-0.230796227912229,-2.26180303353984,-299.158070619831
738472.36727284418884664774,-0.0738547929319132,-2.26180303353984,-299.176534318064
738472.36727293464355170727,0.0369273964659566,-2.25257118442335,-299.167302468947
738472.36727302509825676680,0.064622943815424,-2.2987304300058,-299.167302468947
738472.36727311555296182632,0.101550340281381,-2.2987304300058,-299.167302468947
738472.36727320589125156403,0.11078218939787,-2.30796227912229,-299.18576616718
738472.36727329634595662355,0.147709585863826,-2.24333933530686,-299.176534318064
738472.36727338680066168308,0.147709585863826,-2.26180303353984,-299.167302468947
738472.36727347725536674261,0.147709585863826,-2.28949858088931,-299.158070619831
738472.36727356771007180214,0.193868831446272,-2.28026673177282,-299.158070619831
738472.36727365816477686167,0.240028077028718,-2.20641193884091,-299.158070619831
738472.36727374850306659937,0.22156437879574,-2.25257118442335,-299.148838770714
738472.36727383895777165890,0.230796227912229,-2.27103488265633,-299.158070619831
738472.36727392941247671843,0.203100680562761,-2.25257118442335,-299.130375072481
738472.36727401986718177795,0.249259926145207,-2.24333933530686,-299.148838770714
738472.36727411032188683748,0.249259926145207,-2.24333933530686,-299.148838770714
738472.36727420066017657518,0.332346568193609,-2.17871639149144,-299.102679525132
738472.36727429111488163471,0.304651020844142,-2.20641193884091,-299.194998016297
738472.36727438156958669424,0.332346568193609,-2.23410748619037,-299.21346171453
738472.36727447202429175377,0.360042115543077,-2.16948454237495,-299.139606921598
738472.36727456247899681330,0.387737662892544,-2.13255714590899,-299.148838770714
738472.36727465281728655100,0.406201361125523,-2.13255714590899,-299.176534318064
738472.36727474327199161053,0.443128757591479,-2.11409344767602,-299.194998016297
738472.36727483372669667006,0.507751701406903,-2.04947050386059,-299.176534318064
738472.36727492418140172958,0.563142796105838,-2.02177495651112,-299.167302468947
738472.36727501463610678911,0.600070192571795,-1.98484756004517,-299.194998016297
738472.36727510497439652681,0.627765739921262,-1.96638386181219,-299.167302468947
738472.36727519542910158634,0.664693136387219,-1.93868831446272,-299.074983977782
738472.36727528588380664587,0.701620532853175,-1.9571520126957,-299.130375072481
738472.36727537633851170540,0.830866420484023,-1.83713797418134,-299.139606921598
738472.36727546679321676493,0.784707174901578,-1.89252906888028,-299.167302468947
738472.36727555713150650263,0.747779778435621,-1.94792016357921,-299.111911374248
738472.36727564758621156216,0.683156834620197,-1.99407940916166,-299.158070619831
738472.36727573804091662169,0.636997589037751,-2.03100680562761,-299.194998016297
738472.36727582849562168121,0.54467909787286,-2.06793420209357,-299.204229865413
738472.36727591895032674074,0.43389690847499,-2.16948454237495,-299.158070619831
738472.36727600940503180027,0.360042115543077,-2.17871639149144,-299.194998016297
738472.36727609974332153797,0.267723624378185,-2.22487563707389,-299.176534318064
738472.36727619019802659750,0.193868831446272,-2.26180303353984,-299.148838770714
738472.36727628065273165703,0.138477736747337,-2.2987304300058,-299.21346171453
738472.36727637110743671656,0.129245887630848,-2.2987304300058,-299.287316507462
738472.36727646156214177608,0.147709585863826,-2.31719412823878,-299.222693563646
738472.36727655190043151379,0.11078218939787,-2.32642597735527,-299.204229865413
738472.36727664235513657331,0.101550340281381,-2.30796227912229,-299.268852809229
738472.36727673280984163284,0.147709585863826,-2.27103488265633,-299.278084658345
738472.36727682326454669237,0.0923184911648915,-2.30796227912229,-299.231925412763
738472.36727691371925175190,0.0830866420484024,-2.35412152470473,-299.241157261879
738472.36727700405754148960,0.0923184911648915,-2.34488967558824,-299.250389110996
738472.36727709451224654913,0.120014038514359,-2.2987304300058,-299.204229865413
738472.36727718496695160866,0.11078218939787,-2.32642597735527,-299.204229865413
738472.36727727542165666819,0.147709585863826,-2.30796227912229,-299.148838770714
738472.36727736587636172771,0.0830866420484024,-2.33565782647175,-299.130375072481
738472.36727745621465146542,0.0923184911648915,-2.34488967558824,-299.130375072481
738472.36727754666935652494,0.156941434980316,-2.28026673177282,-299.18576616718
738472.36727763712406158447,0.120014038514359,-2.31719412823878,-299.139606921598
738472.36727772757876664400,0.120014038514359,-2.34488967558824,-299.176534318064
738472.36727781803347170353,0.101550340281381,-2.33565782647175,-299.204229865413
738472.36727790837176144123,0.138477736747337,-2.28026673177282,-299.18576616718
738472.36727799882646650076,0.0738547929319132,-2.35412152470473,-299.204229865413
738472.36727808928117156029,0.120014038514359,-2.31719412823878,-299.222693563646
738472.36727817973587661982,0.0923184911648915,-2.35412152470473,-299.231925412763
738472.36727827019058167934,0.120014038514359,-2.32642597735527,-299.21346171453
738472.36727836052887141705,0.0738547929319132,-2.32642597735527,-299.194998016297
738472.36727845098357647657,0.064622943815424,-2.35412152470473,-299.250389110996
738472.36727854143828153610,0.101550340281381,-2.30796227912229,-299.250389110996
738472.36727863189298659563,0.064622943815424,-2.36335337382122,-299.194998016297
738472.36727872234769165516,0.0461592455824458,-2.35412152470473,-299.241157261879
738472.36727881280239671469,0.0923184911648915,-2.31719412823878,-299.194998016297
738472.36727890314068645239,0.101550340281381,-2.31719412823878,-299.231925412763
738472.36727899359539151192,-0.00923184911648915,-2.4649037141026,-299.21346171453
738472.36727908405009657145,0.00923184911648915,-2.3818170720542,-299.231925412763
738472.36727917450480163097,0.0738547929319132,-2.33565782647175,-299.278084658345
738472.36727926495950669050,0.0461592455824458,-2.34488967558824,-299.241157261879
738472.36727935529779642820,0.0461592455824458,-2.34488967558824,-299.176534318064
738472.36727944575250148773,0.129245887630848,-2.28026673177282,-299.167302468947
738472.36727953620720654726,0.064622943815424,-2.36335337382122,-299.18576616718
738472.36727962666191160679,0.0184636982329783,-2.40028077028718,-299.111911374248
738472.36727971711661666632,0.00923184911648915,-2.37258522293771,-299.074983977782
738472.36727980745490640402,0.0184636982329783,-2.36335337382122,-299.222693563646
738472.36727989790961146355,0.0276955473494674,-2.36335337382122,-299.250389110996
738472.36727998836431652308,0.0553910946989349,-2.36335337382122,-299.231925412763
738472.36728007881902158260,0.064622943815424,-2.34488967558824,-299.278084658345
738472.36728016927372664213,0.11078218939787,-2.30796227912229,-299.259620960112
738472.36728025961201637983,-0.00923184911648915,-2.39104892117069,-299.204229865413
738472.36728035006672143936,0,-2.39104892117069,-299.259620960112
738472.36728044052142649889,0.0184636982329783,-2.3818170720542,-299.296548356578
738472.36728053097613155842,0.0369273964659566,-2.37258522293771,-299.176534318064
738472.36728062143083661795,0.0276955473494674,-2.37258522293771,-299.259620960112
738472.36728071176912635565,0.064622943815424,-2.35412152470473,-299.278084658345
738472.36728080222383141518,0.0923184911648915,-2.31719412823878,-299.194998016297
738472.36728089267853647470,0.0184636982329783,-2.3818170720542,-299.148838770714
738472.36728098313324153423,-0.00923184911648915,-2.39104892117069,-299.204229865413
738472.36728107358794659376,0.0184636982329783,-2.37258522293771,-299.21346171453
738472.36728116392623633146,0.0369273964659566,-2.36335337382122,-299.18576616718
738472.36728125438094139099,0.0184636982329783,-2.37258522293771,-299.18576616718
738472.36728134483564645052,0.0184636982329783,-2.3818170720542,-299.21346171453
738472.36728143529035151005,0.0184636982329783,-2.36335337382122,-299.21346171453
738472.36728152574505656958,0.0276955473494674,-2.3818170720542,-299.194998016297
738472.36728161619976162910,0.193868831446272,-2.23410748619037,-299.167302468947
738472.36728170653805136681,0.00923184911648915,-2.36335337382122,-299.18576616718
738472.36728179699275642633,0.0369273964659566,-2.37258522293771,-299.21346171453
738472.36728188744746148586,0.120014038514359,-2.30796227912229,-299.222693563646
738472.36728197790216654539,0.156941434980316,-2.28949858088931,-299.18576616718
738472.36728206835687160492,0.203100680562761,-2.33565782647175,-299.18576616718
738472.36728215869516134262,0.258491775261696,-2.30796227912229,-299.204229865413
738472.36728224914986640215,0.258491775261696,-2.22487563707389,-299.222693563646
738472.36728233960457146168,0.166173284096805,-2.30796227912229,-299.21346171453
738472.36728243005927652121,0.147709585863826,-2.2987304300058,-299.241157261879
738472.36728252051398158073,0.156941434980316,-2.2987304300058,-299.250389110996
738472.36728261085227131844,0.064622943815424,-2.36335337382122,-299.18576616718
738472.36728270130697637796,0.0553910946989349,-2.33565782647175,-299.222693563646
738472.36728279176168143749,0.0184636982329783,-2.36335337382122,-299.222693563646
738472.36728288221638649702,-0.00923184911648915,-2.37258522293771,-299.231925412763
738472.36728297267109155655,-0.0184636982329783,-2.36335337382122,-299.194998016297
738472.36728306300938129425,-0.00923184911648915,-2.3818170720542,-299.250389110996
738472.36728315346408635378,-0.00923184911648915,-2.36335337382122,-299.250389110996
738472.36728324391879141331,0.00923184911648915,-2.32642597735527,-299.111911374248
738472.36728333437349647284,0,-2.32642597735527,-299.21346171453
738472.36728342482820153236,-0.0553910946989349,-2.39104892117069,-299.259620960112
738472.36728351516649127007,0.00923184911648915,-2.34488967558824,-299.259620960112
738472.36728360562119632959,-0.0369273964659566,-2.3818170720542,-299.268852809229
738472.36728369607590138912,-0.101550340281381,-2.39104892117069,-299.268852809229
738472.36728378653060644865,-0.0923184911648915,-2.33565782647175,-299.259620960112
738472.36728387698531150818,0.0923184911648915,-2.23410748619037,-299.231925412763
738472.36728396744001656771,0.360042115543077,-2.22487563707389,-299.18576616718
738472.36728405777830630541,0.969344157231361,-2.31719412823878,-299.18576616718
738472.36728414823301136494,1.57864619891964,-2.48336741233558,-299.204229865413
738472.36728423868771642447,1.08935819574572,-2.52952665791803,-299.084215826899
738472.36728432914242148399,0.341578417310099,-2.66800439466536,-299.305780205695
738472.36728441959712654352,-0.240028077028718,-2.71416364024781,-299.37040314951
738472.36728450993541628122,-0.360042115543077,-2.52952665791803,-299.315012054811
738472.36728460039012134075,-0.313882869960631,-2.2987304300058,-299.222693563646
738472.36728469084482640028,-0.193868831446272,-2.26180303353984,-299.231925412763
738472.36728478129953145981,-0.064622943815424,-2.2987304300058,-299.231925412763
738472.36728487175423651934,0.0830866420484024,-2.25257118442335,-299.148838770714
738472.36728496209252625704,0.11078218939787,-2.25257118442335,-299.148838770714
738472.36728505254723131657,0.0738547929319132,-2.28026673177282,-299.158070619831
738472.36728514300193637609,0.064622943815424,-2.28026673177282,-299.158070619831
738472.36728523345664143562,0.0830866420484024,-2.30796227912229,-299.148838770714
738472.36728532391134649515,0.101550340281381,-2.28949858088931,-299.194998016297
738472.36728541424963623285,0.184636982329783,-2.24333933530686,-299.241157261879
738472.36728550470434129238,0.120014038514359,-2.30796227912229,-299.250389110996
738472.36728559515904635191,0.166173284096805,-2.26180303353984,-299.167302468947
738472.36728568561375141144,0.184636982329783,-2.23410748619037,-299.18576616718
738472.36728577606845647097,0.22156437879574,-2.23410748619037,-299.167302468947
738472.36728586640674620867,0.258491775261696,-2.2156437879574,-299.176534318064
738472.36728595686145126820,0.21233252967925,-2.25257118442335,-299.167302468947
738472.36728604731615632772,0.21233252967925,-2.28949858088931,-299.176534318064
738472.36728613777086138725,0.286187322611164,-2.23410748619037,-299.148838770714
738472.36728622822556644678,0.332346568193609,-2.14178899502548,-299.130375072481
738472.36728631856385618448,0.313882869960631,-2.17871639149144,-299.148838770714
738472.36728640901856124401,0.313882869960631,-2.18794824060793,-299.204229865413
738472.36728649947326630354,0.369273964659566,-2.16025269325846,-299.167302468947
738472.36728658992797136307,0.480056154057436,-2.0402386547441,-299.139606921598
738472.36728668038267642260,0.424665059358501,-2.11409344767602,-299.001129184851
738472.36728677083738148212,0.470824304940947,-2.08639790032655,-299.0288247322
738472.36728686117567121983,0.507751701406903,-2.04947050386059,-299.130375072481
738472.36728695163037627935,0.600070192571795,-1.98484756004517,-299.121143223365
738472.36728704208508133888,0.618533890804773,-1.93868831446272,-299.102679525132
738472.36728713253978639841,0.636997589037751,-1.96638386181219,-299.130375072481
738472.36728722299449145794,0.65546128727073,-1.97561571092868,-299.121143223365
738472.36728731333278119564,0.710852381969665,-1.91099276711325,-299.111911374248
738472.36728740378748625517,0.720084231086154,-1.90176091799676,-299.176534318064
738472.36728749424219131470,0.673924985503708,-1.94792016357921,-299.139606921598
738472.36728758469689637423,0.590838343455306,-2.02177495651112,-299.093447676016
738472.36728767515160143375,0.516983550523392,-2.03100680562761,-299.18576616718
738472.36728776548989117146,0.369273964659566,-2.14178899502548,-299.21346171453
738472.36728785594459623098,0.295419171727653,-2.19718008972442,-299.204229865413
738472.36728794639930129051,0.240028077028718,-2.20641193884091,-299.21346171453
738472.36728803685400635004,0.175405133213294,-2.25257118442335,-299.231925412763
738472.36728812730871140957,0.129245887630848,-2.2987304300058,-299.241157261879
738472.36728821764700114727,0.0923184911648915,-2.30796227912229,-299.21346171453
738472.36728830810170620680,0.101550340281381,-2.27103488265633,-299.259620960112
738472.36728839855641126633,0.0369273964659566,-2.37258522293771,-299.241157261879
738472.36728848901111632586,0.064622943815424,-2.32642597735527,-299.176534318064
738472.36728857946582138538,0.0923184911648915,-2.31719412823878,-299.241157261879
738472.36728866980411112309,0.0923184911648915,-2.31719412823878,-299.241157261879
738472.36728876025881618261,0.0461592455824458,-2.33565782647175,-299.231925412763
738472.36728885071352124214,0.064622943815424,-2.34488967558824,-299.176534318064
738472.36728894116822630167,0.0738547929319132,-2.32642597735527,-299.259620960112
738472.36728903162293136120,0.0830866420484024,-2.30796227912229,-299.241157261879
738472.36728912196122109890,0.0738547929319132,-2.32642597735527,-299.176534318064
738472.36728921241592615843,0.0830866420484024,-2.32642597735527,-299.241157261879
738472.36728930287063121796,0.120014038514359,-2.2987304300058,-299.222693563646
738472.36728939332533627748,0.101550340281381,-2.2987304300058,-299.167302468947
738472.36728948378004133701,0.0923184911648915,-2.30796227912229,-299.176534318064
738472.36728957423474639654,0.064622943815424,-2.31719412823878,-299.204229865413
738472.36728966457303613424,0.0923184911648915,-2.28949858088931,-299.176534318064
738472.36728975502774119377,0.064622943815424,-2.32642597735527,-299.231925412763
738472.36728984548244625330,0.0738547929319132,-2.33565782647175,-299.18576616718
738472.36728993593715131283,0.0369273964659566,-2.33565782647175,-299.18576616718
738472.36729002639185637236,0.064622943815424,-2.30796227912229,-299.18576616718
738472.36729011673014611006,0.0553910946989349,-2.2987304300058,-299.167302468947
738472.36729020718485116959,0.0553910946989349,-2.30796227912229,-299.084215826899
738472.36729029763955622911,0.00923184911648915,-2.36335337382122,-299.194998016297
738472.36729038809426128864,0.0369273964659566,-2.35412152470473,-299.21346171453
738472.36729047854896634817,0.0276955473494674,-2.32642597735527,-299.231925412763
738472.36729056888725608587,-0.0276955473494674,-2.3818170720542,-299.250389110996
738472.36729065934196114540,0,-2.34488967558824,-299.259620960112
738472.36729074979666620493,0.00923184911648915,-2.33565782647175,-299.250389110996
738472.36729084025137126446,0.0830866420484024,-2.27103488265633,-299.250389110996
738472.36729093070607632399,0,-2.34488967558824,-299.241157261879
738472.36729102104436606169,-0.0461592455824458,-2.39104892117069,-299.222693563646
738472.36729111149907112122,-0.00923184911648915,-2.35412152470473,-299.204229865413
738472.36729120195377618074,-0.0184636982329783,-2.36335337382122,-299.222693563646
738472.36729129240848124027,-0.0184636982329783,-2.34488967558824,-299.194998016297
738472.36729138286318629980,0.0369273964659566,-2.2987304300058,-299.194998016297
738472.36729147320147603750,-0.0276955473494674,-2.36335337382122,-299.21346171453
738472.36729156365618109703,-0.0276955473494674,-2.36335337382122,-299.21346171453
738472.36729165411088615656,-0.0184636982329783,-2.35412152470473,-299.222693563646
738472.36729174456559121609,-0.0184636982329783,-2.37258522293771,-299.194998016297
738472.36729183502029627562,0.00923184911648915,-2.33565782647175,-299.268852809229
738472.36729192547500133514,0.00923184911648915,-2.32642597735527,-299.250389110996
738472.36729201581329107285,-0.0369273964659566,-2.35412152470473,-299.231925412763
738472.36729210626799613237,0.0184636982329783,-2.32642597735527,-299.268852809229
738472.36729219672270119190,-0.0461592455824458,-2.3818170720542,-299.250389110996
738472.36729228717740625143,-0.0369273964659566,-2.39104892117069,-299.241157261879
738472.36729237763211131096,-0.00923184911648915,-2.34488967558824,-299.241157261879
738472.36729246797040104866,0,-2.33565782647175,-299.250389110996
738472.36729255842510610819,-0.0276955473494674,-2.35412152470473,-299.259620960112
738472.36729264887981116772,-0.0184636982329783,-2.34488967558824,-299.250389110996
738472.36729273933451622725,0.00923184911648915,-2.33565782647175,-299.259620960112
738472.36729282978922128677,0.0184636982329783,-2.34488967558824,-299.268852809229
738472.36729292012751102448,0.00923184911648915,-2.33565782647175,-299.241157261879
738472.36729301058221608400,-0.0738547929319132,-2.39104892117069,-299.231925412763
738472.36729310103692114353,-0.0369273964659566,-2.36335337382122,-299.296548356578
738472.36729319149162620306,-0.0461592455824458,-2.36335337382122,-299.287316507462
738472.36729328194633126259,-0.0184636982329783,-2.36335337382122,-299.176534318064
738472.36729337228462100029,0.00923184911648915,-2.32642597735527,-299.176534318064
738472.36729346273932605982,-0.00923184911648915,-2.35412152470473,-299.176534318064
738472.36729355319403111935,0.064622943815424,-2.27103488265633,-299.148838770714
738472.36729364364873617887,-0.0461592455824458,-2.3818170720542,-299.18576616718
738472.36729373410344123840,-0.0553910946989349,-2.3818170720542,-299.121143223365
738472.36729382444173097610,-0.0461592455824458,-2.36335337382122,-299.158070619831
738472.36729391489643603563,0.00923184911648915,-2.30796227912229,-299.259620960112
738472.36729400535114109516,-0.0461592455824458,-2.39104892117069,-299.296548356578
738472.36729409580584615469,0.0276955473494674,-2.30796227912229,-299.204229865413
738472.36729418626055121422,0.0184636982329783,-2.30796227912229,-299.204229865413
738472.36729427659884095192,-0.0461592455824458,-2.36335337382122,-299.204229865413
738472.36729436705354601145,-0.0461592455824458,-2.36335337382122,-299.222693563646
738472.36729445750825107098,0.0923184911648915,-2.27103488265633,-299.18576616718
738472.36729454796295613050,0.0830866420484024,-2.28949858088931,-299.204229865413
738472.36729463841766119003,0.120014038514359,-2.30796227912229,-299.18576616718
738472.36729472887236624956,0.184636982329783,-2.2987304300058,-299.21346171453
738472.36729481921065598726,0.166173284096805,-2.2987304300058,-299.241157261879
738472.36729490966536104679,0.203100680562761,-2.22487563707389,-299.18576616718
738472.36729500012006610632,0.138477736747337,-2.26180303353984,-299.167302468947
738472.36729509057477116585,0.0923184911648915,-2.2987304300058,-299.204229865413
738472.36729518102947622538,0.0738547929319132,-2.30796227912229,-299.222693563646
738472.36729527136776596308,0,-2.35412152470473,-299.250389110996
738472.36729536182247102261,0.0369273964659566,-2.30796227912229,-299.21346171453
738472.36729545227717608213,-0.0184636982329783,-2.32642597735527,-299.204229865413
738472.36729554273188114166,-0.0738547929319132,-2.37258522293771,-299.259620960112
738472.36729563318658620119,0,-2.2987304300058,-299.259620960112
738472.36729572352487593889,-0.0830866420484024,-2.36335337382122,-299.241157261879
738472.36729581397958099842,-0.0830866420484024,-2.37258522293771,-299.21346171453
738472.36729590443428605795,-0.101550340281381,-2.37258522293771,-299.241157261879
738472.36729599488899111748,-0.0738547929319132,-2.36335337382122,-299.250389110996
738472.36729608534369617701,-0.0276955473494674,-2.30796227912229,-299.204229865413
738472.36729617568198591471,-0.0461592455824458,-2.33565782647175,-299.231925412763
738472.36729626613669097424,-0.0276955473494674,-2.30796227912229,-299.268852809229
738472.36729635659139603376,-0.147709585863826,-2.34488967558824,-299.259620960112
738472.36729644704610109329,-0.11078218939787,-2.31719412823878,-299.21346171453
738472.36729653750080615282,0.0923184911648915,-2.24333933530686,-299.222693563646
738472.36729662783909589052,0.636997589037751,-2.18794824060793,-299.176534318064
