time_dn,ecg_projection_ll_ra_mV,ecg_projection_la_ra_mV,ecg_projection_vx_rl_mV
738509.42130135814659297466,-8.03170873134556,-7.21007415997803,-297.514801477096
738509.42130144860129803419,-8.07786797692801,-7.21930600909452,-297.440946684164
738509.42130153905600309372,-8.16095461897641,-7.23776970732749,-297.505569627979
738509.42130162951070815325,-8.20711386455885,-7.23776970732749,-297.524033326212
738509.42130171996541321278,-8.24404126102481,-7.25623340556047,-297.505569627979
738509.42130181042011827230,-8.22557756279183,-7.25623340556047,-297.468642231513
738509.42130190075840801001,-8.21634571367534,-7.23776970732749,-297.505569627979
738509.42130199121311306953,-8.22557756279183,-7.25623340556047,-297.514801477096
738509.42130208166781812906,-8.26250495925779,-7.28392895290994,-297.440946684164
738509.42130217212252318859,-8.2532731101413,-7.27469710379345,-297.533265175329
738509.42130226257722824812,-8.27173680837428,-7.27469710379345,-297.505569627979
738509.42130235303193330765,-8.29943235572375,-7.28392895290994,-297.413251136814
738509.42130244348663836718,-8.39175084688864,-7.26546525467696,-297.47787408063
738509.42130253394134342670,-8.3363597521897,-7.21007415997803,-297.487105929746
738509.42130262439604848623,-7.7455214087344,-7.10852381969665,-297.45017853328
738509.42130271485075354576,-7.25623340556047,-6.9792779320658,-297.385555589465
738509.42130280518904328346,-6.93311868648335,-6.99774163029878,-297.404019287698
738509.42130289564374834299,-7.09929197058016,-6.93311868648335,-297.385555589465
738509.42130298609845340252,-8.17941831720939,-6.91465498825037,-297.385555589465
738509.42130307655315846205,-8.42867824335459,-7.09929197058016,-297.431714835047
738509.42130316700786352158,-8.38251899777215,-7.12698751792962,-297.468642231513
738509.42130325746256858110,-8.30866420484024,-7.21007415997803,-297.533265175329
738509.42130334791727364063,-8.29943235572375,-7.25623340556047,-297.505569627979
738509.42130343837197870016,-8.29943235572375,-7.26546525467696,-297.422482985931
738509.42130352882668375969,-8.26250495925779,-7.24700155644398,-297.47787408063
738509.42130361928138881922,-8.29020050660726,-7.27469710379345,-297.487105929746
738509.42130370961967855692,-8.28096865749077,-7.26546525467696,-297.487105929746
738509.42130380007438361645,-8.27173680837428,-7.25623340556047,-297.394787438581
738509.42130389052908867598,-8.27173680837428,-7.25623340556047,-297.422482985931
738509.42130398098379373550,-8.24404126102481,-7.228537858211,-297.431714835047
738509.42130407143849879503,-8.2532731101413,-7.25623340556047,-297.496337778863
738509.42130416189320385456,-8.27173680837428,-7.27469710379345,-297.47787408063
738509.42130425234790891409,-8.2532731101413,-7.25623340556047,-297.514801477096
738509.42130434280261397362,-8.23480941190832,-7.23776970732749,-297.47787408063
738509.42130443325731903315,-8.23480941190832,-7.23776970732749,-297.505569627979
738509.42130452359560877085,-8.22557756279183,-7.23776970732749,-297.524033326212
738509.42130461405031383038,-8.21634571367534,-7.21007415997803,-297.440946684164
738509.42130470450501888990,-8.19788201544237,-7.19161046174505,-297.422482985931
738509.42130479495972394943,-8.17941831720939,-7.18237861262856,-297.45017853328
738509.42130488541442900896,-8.16095461897641,-7.17314676351207,-297.496337778863
738509.42130497586913406849,-8.15172276985992,-7.15468306527909,-297.533265175329
738509.42130506632383912802,-8.13325907162694,-7.13621936704611,-297.496337778863
738509.42130515677854418755,-8.09633167516098,-7.11775566881313,-297.440946684164
738509.42130524723324924707,-8.07786797692801,-7.09006012146367,-297.487105929746
738509.42130533768795430660,-8.05017242957854,-7.07159642323069,-297.496337778863
738509.42130542802624404430,-8.04094058046205,-7.0623645741142,-297.385555589465
738509.42130551848094910383,-8.01324503311258,-7.03466902676473,-297.47787408063
738509.42130560893565416336,-8.00401318399609,-7.03466902676473,-297.487105929746
738509.42130569939035922289,-8.01324503311258,-7.07159642323069,-297.45017853328
738509.42130578984506428242,-8.03170873134556,-7.10852381969665,-297.404019287698
738509.42130588029976934195,-8.05017242957854,-7.15468306527909,-297.413251136814
738509.42130597075447440147,-8.0870998260445,-7.18237861262856,-297.404019287698
738509.42130606120917946100,-8.11479537339396,-7.19161046174505,-297.404019287698
738509.42130615166388452053,-8.14249092074343,-7.21930600909452,-297.459410382397
738509.42130624211858958006,-8.15172276985992,-7.23776970732749,-297.514801477096
738509.42130633245687931776,-8.18865016632588,-7.26546525467696,-297.468642231513
738509.42130642291158437729,-8.19788201544237,-7.24700155644398,-297.514801477096
738509.42130651336628943682,-8.20711386455885,-7.26546525467696,-297.551728873562
738509.42130660382099449635,-8.19788201544237,-7.24700155644398,-297.496337778863
738509.42130669427569955587,-8.19788201544237,-7.25623340556047,-297.505569627979
738509.42130678473040461540,-8.19788201544237,-7.26546525467696,-297.47787408063
738509.42130687518510967493,-8.21634571367534,-7.26546525467696,-297.459410382397
738509.42130696563981473446,-8.20711386455885,-7.26546525467696,-297.459410382397
738509.42130705609451979399,-8.20711386455885,-7.26546525467696,-297.468642231513
738509.42130714654922485352,-8.22557756279183,-7.27469710379345,-297.47787408063
738509.42130723688751459122,-8.21634571367534,-7.26546525467696,-297.487105929746
738509.42130732734221965075,-8.21634571367534,-7.25623340556047,-297.404019287698
738509.42130741779692471027,-8.19788201544237,-7.25623340556047,-297.376323740348
738509.42130750825162976980,-8.20711386455885,-7.26546525467696,-297.468642231513
738509.42130759870633482933,-8.18865016632588,-7.24700155644398,-297.47787408063
738509.42130768916103988886,-8.17941831720939,-7.24700155644398,-297.47787408063
738509.42130777961574494839,-8.20711386455885,-7.26546525467696,-297.505569627979
738509.42130787007045000792,-8.20711386455885,-7.25623340556047,-297.459410382397
738509.42130796052515506744,-8.18865016632588,-7.24700155644398,-297.468642231513
738509.42130805086344480515,-8.1701864680929,-7.228537858211,-297.487105929746
738509.42130814131814986467,-8.20711386455885,-7.27469710379345,-297.496337778863
738509.42130823177285492420,-8.22557756279183,-7.27469710379345,-297.496337778863
738509.42130832222755998373,-8.20711386455885,-7.25623340556047,-297.487105929746
738509.42130841268226504326,-8.22557756279183,-7.27469710379345,-297.533265175329
738509.42130850313697010279,-8.22557756279183,-7.26546525467696,-297.542497024445
738509.42130859359167516232,-8.20711386455885,-7.25623340556047,-297.47787408063
738509.42130868404638022184,-8.20711386455885,-7.25623340556047,-297.524033326212
738509.42130877450108528137,-8.22557756279183,-7.28392895290994,-297.542497024445
738509.42130886495579034090,-8.21634571367534,-7.27469710379345,-297.524033326212
738509.42130895529408007860,-8.18865016632588,-7.24700155644398,-297.47787408063
738509.42130904574878513813,-8.15172276985992,-7.24700155644398,-297.524033326212
738509.42130913620349019766,-8.11479537339396,-7.21930600909452,-297.524033326212
738509.42130922665819525719,-8.09633167516098,-7.228537858211,-297.468642231513
738509.42130931711290031672,-8.09633167516098,-7.24700155644398,-297.533265175329
738509.42130940756760537624,-8.07786797692801,-7.23776970732749,-297.533265175329
738509.42130949802231043577,-8.05940427869503,-7.228537858211,-297.524033326212
738509.42130958847701549530,-8.06863612781152,-7.21930600909452,-297.505569627979
738509.42130967893172055483,-8.11479537339396,-7.228537858211,-297.524033326212
738509.42130976938642561436,-8.16095461897641,-7.23776970732749,-297.514801477096
738509.42130985972471535206,-8.21634571367534,-7.24700155644398,-297.505569627979
738509.42130995017942041159,-8.24404126102481,-7.27469710379345,-297.551728873562
738509.42131004063412547112,-8.2532731101413,-7.28392895290994,-297.570192571795
738509.42131013108883053064,-8.26250495925779,-7.28392895290994,-297.47787408063
738509.42131022154353559017,-8.29020050660726,-7.29316080202643,-297.524033326212
738509.42131031199824064970,-8.27173680837428,-7.29316080202643,-297.542497024445
738509.42131040245294570923,-8.29020050660726,-7.29316080202643,-297.496337778863
738509.42131049290765076876,-8.27173680837428,-7.29316080202643,-297.560960722678
738509.42131058336235582829,-8.29943235572375,-7.30239265114292,-297.468642231513
738509.42131067370064556599,-8.37328714865566,-7.28392895290994,-297.47787408063
738509.42131076415535062551,-8.43791009247108,-7.25623340556047,-297.431714835047
738509.42131085461005568504,-8.20711386455885,-7.20084231086154,-297.404019287698
738509.42131094506476074457,-7.58857997375408,-7.09006012146367,-297.265541550951
738509.42131103551946580410,-7.20084231086154,-6.9792779320658,-297.394787438581
738509.42131112597417086363,-7.02543717764824,-6.98850978118229,-297.376323740348
738509.42131121642887592316,-7.57934812463759,-6.84080019531846,-297.394787438581
738509.42131130688358098269,-8.44714194158757,-7.01620532853175,-297.459410382397
738509.42131139733828604221,-8.41021454512162,-7.11775566881313,-297.459410382397
738509.42131148779299110174,-8.29943235572375,-7.20084231086154,-297.487105929746
738509.42131157813128083944,-8.29943235572375,-7.26546525467696,-297.505569627979
738509.42131166858598589897,-8.29020050660726,-7.27469710379345,-297.524033326212
738509.42131175904069095850,-8.29943235572375,-7.28392895290994,-297.487105929746
738509.42131184949539601803,-8.29943235572375,-7.29316080202643,-297.487105929746
738509.42131193995010107756,-8.30866420484024,-7.30239265114292,-297.514801477096
738509.42131203040480613708,-8.28096865749077,-7.28392895290994,-297.468642231513
738509.42131212085951119661,-8.28096865749077,-7.28392895290994,-297.468642231513
738509.42131221131421625614,-8.27173680837428,-7.28392895290994,-297.505569627979
738509.42131230176892131567,-8.26250495925779,-7.27469710379345,-297.468642231513
738509.42131239222362637520,-8.24404126102481,-7.27469710379345,-297.468642231513
738509.42131248256191611290,-8.2532731101413,-7.27469710379345,-297.45017853328
738509.42131257301662117243,-8.22557756279183,-7.24700155644398,-297.459410382397
738509.42131266347132623196,-8.21634571367534,-7.23776970732749,-297.487105929746
738509.42131275392603129148,-8.23480941190832,-7.25623340556047,-297.524033326212
738509.42131284438073635101,-8.21634571367534,-7.23776970732749,-297.514801477096
738509.42131293483544141054,-8.20711386455885,-7.23776970732749,-297.533265175329
738509.42131302529014647007,-8.17941831720939,-7.21007415997803,-297.45017853328
738509.42131311574485152960,-8.16095461897641,-7.19161046174505,-297.505569627979
738509.42131320619955658913,-8.12402722251045,-7.16391491439558,-297.524033326212
738509.42131329665426164865,-8.10556352427747,-7.1454512161626,-297.459410382397
738509.42131338699255138636,-8.06863612781152,-7.11775566881313,-297.487105929746
738509.42131347744725644588,-8.04094058046205,-7.09006012146367,-297.487105929746
738509.42131356790196150541,-8.00401318399609,-7.05313272499771,-297.47787408063
738509.42131365835666656494,-7.97631763664663,-7.04390087588122,-297.47787408063
738509.42131374881137162447,-7.98554948576311,-7.05313272499771,-297.514801477096
738509.42131383926607668400,-7.98554948576311,-7.04390087588122,-297.496337778863
738509.42131392972078174353,-7.97631763664663,-7.0623645741142,-297.45017853328
738509.42131402017548680305,-7.97631763664663,-7.08082827234718,-297.47787408063
738509.42131411063019186258,-8.00401318399609,-7.12698751792962,-297.514801477096
738509.42131420096848160028,-8.04094058046205,-7.17314676351207,-297.394787438581
738509.42131429142318665981,-8.07786797692801,-7.21007415997803,-297.459410382397
738509.42131438187789171934,-8.09633167516098,-7.21930600909452,-297.274773400067
738509.42131447233259677887,-8.13325907162694,-7.24700155644398,-297.302468947417
738509.42131456278730183840,-8.14249092074343,-7.24700155644398,-297.394787438581
738509.42131465324200689793,-8.15172276985992,-7.25623340556047,-297.514801477096
738509.42131474369671195745,-8.15172276985992,-7.25623340556047,-297.551728873562
738509.42131483415141701698,-8.1701864680929,-7.25623340556047,-297.570192571795
738509.42131492460612207651,-8.16095461897641,-7.27469710379345,-297.524033326212
738509.42131501506082713604,-8.16095461897641,-7.26546525467696,-297.560960722678
738509.42131510539911687374,-8.15172276985992,-7.26546525467696,-297.551728873562
738509.42131519585382193327,-8.16095461897641,-7.27469710379345,-297.487105929746
738509.42131528630852699280,-8.16095461897641,-7.28392895290994,-297.533265175329
738509.42131537676323205233,-8.16095461897641,-7.26546525467696,-297.505569627979
738509.42131546721793711185,-8.15172276985992,-7.26546525467696,-297.514801477096
738509.42131555767264217138,-8.14249092074343,-7.26546525467696,-297.47787408063
738509.42131564812734723091,-8.14249092074343,-7.25623340556047,-297.505569627979
738509.42131573858205229044,-8.13325907162694,-7.24700155644398,-297.487105929746
738509.42131582903675734997,-8.13325907162694,-7.24700155644398,-297.468642231513
738509.42131591949146240950,-8.13325907162694,-7.25623340556047,-297.45017853328
738509.42131600982975214720,-8.13325907162694,-7.24700155644398,-297.533265175329
738509.42131610028445720673,-8.14249092074343,-7.26546525467696,-297.542497024445
738509.42131619073916226625,-8.13325907162694,-7.25623340556047,-297.551728873562
738509.42131628119386732578,-8.13325907162694,-7.24700155644398,-297.579424420911
738509.42131637164857238531,-8.15172276985992,-7.27469710379345,-297.542497024445
738509.42131646210327744484,-8.14249092074343,-7.26546525467696,-297.45017853328
738509.42131655255798250437,-8.14249092074343,-7.26546525467696,-297.514801477096
738509.42131664301268756390,-8.15172276985992,-7.26546525467696,-297.524033326212
738509.42131673346739262342,-8.14249092074343,-7.25623340556047,-297.533265175329
738509.42131682380568236113,-8.14249092074343,-7.26546525467696,-297.570192571795
738509.42131691426038742065,-8.14249092074343,-7.25623340556047,-297.579424420911
738509.42131700471509248018,-8.15172276985992,-7.27469710379345,-297.496337778863
738509.42131709516979753971,-8.15172276985992,-7.26546525467696,-297.542497024445
738509.42131718562450259924,-8.14249092074343,-7.25623340556047,-297.551728873562
738509.42131727607920765877,-8.16095461897641,-7.26546525467696,-297.496337778863
738509.42131736653391271830,-8.16095461897641,-7.26546525467696,-297.524033326212
738509.42131745698861777782,-8.1701864680929,-7.28392895290994,-297.505569627979
738509.42131754744332283735,-8.17941831720939,-7.30239265114292,-297.533265175329
738509.42131763789802789688,-8.15172276985992,-7.27469710379345,-297.551728873562
738509.42131772823631763458,-8.14249092074343,-7.26546525467696,-297.560960722678
738509.42131781869102269411,-8.09633167516098,-7.26546525467696,-297.524033326212
738509.42131790914572775364,-8.0870998260445,-7.24700155644398,-297.385555589465
738509.42131799960043281317,-8.03170873134556,-7.21930600909452,-297.468642231513
738509.42131809005513787270,-8.00401318399609,-7.24700155644398,-297.524033326212
738509.42131818050984293222,-7.9947813348796,-7.228537858211,-297.560960722678
738509.42131827096454799175,-7.98554948576311,-7.21930600909452,-297.551728873562
738509.42131836141925305128,-7.98554948576311,-7.21930600909452,-297.588656270028
738509.42131845187395811081,-8.04094058046205,-7.23776970732749,-297.551728873562
738509.42131854232866317034,-8.0870998260445,-7.23776970732749,-297.496337778863
738509.42131863266695290804,-8.14249092074343,-7.24700155644398,-297.570192571795
738509.42131872312165796757,-8.19788201544237,-7.27469710379345,-297.579424420911
738509.42131881357636302710,-8.19788201544237,-7.29316080202643,-297.514801477096
738509.42131890403106808662,-8.21634571367534,-7.30239265114292,-297.560960722678
738509.42131899448577314615,-8.21634571367534,-7.28392895290994,-297.588656270028
738509.42131908494047820568,-8.21634571367534,-7.29316080202643,-297.560960722678
738509.42131917539518326521,-8.21634571367534,-7.29316080202643,-297.570192571795
738509.42131926584988832474,-8.21634571367534,-7.29316080202643,-297.551728873562
738509.42131935630459338427,-8.21634571367534,-7.29316080202643,-297.570192571795
738509.42131944675929844379,-8.27173680837428,-7.30239265114292,-297.505569627979
738509.42131953709758818150,-8.37328714865566,-7.24700155644398,-297.570192571795
738509.42131962755229324102,-8.05940427869503,-7.20084231086154,-297.551728873562
738509.42131971800699830055,-7.50549333170568,-7.09006012146367,-297.422482985931
738509.42131980846170336008,-7.16391491439558,-7.00697347941527,-297.487105929746
738509.42131989891640841961,-7.09006012146367,-6.97004608294931,-297.47787408063
738509.42131998937111347914,-7.76398510696738,-6.76694540238655,-297.440946684164
738509.42132007982581853867,-8.41021454512162,-7.00697347941527,-297.533265175329
738509.42132017028052359819,-8.30866420484024,-7.11775566881313,-297.542497024445
738509.42132026073522865772,-8.26250495925779,-7.18237861262856,-297.579424420911
738509.42132035107351839542,-8.22557756279183,-7.24700155644398,-297.505569627979
738509.42132044152822345495,-8.24404126102481,-7.28392895290994,-297.551728873562
738509.42132053198292851448,-8.23480941190832,-7.30239265114292,-297.588656270028
738509.42132062243763357401,-8.24404126102481,-7.30239265114292,-297.579424420911
738509.42132071289233863354,-8.24404126102481,-7.30239265114292,-297.560960722678
738509.42132080334704369307,-8.21634571367534,-7.28392895290994,-297.570192571795
738509.42132089380174875259,-8.21634571367534,-7.29316080202643,-297.597888119144
738509.42132098425645381212,-8.22557756279183,-7.30239265114292,-297.533265175329
738509.42132107471115887165,-8.23480941190832,-7.30239265114292,-297.524033326212
738509.42132116516586393118,-8.22557756279183,-7.28392895290994,-297.524033326212
738509.42132125550415366888,-8.22557756279183,-7.28392895290994,-297.542497024445
738509.42132134595885872841,-8.19788201544237,-7.27469710379345,-297.468642231513
738509.42132143641356378794,-8.19788201544237,-7.25623340556047,-297.339396343883
738509.42132152686826884747,-8.19788201544237,-7.26546525467696,-297.431714835047
738509.42132161732297390699,-8.18865016632588,-7.24700155644398,-297.47787408063
738509.42132170777767896652,-8.16095461897641,-7.228537858211,-297.440946684164
738509.42132179823238402605,-8.14249092074343,-7.20084231086154,-297.524033326212
738509.42132188868708908558,-8.14249092074343,-7.21007415997803,-297.505569627979
738509.42132197914179414511,-8.13325907162694,-7.19161046174505,-297.514801477096
738509.42132206959649920464,-8.07786797692801,-7.1454512161626,-297.514801477096
738509.42132215993478894234,-8.06863612781152,-7.12698751792962,-297.533265175329
738509.42132225038949400187,-8.04094058046205,-7.10852381969665,-297.542497024445
738509.42132234084419906139,-8.00401318399609,-7.07159642323069,-297.496337778863
738509.42132243129890412092,-7.9947813348796,-7.0623645741142,-297.524033326212
738509.42132252175360918045,-7.96708578753014,-7.04390087588122,-297.505569627979
738509.42132261220831423998,-7.97631763664663,-7.03466902676473,-297.514801477096
738509.42132270266301929951,-7.96708578753014,-7.0623645741142,-297.459410382397
738509.42132279311772435904,-7.96708578753014,-7.08082827234718,-297.496337778863
738509.42132288357242941856,-7.98554948576311,-7.10852381969665,-297.551728873562
738509.42132297402713447809,-8.01324503311258,-7.15468306527909,-297.524033326212
738509.42132306436542421579,-8.05017242957854,-7.18237861262856,-297.533265175329
738509.42132315482012927532,-8.0870998260445,-7.228537858211,-297.560960722678
738509.42132324527483433485,-8.11479537339396,-7.23776970732749,-297.588656270028
738509.42132333572953939438,-8.13325907162694,-7.25623340556047,-297.505569627979
738509.42132342618424445391,-8.15172276985992,-7.25623340556047,-297.570192571795
738509.42132351663894951344,-8.16095461897641,-7.25623340556047,-297.579424420911
738509.42132360709365457296,-8.15172276985992,-7.26546525467696,-297.505569627979
738509.42132369754835963249,-8.17941831720939,-7.27469710379345,-297.570192571795
738509.42132378800306469202,-8.1701864680929,-7.27469710379345,-297.579424420911
738509.42132387834135442972,-8.17941831720939,-7.27469710379345,-297.560960722678
738509.42132396879605948925,-8.18865016632588,-7.27469710379345,-297.542497024445
738509.42132405925076454878,-8.18865016632588,-7.27469710379345,-297.551728873562
738509.42132414970546960831,-8.19788201544237,-7.27469710379345,-297.597888119144
738509.42132424016017466784,-8.1701864680929,-7.26546525467696,-297.588656270028
738509.42132433061487972736,-8.1701864680929,-7.26546525467696,-297.505569627979
738509.42132442106958478689,-8.16095461897641,-7.26546525467696,-297.551728873562
738509.42132451152428984642,-8.16095461897641,-7.26546525467696,-297.607119968261
738509.42132460197899490595,-8.17941831720939,-7.26546525467696,-297.524033326212
738509.42132469243369996548,-8.18865016632588,-7.27469710379345,-297.560960722678
738509.42132478277198970318,-8.1701864680929,-7.26546525467696,-297.505569627979
738509.42132487322669476271,-8.17941831720939,-7.26546525467696,-297.505569627979
738509.42132496368139982224,-8.1701864680929,-7.26546525467696,-297.422482985931
738509.42132505413610488176,-8.1701864680929,-7.26546525467696,-297.468642231513
738509.42132514459080994129,-8.1701864680929,-7.26546525467696,-297.514801477096
738509.42132523504551500082,-8.18865016632588,-7.26546525467696,-297.496337778863
738509.42132532550022006035,-8.17941831720939,-7.26546525467696,-297.505569627979
738509.42132541595492511988,-8.17941831720939,-7.26546525467696,-297.505569627979
738509.42132550640963017941,-8.1701864680929,-7.26546525467696,-297.524033326212
738509.42132559686433523893,-8.17941831720939,-7.26546525467696,-297.570192571795
738509.42132568720262497663,-8.20711386455885,-7.28392895290994,-297.533265175329
738509.42132577765733003616,-8.20711386455885,-7.28392895290994,-297.524033326212
738509.42132586811203509569,-8.21634571367534,-7.28392895290994,-297.551728873562
738509.42132595856674015522,-8.20711386455885,-7.26546525467696,-297.551728873562
738509.42132604902144521475,-8.19788201544237,-7.26546525467696,-297.579424420911
738509.42132613947615027428,-8.20711386455885,-7.27469710379345,-297.570192571795
738509.42132622993085533381,-8.21634571367534,-7.29316080202643,-297.570192571795
738509.42132632038556039333,-8.22557756279183,-7.29316080202643,-297.588656270028
738509.42132641084026545286,-8.23480941190832,-7.27469710379345,-297.560960722678
738509.42132650117855519056,-8.1701864680929,-7.24700155644398,-297.607119968261
738509.42132659163326025009,-8.15172276985992,-7.26546525467696,-297.63481551561
738509.42132668208796530962,-8.13325907162694,-7.23776970732749,-297.514801477096
738509.42132677254267036915,-8.07786797692801,-7.228537858211,-297.579424420911
738509.42132686299737542868,-8.06863612781152,-7.25623340556047,-297.607119968261
738509.42132695345208048820,-8.06863612781152,-7.228537858211,-297.496337778863
738509.42132704390678554773,-8.04094058046205,-7.23776970732749,-297.514801477096
738509.42132713436149060726,-8.06863612781152,-7.21930600909452,-297.496337778863
738509.42132722481619566679,-8.12402722251045,-7.21930600909452,-297.496337778863
738509.42132731527090072632,-8.18865016632588,-7.228537858211,-297.487105929746
738509.42132740560919046402,-8.24404126102481,-7.25623340556047,-297.570192571795
738509.42132749606389552355,-8.2532731101413,-7.28392895290994,-297.588656270028
738509.42132758651860058308,-8.28096865749077,-7.31162450025941,-297.514801477096
738509.42132767697330564260,-8.28096865749077,-7.29316080202643,-297.560960722678
738509.42132776742801070213,-8.27173680837428,-7.28392895290994,-297.570192571795
738509.42132785788271576166,-8.26250495925779,-7.28392895290994,-297.597888119144
738509.42132794833742082119,-8.26250495925779,-7.30239265114292,-297.533265175329
738509.42132803879212588072,-8.27173680837428,-7.29316080202643,-297.570192571795
738509.42132812924683094025,-8.30866420484024,-7.28392895290994,-297.597888119144
738509.42132821970153599977,-8.35482345042268,-7.28392895290994,-297.514801477096
738509.42132831003982573748,-8.40098269600513,-7.23776970732749,-297.570192571795
738509.42132840049453079700,-7.95785393841365,-7.17314676351207,-297.533265175329
738509.42132849094923585653,-7.42240668965728,-7.01620532853175,-297.339396343883
738509.42132858140394091606,-7.07159642323069,-6.9792779320658,-297.2932370983
738509.42132867185864597559,-7.08082827234718,-6.97004608294931,-297.404019287698
738509.42132876231335103512,-8.05017242957854,-6.85926389355144,-297.459410382397
738509.42132885276805609465,-8.46560563982055,-7.08082827234718,-297.487105929746
738509.42132894322276115417,-8.39175084688864,-7.12698751792962,-297.524033326212
738509.42132903367746621370,-8.32712790307321,-7.21930600909452,-297.542497024445
738509.42132912413217127323,-8.32712790307321,-7.26546525467696,-297.570192571795
738509.42132921447046101093,-8.30866420484024,-7.26546525467696,-297.579424420911
738509.42132930492516607046,-8.31789605395672,-7.28392895290994,-297.533265175329
738509.42132939537987112999,-8.30866420484024,-7.28392895290994,-297.570192571795
738509.42132948583457618952,-8.30866420484024,-7.28392895290994,-297.533265175329
738509.42132957628928124905,-8.28096865749077,-7.27469710379345,-297.533265175329
738509.42132966674398630857,-8.29020050660726,-7.27469710379345,-297.533265175329
738509.42132975719869136810,-8.29020050660726,-7.27469710379345,-297.579424420911
738509.42132984765339642763,-8.27173680837428,-7.26546525467696,-297.570192571795
738509.42132993810810148716,-8.29020050660726,-7.27469710379345,-297.588656270028
738509.42133002844639122486,-8.29020050660726,-7.26546525467696,-297.579424420911
738509.42133011890109628439,-8.28096865749077,-7.25623340556047,-297.542497024445
738509.42133020935580134392,-8.27173680837428,-7.26546525467696,-297.551728873562
738509.42133029981050640345,-8.26250495925779,-7.23776970732749,-297.524033326212
738509.42133039026521146297,-8.26250495925779,-7.228537858211,-297.560960722678
738509.42133048071991652250,-8.21634571367534,-7.21930600909452,-297.560960722678
738509.42133057117462158203,-8.19788201544237,-7.19161046174505,-297.597888119144
738509.42133066162932664156,-8.20711386455885,-7.18237861262856,-297.579424420911
738509.42133075208403170109,-8.18865016632588,-7.16391491439558,-297.524033326212
738509.42133084253873676062,-8.14249092074343,-7.13621936704611,-297.560960722678
738509.42133093287702649832,-8.13325907162694,-7.13621936704611,-297.551728873562
738509.42133102333173155785,-8.09633167516098,-7.09929197058016,-297.487105929746
738509.42133111378643661737,-8.0870998260445,-7.08082827234718,-297.551728873562
738509.42133120424114167690,-8.05940427869503,-7.0623645741142,-297.542497024445
738509.42133129469584673643,-8.04094058046205,-7.03466902676473,-297.524033326212
738509.42133138515055179596,-8.04094058046205,-7.0623645741142,-297.496337778863
738509.42133147560525685549,-8.05017242957854,-7.07159642323069,-297.542497024445
738509.42133156605996191502,-8.05940427869503,-7.10852381969665,-297.560960722678
738509.42133165651466697454,-8.07786797692801,-7.13621936704611,-297.533265175329
738509.42133174696937203407,-8.09633167516098,-7.16391491439558,-297.514801477096
738509.42133183730766177177,-8.14249092074343,-7.20084231086154,-297.597888119144
738509.42133192776236683130,-8.16095461897641,-7.21930600909452,-297.514801477096
738509.42133201821707189083,-8.1701864680929,-7.228537858211,-297.404019287698
738509.42133210867177695036,-8.20711386455885,-7.25623340556047,-297.413251136814
738509.42133219912648200989,-8.21634571367534,-7.26546525467696,-297.496337778863
738509.42133228958118706942,-8.23480941190832,-7.26546525467696,-297.468642231513
738509.42133238003589212894,-8.22557756279183,-7.25623340556047,-297.570192571795
738509.42133247049059718847,-8.20711386455885,-7.24700155644398,-297.579424420911
738509.42133256094530224800,-8.23480941190832,-7.26546525467696,-297.514801477096
738509.42133265128359198570,-8.26250495925779,-7.27469710379345,-297.533265175329
738509.42133274173829704523,-8.2532731101413,-7.27469710379345,-297.570192571795
738509.42133283219300210476,-8.23480941190832,-7.25623340556047,-297.514801477096
738509.42133292264770716429,-8.21634571367534,-7.25623340556047,-297.524033326212
738509.42133301310241222382,-8.23480941190832,-7.26546525467696,-297.542497024445
738509.42133310355711728334,-8.23480941190832,-7.26546525467696,-297.570192571795
738509.42133319401182234287,-8.23480941190832,-7.26546525467696,-297.560960722678
738509.42133328446652740240,-8.23480941190832,-7.24700155644398,-297.542497024445
738509.42133337492123246193,-8.22557756279183,-7.24700155644398,-297.570192571795
738509.42133346537593752146,-8.21634571367534,-7.24700155644398,-297.588656270028
738509.42133355571422725916,-8.21634571367534,-7.24700155644398,-297.570192571795
738509.42133364616893231869,-8.21634571367534,-7.25623340556047,-297.607119968261
738509.42133373662363737822,-8.21634571367534,-7.23776970732749,-297.551728873562
738509.42133382707834243774,-8.21634571367534,-7.24700155644398,-297.560960722678
738509.42133391753304749727,-8.22557756279183,-7.24700155644398,-297.533265175329
738509.42133400798775255680,-8.19788201544237,-7.24700155644398,-297.514801477096
738509.42133409844245761633,-8.20711386455885,-7.23776970732749,-297.560960722678
738509.42133418889716267586,-8.23480941190832,-7.25623340556047,-297.542497024445
738509.42133427935186773539,-8.21634571367534,-7.25623340556047,-297.542497024445
738509.42133436980657279491,-8.21634571367534,-7.24700155644398,-297.579424420911
738509.42133446014486253262,-8.22557756279183,-7.24700155644398,-297.588656270028
738509.42133455059956759214,-8.22557756279183,-7.23776970732749,-297.551728873562
738509.42133464105427265167,-8.18865016632588,-7.21930600909452,-297.551728873562
738509.42133473150897771120,-8.19788201544237,-7.23776970732749,-297.579424420911
738509.42133482196368277073,-8.16095461897641,-7.23776970732749,-297.607119968261
738509.42133491241838783026,-8.15172276985992,-7.228537858211,-297.524033326212
738509.42133500287309288979,-8.0870998260445,-7.20084231086154,-297.570192571795
738509.42133509332779794931,-8.07786797692801,-7.21930600909452,-297.588656270028
738509.42133518378250300884,-8.05017242957854,-7.20084231086154,-297.505569627979
738509.42133527423720806837,-8.06863612781152,-7.21007415997803,-297.505569627979
738509.42133536457549780607,-8.09633167516098,-7.21007415997803,-297.505569627979
738509.42133545503020286560,-8.11479537339396,-7.21007415997803,-297.496337778863
738509.42133554548490792513,-8.15172276985992,-7.21930600909452,-297.422482985931
738509.42133563593961298466,-8.24404126102481,-7.23776970732749,-297.394787438581
738509.42133572639431804419,-8.26250495925779,-7.26546525467696,-297.560960722678
738509.42133581684902310371,-8.2532731101413,-7.25623340556047,-297.524033326212
738509.42133590730372816324,-8.26250495925779,-7.25623340556047,-297.560960722678
738509.42133599775843322277,-8.26250495925779,-7.25623340556047,-297.579424420911
738509.42133608821313828230,-8.27173680837428,-7.26546525467696,-297.597888119144
738509.42133617855142802000,-8.26250495925779,-7.24700155644398,-297.514801477096
738509.42133626900613307953,-8.26250495925779,-7.25623340556047,-297.560960722678
738509.42133635946083813906,-8.29020050660726,-7.25623340556047,-297.570192571795
738509.42133644991554319859,-8.34559160130619,-7.26546525467696,-297.542497024445
738509.42133654037024825811,-8.4194463942381,-7.228537858211,-297.560960722678
738509.42133663082495331764,-7.95785393841365,-7.17314676351207,-297.468642231513
738509.42133672127965837717,-7.39471114230781,-7.00697347941527,-297.422482985931
738509.42133681173436343670,-7.03466902676473,-6.93311868648335,-297.394787438581
738509.42133690218906849623,-6.96081423383282,-6.97004608294931,-297.431714835047
738509.42133699264377355576,-7.90246284371471,-6.88695944090091,-297.413251136814
738509.42133708298206329346,-8.44714194158757,-7.07159642323069,-297.505569627979
738509.42133717343676835299,-8.38251899777215,-7.12698751792962,-297.533265175329
738509.42133726389147341251,-8.32712790307321,-7.20084231086154,-297.533265175329
738509.42133735434617847204,-8.31789605395672,-7.21930600909452,-297.533265175329
738509.42133744480088353157,-8.29020050660726,-7.228537858211,-297.570192571795
738509.42133753525558859110,-8.29020050660726,-7.23776970732749,-297.579424420911
738509.42133762571029365063,-8.27173680837428,-7.23776970732749,-297.496337778863
738509.42133771616499871016,-8.26250495925779,-7.23776970732749,-297.551728873562
738509.42133780661970376968,-8.28096865749077,-7.24700155644398,-297.542497024445
738509.42133789707440882921,-8.29020050660726,-7.25623340556047,-297.533265175329
738509.42133798741269856691,-8.27173680837428,-7.24700155644398,-297.560960722678
738509.42133807786740362644,-8.28096865749077,-7.24700155644398,-297.588656270028
738509.42133816832210868597,-8.26250495925779,-7.23776970732749,-297.588656270028
738509.42133825877681374550,-8.24404126102481,-7.228537858211,-297.47787408063
738509.42133834923151880503,-8.2532731101413,-7.21930600909452,-297.551728873562
738509.42133843968622386456,-8.22557756279183,-7.21007415997803,-297.570192571795
738509.42133853014092892408,-8.21634571367534,-7.20084231086154,-297.496337778863
738509.42133862059563398361,-8.21634571367534,-7.21007415997803,-297.459410382397
738509.42133871105033904314,-8.18865016632588,-7.19161046174505,-297.487105929746
738509.42133880138862878084,-8.19788201544237,-7.19161046174505,-297.487105929746
738509.42133889184333384037,-8.18865016632588,-7.17314676351207,-297.468642231513
738509.42133898229803889990,-8.15172276985992,-7.1454512161626,-297.524033326212
738509.42133907275274395943,-8.11479537339396,-7.11775566881313,-297.339396343883
738509.42133916320744901896,-8.11479537339396,-7.10852381969665,-297.404019287698
738509.42133925366215407848,-8.09633167516098,-7.09006012146367,-297.47787408063
738509.42133934411685913801,-8.06863612781152,-7.08082827234718,-297.524033326212
738509.42133943457156419754,-8.04094058046205,-7.05313272499771,-297.551728873562
738509.42133952502626925707,-8.00401318399609,-7.01620532853175,-297.47787408063
738509.42133961548097431660,-8.00401318399609,-7.03466902676473,-297.496337778863
738509.42133970581926405430,-8.03170873134556,-7.05313272499771,-297.533265175329
738509.42133979627396911383,-8.05017242957854,-7.08082827234718,-297.524033326212
738509.42133988672867417336,-8.06863612781152,-7.12698751792962,-297.47787408063
738509.42133997718337923288,-8.07786797692801,-7.1454512161626,-297.542497024445
738509.42134006763808429241,-8.09633167516098,-7.17314676351207,-297.570192571795
738509.42134015809278935194,-8.14249092074343,-7.21007415997803,-297.514801477096
738509.42134024854749441147,-8.15172276985992,-7.21007415997803,-297.560960722678
738509.42134033900219947100,-8.1701864680929,-7.21007415997803,-297.588656270028
738509.42134042945690453053,-8.19788201544237,-7.21930600909452,-297.588656270028
738509.42134051991160959005,-8.20711386455885,-7.24700155644398,-297.551728873562
738509.42134061024989932775,-8.20711386455885,-7.24700155644398,-297.588656270028
738509.42134070070460438728,-8.22557756279183,-7.25623340556047,-297.607119968261
738509.42134079115930944681,-8.18865016632588,-7.228537858211,-297.533265175329
738509.42134088161401450634,-8.20711386455885,-7.23776970732749,-297.570192571795
738509.42134097206871956587,-8.20711386455885,-7.24700155644398,-297.551728873562
738509.42134106252342462540,-8.20711386455885,-7.24700155644398,-297.487105929746
738509.42134115297812968493,-8.19788201544237,-7.23776970732749,-297.542497024445
738509.42134124343283474445,-8.20711386455885,-7.23776970732749,-297.505569627979
738509.42134133388753980398,-8.18865016632588,-7.23776970732749,-297.570192571795
738509.42134142434224486351,-8.17941831720939,-7.228537858211,-297.551728873562
738509.42134151468053460121,-8.17941831720939,-7.228537858211,-297.524033326212
738509.42134160513523966074,-8.17941831720939,-7.228537858211,-297.487105929746
738509.42134169558994472027,-8.18865016632588,-7.228537858211,-297.505569627979
738509.42134178604464977980,-8.17941831720939,-7.228537858211,-297.551728873562
738509.42134187649935483932,-8.19788201544237,-7.23776970732749,-297.542497024445
738509.42134196695405989885,-8.17941831720939,-7.228537858211,-297.505569627979
738509.42134205740876495838,-8.17941831720939,-7.228537858211,-297.468642231513
738509.42134214786347001791,-8.17941831720939,-7.228537858211,-297.505569627979
738509.42134223831817507744,-8.18865016632588,-7.23776970732749,-297.47787408063
738509.42134232865646481514,-8.1701864680929,-7.21930600909452,-297.505569627979
738509.42134241911116987467,-8.17941831720939,-7.228537858211,-297.514801477096
738509.42134250956587493420,-8.1701864680929,-7.21930600909452,-297.505569627979
738509.42134260002057999372,-8.18865016632588,-7.24700155644398,-297.394787438581
738509.42134269047528505325,-8.18865016632588,-7.24700155644398,-297.47787408063
738509.42134278092999011278,-8.17941831720939,-7.228537858211,-297.579424420911
738509.42134287138469517231,-8.14249092074343,-7.228537858211,-297.579424420911
738509.42134296183940023184,-8.13325907162694,-7.21930600909452,-297.579424420911
738509.42134305229410529137,-8.12402722251045,-7.21007415997803,-297.542497024445
738509.42134314274881035089,-8.05017242957854,-7.18237861262856,-297.505569627979
738509.42134323308710008860,-8.03170873134556,-7.19161046174505,-297.560960722678
738509.42134332354180514812,-8.03170873134556,-7.18237861262856,-297.579424420911
738509.42134341399651020765,-8.05017242957854,-7.20084231086154,-297.551728873562
738509.42134350445121526718,-8.05940427869503,-7.20084231086154,-297.560960722678
738509.42134359490592032671,-8.10556352427747,-7.20084231086154,-297.560960722678
738509.42134368536062538624,-8.17941831720939,-7.21930600909452,-297.579424420911
738509.42134377581533044577,-8.22557756279183,-7.228537858211,-297.551728873562
738509.42134386627003550529,-8.26250495925779,-7.27469710379345,-297.570192571795
738509.42134395672474056482,-8.2532731101413,-7.25623340556047,-297.607119968261
738509.42134404717944562435,-8.2532731101413,-7.25623340556047,-297.505569627979
738509.42134413751773536205,-8.26250495925779,-7.25623340556047,-297.570192571795
738509.42134422797244042158,-8.23480941190832,-7.23776970732749,-297.597888119144
738509.42134431842714548111,-8.23480941190832,-7.23776970732749,-297.560960722678
738509.42134440888185054064,-8.2532731101413,-7.25623340556047,-297.588656270028
738509.42134449933655560017,-8.29943235572375,-7.25623340556047,-297.570192571795
738509.42134458979126065969,-8.4194463942381,-7.228537858211,-297.579424420911
738509.42134468024596571922,-8.20711386455885,-7.19161046174505,-297.496337778863
738509.42134477070067077875,-7.5701162755211,-7.08082827234718,-297.514801477096
738509.42134486115537583828,-7.13621936704611,-6.92388683736686,-297.468642231513
738509.42134495161008089781,-6.9792779320658,-6.94235053559984,-297.459410382397
738509.42134504194837063551,-6.97004608294931,-6.9792779320658,-297.45017853328
738509.42134513240307569504,-7.98554948576311,-6.87772759178442,-297.47787408063
738509.42134522285778075457,-8.42867824335459,-7.08082827234718,-297.505569627979
738509.42134531331248581409,-8.32712790307321,-7.10852381969665,-297.514801477096
738509.42134540376719087362,-8.26250495925779,-7.18237861262856,-297.551728873562
738509.42134549422189593315,-8.28096865749077,-7.23776970732749,-297.533265175329
738509.42134558467660099268,-8.28096865749077,-7.23776970732749,-297.524033326212
738509.42134567513130605221,-8.28096865749077,-7.228537858211,-297.570192571795
738509.42134576558601111174,-8.27173680837428,-7.24700155644398,-297.579424420911
738509.42134585592430084944,-8.27173680837428,-7.26546525467696,-297.588656270028
738509.42134594637900590897,-8.26250495925779,-7.26546525467696,-297.607119968261
738509.42134603683371096849,-8.26250495925779,-7.24700155644398,-297.47787408063
738509.42134612728841602802,-8.2532731101413,-7.24700155644398,-297.413251136814
738509.42134621774312108755,-8.2532731101413,-7.23776970732749,-297.487105929746
738509.42134630819782614708,-8.24404126102481,-7.228537858211,-297.533265175329
738509.42134639865253120661,-8.22557756279183,-7.228537858211,-297.588656270028
738509.42134648910723626614,-8.22557756279183,-7.228537858211,-297.542497024445
738509.42134657956194132566,-8.19788201544237,-7.19161046174505,-297.551728873562
738509.42134667001664638519,-8.21634571367534,-7.20084231086154,-297.579424420911
738509.42134676035493612289,-8.18865016632588,-7.19161046174505,-297.588656270028
738509.42134685080964118242,-8.18865016632588,-7.19161046174505,-297.560960722678
738509.42134694126434624195,-8.18865016632588,-7.18237861262856,-297.524033326212
738509.42134703171905130148,-8.15172276985992,-7.13621936704611,-297.524033326212
738509.42134712217375636101,-8.15172276985992,-7.1454512161626,-297.542497024445
738509.42134721262846142054,-8.11479537339396,-7.11775566881313,-297.551728873562
738509.42134730308316648006,-8.06863612781152,-7.08082827234718,-297.570192571795
738509.42134739353787153959,-8.04094058046205,-7.0623645741142,-297.542497024445
738509.42134748399257659912,-8.04094058046205,-7.05313272499771,-297.514801477096
738509.42134757444728165865,-7.9947813348796,-7.02543717764824,-297.570192571795
738509.42134766478557139635,-8.01324503311258,-7.04390087588122,-297.570192571795
738509.42134775524027645588,-7.97631763664663,-7.02543717764824,-297.45017853328
738509.42134784569498151541,-7.97631763664663,-7.02543717764824,-297.514801477096
738509.42134793614968657494,-8.00401318399609,-7.09006012146367,-297.542497024445
738509.42134802660439163446,-8.05017242957854,-7.1454512161626,-297.542497024445
738509.42134811705909669399,-8.05017242957854,-7.1454512161626,-297.551728873562
738509.42134820751380175352,-8.09633167516098,-7.20084231086154,-297.588656270028
738509.42134829796850681305,-8.12402722251045,-7.21930600909452,-297.588656270028
738509.42134838842321187258,-8.15172276985992,-7.23776970732749,-297.524033326212
738509.42134847876150161028,-8.1701864680929,-7.23776970732749,-297.607119968261
738509.42134856921620666981,-8.1701864680929,-7.23776970732749,-297.597888119144
738509.42134865967091172934,-8.16095461897641,-7.228537858211,-297.579424420911
738509.42134875012561678886,-8.16095461897641,-7.21930600909452,-297.588656270028
738509.42134884058032184839,-8.1701864680929,-7.23776970732749,-297.597888119144
738509.42134893103502690792,-8.16095461897641,-7.228537858211,-297.616351817377
738509.42134902148973196745,-8.18865016632588,-7.25623340556047,-297.514801477096
738509.42134911194443702698,-8.1701864680929,-7.23776970732749,-297.597888119144
738509.42134920239914208651,-8.1701864680929,-7.25623340556047,-297.616351817377
738509.42134929285384714603,-8.17941831720939,-7.24700155644398,-297.542497024445
738509.42134938319213688374,-8.19788201544237,-7.26546525467696,-297.579424420911
738509.42134947364684194326,-8.16095461897641,-7.24700155644398,-297.588656270028
738509.42134956410154700279,-8.1701864680929,-7.23776970732749,-297.616351817377
738509.42134965455625206232,-8.16095461897641,-7.228537858211,-297.413251136814
738509.42134974501095712185,-8.17941831720939,-7.23776970732749,-297.505569627979
738509.42134983546566218138,-8.14249092074343,-7.21007415997803,-297.560960722678
738509.42134992592036724091,-8.16095461897641,-7.21930600909452,-297.542497024445
738509.42135001637507230043,-8.1701864680929,-7.23776970732749,-297.560960722678
738509.42135010682977735996,-8.16095461897641,-7.228537858211,-297.524033326212
738509.42135019728448241949,-8.15172276985992,-7.21930600909452,-297.533265175329
738509.42135028762277215719,-8.1701864680929,-7.23776970732749,-297.542497024445
738509.42135037807747721672,-8.17941831720939,-7.25623340556047,-297.551728873562
738509.42135046853218227625,-8.17941831720939,-7.24700155644398,-297.570192571795
738509.42135055898688733578,-8.1701864680929,-7.23776970732749,-297.579424420911
738509.42135064944159239531,-8.1701864680929,-7.24700155644398,-297.533265175329
738509.42135073989629745483,-8.17941831720939,-7.23776970732749,-297.551728873562
738509.42135083035100251436,-8.18865016632588,-7.228537858211,-297.551728873562
738509.42135092080570757389,-8.17941831720939,-7.228537858211,-297.551728873562
738509.42135101126041263342,-8.13325907162694,-7.20084231086154,-297.616351817377
738509.42135110171511769295,-8.10556352427747,-7.21930600909452,-297.597888119144
738509.42135119205340743065,-8.10556352427747,-7.21930600909452,-297.597888119144
738509.42135128250811249018,-8.0870998260445,-7.20084231086154,-297.597888119144
738509.42135137296281754971,-8.04094058046205,-7.21007415997803,-297.560960722678
738509.42135146341752260923,-8.05017242957854,-7.21930600909452,-297.570192571795
738509.42135155387222766876,-8.03170873134556,-7.21007415997803,-297.579424420911
738509.42135164432693272829,-8.04094058046205,-7.20084231086154,-297.570192571795
738509.42135173478163778782,-8.07786797692801,-7.19161046174505,-297.616351817377
738509.42135182523634284735,-8.13325907162694,-7.21007415997803,-297.63481551561
738509.42135191569104790688,-8.19788201544237,-7.21930600909452,-297.616351817377
738509.42135200602933764458,-8.21634571367534,-7.23776970732749,-297.579424420911
738509.42135209648404270411,-8.22557756279183,-7.24700155644398,-297.625583666494
738509.42135218693874776363,-8.24404126102481,-7.24700155644398,-297.63481551561
738509.42135227739345282316,-8.2532731101413,-7.27469710379345,-297.542497024445
738509.42135236784815788269,-8.22557756279183,-7.24700155644398,-297.597888119144
738509.42135245830286294222,-8.23480941190832,-7.24700155644398,-297.63481551561
738509.42135254875756800175,-8.22557756279183,-7.24700155644398,-297.616351817377
738509.42135263921227306128,-8.26250495925779,-7.26546525467696,-297.542497024445
738509.42135272966697812080,-8.29020050660726,-7.26546525467696,-297.607119968261
738509.42135282012168318033,-8.4194463942381,-7.228537858211,-297.625583666494
738509.42135291045997291803,-8.13325907162694,-7.19161046174505,-297.468642231513
738509.42135300091467797756,-7.50549333170568,-7.05313272499771,-297.45017853328
738509.42135309136938303709,-7.10852381969665,-6.93311868648335,-297.431714835047
738509.42135318182408809662,-6.92388683736686,-6.92388683736686,-297.330164494766
738509.42135327227879315615,-7.59781182287057,-6.84080019531846,-297.330164494766
738509.42135336273349821568,-8.42867824335459,-7.02543717764824,-297.560960722678
738509.42135345318820327520,-8.38251899777215,-7.09929197058016,-297.570192571795
738509.42135354364290833473,-8.28096865749077,-7.18237861262856,-297.588656270028
738509.42135363409761339426,-8.28096865749077,-7.228537858211,-297.570192571795
738509.42135372455231845379,-8.26250495925779,-7.24700155644398,-297.616351817377
738509.42135381489060819149,-8.28096865749077,-7.25623340556047,-297.570192571795
738509.42135390534531325102,-8.28096865749077,-7.25623340556047,-297.560960722678
738509.42135399580001831055,-8.26250495925779,-7.25623340556047,-297.560960722678
738509.42135408625472337008,-8.2532731101413,-7.26546525467696,-297.551728873562
738509.42135417670942842960,-8.2532731101413,-7.25623340556047,-297.551728873562
738509.42135426716413348913,-8.2532731101413,-7.25623340556047,-297.570192571795
738509.42135435761883854866,-8.24404126102481,-7.24700155644398,-297.570192571795
738509.42135444807354360819,-8.24404126102481,-7.24700155644398,-297.551728873562
738509.42135453852824866772,-8.26250495925779,-7.25623340556047,-297.551728873562
738509.42135462886653840542,-8.24404126102481,-7.25623340556047,-297.551728873562
738509.42135471932124346495,-8.22557756279183,-7.228537858211,-297.560960722678
738509.42135480977594852448,-8.20711386455885,-7.21930600909452,-297.560960722678
738509.42135490023065358400,-8.17941831720939,-7.20084231086154,-297.551728873562
738509.42135499068535864353,-8.20711386455885,-7.21007415997803,-297.570192571795
738509.42135508114006370306,-8.1701864680929,-7.18237861262856,-297.625583666494
738509.42135517159476876259,-8.16095461897641,-7.18237861262856,-297.588656270028
738509.42135526204947382212,-8.11479537339396,-7.13621936704611,-297.551728873562
738509.42135535250417888165,-8.11479537339396,-7.12698751792962,-297.597888119144
738509.42135544295888394117,-8.0870998260445,-7.11775566881313,-297.588656270028
738509.42135553329717367887,-8.05940427869503,-7.08082827234718,-297.607119968261
738509.42135562375187873840,-8.01324503311258,-7.05313272499771,-297.533265175329
738509.42135571420658379793,-8.01324503311258,-7.04390087588122,-297.551728873562
738509.42135580466128885746,-7.98554948576311,-7.02543717764824,-297.579424420911
738509.42135589511599391699,-7.9947813348796,-7.03466902676473,-297.487105929746
738509.42135598557069897652,-7.96708578753014,-7.04390087588122,-297.588656270028
738509.42135607602540403605,-7.97631763664663,-7.07159642323069,-297.579424420911
738509.42135616648010909557,-8.01324503311258,-7.12698751792962,-297.524033326212
738509.42135625693481415510,-8.05940427869503,-7.16391491439558,-297.551728873562
738509.42135634738951921463,-8.07786797692801,-7.18237861262856,-297.616351817377
738509.42135643772780895233,-8.0870998260445,-7.20084231086154,-297.616351817377
738509.42135652818251401186,-8.13325907162694,-7.228537858211,-297.542497024445
738509.42135661863721907139,-8.14249092074343,-7.23776970732749,-297.63481551561
738509.42135670909192413092,-8.16095461897641,-7.24700155644398,-297.551728873562
738509.42135679954662919044,-8.15172276985992,-7.23776970732749,-297.459410382397
738509.42135689000133424997,-8.16095461897641,-7.24700155644398,-297.597888119144
738509.42135698045603930950,-8.16095461897641,-7.23776970732749,-297.616351817377
738509.42135707091074436903,-8.1701864680929,-7.25623340556047,-297.588656270028
738509.42135716136544942856,-8.1701864680929,-7.25623340556047,-297.625583666494
738509.42135725182015448809,-8.1701864680929,-7.24700155644398,-297.625583666494
738509.42135734215844422579,-8.16095461897641,-7.24700155644398,-297.616351817377
738509.42135743261314928532,-8.1701864680929,-7.25623340556047,-297.551728873562
738509.42135752306785434484,-8.17941831720939,-7.27469710379345,-297.616351817377
738509.42135761352255940437,-8.1701864680929,-7.25623340556047,-297.625583666494
738509.42135770397726446390,-8.1701864680929,-7.25623340556047,-297.514801477096
738509.42135779443196952343,-8.14249092074343,-7.24700155644398,-297.542497024445
738509.42135788488667458296,-8.15172276985992,-7.23776970732749,-297.542497024445
738509.42135797534137964249,-8.14249092074343,-7.23776970732749,-297.514801477096
738509.42135806579608470201,-8.16095461897641,-7.25623340556047,-297.533265175329
738509.42135815613437443972,-8.1701864680929,-7.24700155644398,-297.542497024445
738509.42135824658907949924,-8.1701864680929,-7.25623340556047,-297.588656270028
738509.42135833704378455877,-8.16095461897641,-7.23776970732749,-297.542497024445
738509.42135842749848961830,-8.16095461897641,-7.24700155644398,-297.597888119144
738509.42135851795319467783,-8.1701864680929,-7.25623340556047,-297.588656270028
738509.42135860840789973736,-8.16095461897641,-7.23776970732749,-297.542497024445
738509.42135869886260479689,-8.1701864680929,-7.24700155644398,-297.551728873562
738509.42135878931730985641,-8.1701864680929,-7.23776970732749,-297.607119968261
738509.42135887977201491594,-8.16095461897641,-7.24700155644398,-297.551728873562
738509.42135897022671997547,-8.16095461897641,-7.24700155644398,-297.542497024445
738509.42135906056500971317,-8.17941831720939,-7.25623340556047,-297.551728873562
738509.42135915101971477270,-8.17941831720939,-7.25623340556047,-297.560960722678
738509.42135924147441983223,-8.19788201544237,-7.26546525467696,-297.597888119144
738509.42135933192912489176,-8.19788201544237,-7.25623340556047,-297.616351817377
738509.42135942238382995129,-8.20711386455885,-7.27469710379345,-297.570192571795
738509.42135951283853501081,-8.20711386455885,-7.27469710379345,-297.560960722678
738509.42135960329324007034,-8.19788201544237,-7.26546525467696,-297.570192571795
738509.42135969374794512987,-8.1701864680929,-7.24700155644398,-297.644047364727
738509.42135978420265018940,-8.15172276985992,-7.23776970732749,-297.644047364727
738509.42135987465735524893,-8.10556352427747,-7.23776970732749,-297.597888119144
738509.42135996499564498663,-8.0870998260445,-7.21930600909452,-297.597888119144
738509.42136005545035004616,-8.05017242957854,-7.21930600909452,-297.625583666494
738509.42136014590505510569,-8.04094058046205,-7.21930600909452,-297.607119968261
738509.42136023635976016521,-8.03170873134556,-7.228537858211,-297.551728873562
738509.42136032681446522474,-8.04094058046205,-7.228537858211,-297.496337778863
738509.42136041726917028427,-8.05017242957854,-7.21007415997803,-297.625583666494
738509.42136050772387534380,-8.0870998260445,-7.21007415997803,-297.625583666494
738509.42136059817858040333,-8.1701864680929,-7.23776970732749,-297.597888119144
738509.42136068863328546286,-8.20711386455885,-7.24700155644398,-297.63481551561
738509.42136077897157520056,-8.23480941190832,-7.27469710379345,-297.63481551561
738509.42136086942628026009,-8.23480941190832,-7.27469710379345,-297.570192571795
738509.42136095988098531961,-8.26250495925779,-7.27469710379345,-297.63481551561
738509.42136105033569037914,-8.2532731101413,-7.27469710379345,-297.625583666494
738509.42136114079039543867,-8.2532731101413,-7.28392895290994,-297.570192571795
738509.42136123124510049820,-8.2532731101413,-7.29316080202643,-297.625583666494
738509.42136132169980555773,-8.26250495925779,-7.27469710379345,-297.625583666494
738509.42136141215451061726,-8.28096865749077,-7.25623340556047,-297.588656270028
738509.42136150260921567678,-8.39175084688864,-7.26546525467696,-297.597888119144
738509.42136159306392073631,-8.29020050660726,-7.21930600909452,-297.616351817377
738509.42136168340221047401,-7.69936216315195,-7.13621936704611,-297.560960722678
738509.42136177385691553354,-7.27469710379345,-6.98850978118229,-297.47787408063
738509.42136186431162059307,-7.01620532853175,-6.9792779320658,-297.505569627979
738509.42136195476632565260,-7.33008819849239,-6.85003204443495,-297.496337778863
738509.42136204522103071213,-7.86553544724876,-6.77617725150304,-297.514801477096
738509.42136213567573577166,-8.44714194158757,-7.03466902676473,-297.487105929746
738509.42136222613044083118,-8.34559160130619,-7.11775566881313,-297.533265175329
738509.42136231658514589071,-8.28096865749077,-7.21930600909452,-297.551728873562
738509.42136240703985095024,-8.27173680837428,-7.25623340556047,-297.542497024445
738509.42136249749455600977,-8.29020050660726,-7.26546525467696,-297.588656270028
738509.42136258783284574747,-8.28096865749077,-7.27469710379345,-297.653279213843
738509.42136267828755080700,-8.29943235572375,-7.29316080202643,-297.625583666494
738509.42136276874225586653,-8.27173680837428,-7.27469710379345,-297.607119968261
738509.42136285919696092606,-8.26250495925779,-7.27469710379345,-297.588656270028
738509.42136294965166598558,-8.2532731101413,-7.27469710379345,-297.597888119144
738509.42136304010637104511,-8.26250495925779,-7.27469710379345,-297.607119968261
738509.42136313056107610464,-8.26250495925779,-7.27469710379345,-297.616351817377
738509.42136322101578116417,-8.24404126102481,-7.25623340556047,-297.63481551561
738509.42136331147048622370,-8.24404126102481,-7.26546525467696,-297.597888119144
738509.42136340192519128323,-8.24404126102481,-7.26546525467696,-297.560960722678
738509.42136349226348102093,-8.22557756279183,-7.24700155644398,-297.570192571795
738509.42136358271818608046,-8.21634571367534,-7.23776970732749,-297.597888119144
738509.42136367317289113998,-8.20711386455885,-7.228537858211,-297.607119968261
738509.42136376362759619951,-8.18865016632588,-7.21007415997803,-297.404019287698
738509.42136385408230125904,-8.1701864680929,-7.19161046174505,-297.487105929746
738509.42136394453700631857,-8.15172276985992,-7.18237861262856,-297.588656270028
738509.42136403499171137810,-8.13325907162694,-7.15468306527909,-297.597888119144
738509.42136412544641643763,-8.10556352427747,-7.13621936704611,-297.607119968261
738509.42136421590112149715,-8.05017242957854,-7.09929197058016,-297.616351817377
738509.42136430623941123486,-8.03170873134556,-7.08082827234718,-297.542497024445
738509.42136439669411629438,-8.02247688222907,-7.08082827234718,-297.542497024445
738509.42136448714882135391,-8.00401318399609,-7.07159642323069,-297.616351817377
738509.42136457760352641344,-7.9947813348796,-7.05313272499771,-297.597888119144
738509.42136466805823147297,-7.9947813348796,-7.07159642323069,-297.570192571795
738509.42136475851293653250,-7.98554948576311,-7.07159642323069,-297.579424420911
738509.42136484896764159203,-7.98554948576311,-7.10852381969665,-297.597888119144
738509.42136493942234665155,-7.9947813348796,-7.12698751792962,-297.597888119144
738509.42136502987705171108,-8.03170873134556,-7.18237861262856,-297.560960722678
738509.42136512033175677061,-8.05017242957854,-7.20084231086154,-297.63481551561
738509.42136521067004650831,-8.0870998260445,-7.21930600909452,-297.63481551561
738509.42136530112475156784,-8.10556352427747,-7.228537858211,-297.570192571795
738509.42136539157945662737,-8.14249092074343,-7.26546525467696,-297.63481551561
738509.42136548203416168690,-8.15172276985992,-7.27469710379345,-297.66251106296
738509.42136557248886674643,-8.1701864680929,-7.28392895290994,-297.579424420911
738509.42136566294357180595,-8.15172276985992,-7.26546525467696,-297.644047364727
738509.42136575339827686548,-8.18865016632588,-7.28392895290994,-297.63481551561
738509.42136584385298192501,-8.17941831720939,-7.29316080202643,-297.653279213843
738509.42136593430768698454,-8.16095461897641,-7.26546525467696,-297.579424420911
738509.42136602476239204407,-8.16095461897641,-7.27469710379345,-297.644047364727
738509.42136611510068178177,-8.15172276985992,-7.27469710379345,-297.66251106296
738509.42136620555538684130,-8.15172276985992,-7.26546525467696,-297.579424420911
738509.42136629601009190083,-8.15172276985992,-7.27469710379345,-297.625583666494
738509.42136638646479696035,-8.14249092074343,-7.26546525467696,-297.616351817377
738509.42136647691950201988,-8.15172276985992,-7.27469710379345,-297.625583666494
738509.42136656737420707941,-8.15172276985992,-7.27469710379345,-297.597888119144
738509.42136665782891213894,-8.16095461897641,-7.27469710379345,-297.560960722678
738509.42136674828361719847,-8.16095461897641,-7.27469710379345,-297.607119968261
738509.42136683873832225800,-8.16095461897641,-7.28392895290994,-297.616351817377
738509.42136692919302731752,-8.17941831720939,-7.28392895290994,-297.607119968261
738509.42136701953131705523,-8.15172276985992,-7.26546525467696,-297.607119968261
738509.42136710998602211475,-8.15172276985992,-7.25623340556047,-297.551728873562
738509.42136720044072717428,-8.14249092074343,-7.26546525467696,-297.588656270028
738509.42136729089543223381,-8.15172276985992,-7.27469710379345,-297.45017853328
738509.42136738135013729334,-8.15172276985992,-7.26546525467696,-297.542497024445
738509.42136747180484235287,-8.13325907162694,-7.25623340556047,-297.616351817377
738509.42136756225954741240,-8.15172276985992,-7.26546525467696,-297.690206610309
738509.42136765271425247192,-8.1701864680929,-7.28392895290994,-297.579424420911
738509.42136774316895753145,-8.18865016632588,-7.28392895290994,-297.533265175329
738509.42136783350724726915,-8.17941831720939,-7.28392895290994,-297.560960722678
738509.42136792396195232868,-8.19788201544237,-7.28392895290994,-297.570192571795
738509.42136801441665738821,-8.19788201544237,-7.28392895290994,-297.570192571795
738509.42136810487136244774,-8.20711386455885,-7.29316080202643,-297.570192571795
738509.42136819532606750727,-8.17941831720939,-7.27469710379345,-297.653279213843
738509.42136828578077256680,-8.17941831720939,-7.26546525467696,-297.653279213843
738509.42136837623547762632,-8.16095461897641,-7.27469710379345,-297.63481551561
738509.42136846669018268585,-8.18865016632588,-7.28392895290994,-297.653279213843
738509.42136855714488774538,-8.19788201544237,-7.28392895290994,-297.644047364727
738509.42136864759959280491,-8.19788201544237,-7.28392895290994,-297.597888119144
738509.42136873793788254261,-8.19788201544237,-7.29316080202643,-297.671742912076
738509.42136882839258760214,-8.20711386455885,-7.29316080202643,-297.653279213843
738509.42136891884729266167,-8.19788201544237,-7.29316080202643,-297.63481551561
738509.42136900930199772120,-8.19788201544237,-7.29316080202643,-297.616351817377
738509.42136909975670278072,-8.19788201544237,-7.27469710379345,-297.653279213843
738509.42136919021140784025,-8.16095461897641,-7.24700155644398,-297.671742912076
738509.42136928066611289978,-8.16095461897641,-7.27469710379345,-297.588656270028
738509.42136937112081795931,-8.11479537339396,-7.25623340556047,-297.644047364727
738509.42136946157552301884,-8.11479537339396,-7.24700155644398,-297.644047364727
738509.42136955203022807837,-8.07786797692801,-7.23776970732749,-297.579424420911
738509.42136964236851781607,-8.06863612781152,-7.25623340556047,-297.607119968261
738509.42136973282322287560,-8.04094058046205,-7.23776970732749,-297.671742912076
738509.42136982327792793512,-8.05017242957854,-7.24700155644398,-297.66251106296
738509.42136991373263299465,-8.05017242957854,-7.23776970732749,-297.671742912076
738509.42137000418733805418,-8.0870998260445,-7.21930600909452,-297.597888119144
738509.42137009464204311371,-8.14249092074343,-7.25623340556047,-297.644047364727
738509.42137018509674817324,-8.20711386455885,-7.27469710379345,-297.66251106296
738509.42137027555145323277,-8.2532731101413,-7.30239265114292,-297.607119968261
738509.42137036600615829229,-8.23480941190832,-7.28392895290994,-297.625583666494
738509.42137045634444802999,-8.23480941190832,-7.28392895290994,-297.66251106296
738509.42137054679915308952,-8.2532731101413,-7.30239265114292,-297.63481551561
738509.42137063725385814905,-8.2532731101413,-7.31162450025941,-297.616351817377
738509.42137072770856320858,-8.24404126102481,-7.29316080202643,-297.63481551561
738509.42137081816326826811,-8.2532731101413,-7.31162450025941,-297.459410382397
738509.42137090861797332764,-8.26250495925779,-7.29316080202643,-297.524033326212
738509.42137099907267838717,-8.37328714865566,-7.33008819849239,-297.588656270028
738509.42137108952738344669,-8.40098269600513,-7.25623340556047,-297.607119968261
738509.42137117998208850622,-7.92092654194769,-7.19161046174505,-297.533265175329
738509.42137127043679356575,-7.39471114230781,-7.01620532853175,-297.468642231513
738509.42137136077508330345,-7.05313272499771,-6.9792779320658,-297.542497024445
738509.42137145122978836298,-7.09929197058016,-6.90542313913388,-297.45017853328
738509.42137154168449342251,-7.4870296334727,-6.82233649708548,-297.45017853328
738509.42137163213919848204,-8.40098269600513,-6.98850978118229,-297.607119968261
738509.42137172259390354156,-8.38251899777215,-7.0623645741142,-297.551728873562
738509.42137181304860860109,-8.29943235572375,-7.19161046174505,-297.597888119144
738509.42137190350331366062,-8.29020050660726,-7.26546525467696,-297.616351817377
738509.42137199395801872015,-8.29020050660726,-7.28392895290994,-297.66251106296
738509.42137208441272377968,-8.30866420484024,-7.29316080202643,-297.680974761193
738509.42137217486742883921,-8.30866420484024,-7.31162450025941,-297.597888119144
738509.42137226520571857691,-8.29020050660726,-7.30239265114292,-297.616351817377
738509.42137235566042363644,-8.29020050660726,-7.29316080202643,-297.597888119144
738509.42137244611512869596,-8.27173680837428,-7.27469710379345,-297.625583666494
738509.42137253656983375549,-8.27173680837428,-7.27469710379345,-297.63481551561
738509.42137262702453881502,-8.27173680837428,-7.28392895290994,-297.63481551561
738509.42137271747924387455,-8.2532731101413,-7.28392895290994,-297.579424420911
738509.42137280793394893408,-8.22557756279183,-7.24700155644398,-297.542497024445
738509.42137289838865399361,-8.27173680837428,-7.28392895290994,-297.579424420911
738509.42137298884335905313,-8.26250495925779,-7.27469710379345,-297.588656270028
738509.42137307929806411266,-8.2532731101413,-7.25623340556047,-297.607119968261
738509.42137316963635385036,-8.24404126102481,-7.25623340556047,-297.653279213843
738509.42137326009105890989,-8.21634571367534,-7.228537858211,-297.63481551561
738509.42137335054576396942,-8.17941831720939,-7.21007415997803,-297.680974761193
738509.42137344100046902895,-8.1701864680929,-7.20084231086154,-297.63481551561
738509.42137353145517408848,-8.1701864680929,-7.19161046174505,-297.579424420911
738509.42137362190987914801,-8.14249092074343,-7.15468306527909,-297.616351817377
738509.42137371236458420753,-8.12402722251045,-7.1454512161626,-297.625583666494
738509.42137380281928926706,-8.07786797692801,-7.09929197058016,-297.542497024445
738509.42137389327399432659,-8.05017242957854,-7.08082827234718,-297.616351817377
738509.42137398361228406429,-8.04094058046205,-7.08082827234718,-297.63481551561
738509.42137407406698912382,-8.04094058046205,-7.08082827234718,-297.588656270028
738509.42137416452169418335,-8.01324503311258,-7.05313272499771,-297.579424420911
738509.42137425497639924288,-8.02247688222907,-7.07159642323069,-297.597888119144
738509.42137434543110430241,-8.01324503311258,-7.09006012146367,-297.496337778863
738509.42137443588580936193,-8.02247688222907,-7.11775566881313,-297.468642231513
738509.42137452634051442146,-8.04094058046205,-7.15468306527909,-297.625583666494
738509.42137461679521948099,-8.10556352427747,-7.20084231086154,-297.616351817377
738509.42137470724992454052,-8.12402722251045,-7.21930600909452,-297.579424420911
738509.42137479770462960005,-8.15172276985992,-7.24700155644398,-297.625583666494
738509.42137488804291933775,-8.16095461897641,-7.25623340556047,-297.644047364727
738509.42137497849762439728,-8.18865016632588,-7.25623340556047,-297.671742912076
738509.42137506895232945681,-8.19788201544237,-7.27469710379345,-297.625583666494
738509.42137515940703451633,-8.20711386455885,-7.28392895290994,-297.607119968261
738509.42137524986173957586,-8.21634571367534,-7.29316080202643,-297.63481551561
738509.42137534031644463539,-8.21634571367534,-7.28392895290994,-297.66251106296
738509.42137543077114969492,-8.23480941190832,-7.28392895290994,-297.644047364727
738509.42137552122585475445,-8.21634571367534,-7.28392895290994,-297.690206610309
738509.42137561168055981398,-8.22557756279183,-7.27469710379345,-297.680974761193
738509.42137570213526487350,-8.20711386455885,-7.26546525467696,-297.597888119144
738509.42137579247355461121,-8.21634571367534,-7.26546525467696,-297.597888119144
738509.42137588292825967073,-8.20711386455885,-7.26546525467696,-297.607119968261
738509.42137597338296473026,-8.20711386455885,-7.24700155644398,-297.597888119144
738509.42137606383766978979,-8.20711386455885,-7.25623340556047,-297.625583666494
738509.42137615429237484932,-8.22557756279183,-7.27469710379345,-297.579424420911
738509.42137624474707990885,-8.22557756279183,-7.26546525467696,-297.579424420911
738509.42137633520178496838,-8.23480941190832,-7.27469710379345,-297.616351817377
738509.42137642565649002790,-8.22557756279183,-7.27469710379345,-297.597888119144
738509.42137651611119508743,-8.20711386455885,-7.25623340556047,-297.616351817377
738509.42137660644948482513,-8.18865016632588,-7.24700155644398,-297.560960722678
738509.42137669690418988466,-8.21634571367534,-7.25623340556047,-297.607119968261
738509.42137678735889494419,-8.21634571367534,-7.26546525467696,-297.625583666494
738509.42137687781360000372,-8.19788201544237,-7.24700155644398,-297.616351817377
738509.42137696826830506325,-8.20711386455885,-7.24700155644398,-297.616351817377
738509.42137705872301012278,-8.20711386455885,-7.24700155644398,-297.671742912076
738509.42137714917771518230,-8.22557756279183,-7.26546525467696,-297.66251106296
738509.42137723963242024183,-8.22557756279183,-7.27469710379345,-297.653279213843
738509.42137733008712530136,-8.23480941190832,-7.27469710379345,-297.680974761193
738509.42137742054183036089,-8.23480941190832,-7.26546525467696,-297.597888119144
738509.42137751088012009859,-8.23480941190832,-7.26546525467696,-297.63481551561
738509.42137760133482515812,-8.23480941190832,-7.26546525467696,-297.653279213843
738509.42137769178953021765,-8.2532731101413,-7.26546525467696,-297.66251106296
738509.42137778224423527718,-8.24404126102481,-7.28392895290994,-297.653279213843
738509.42137787269894033670,-8.22557756279183,-7.25623340556047,-297.514801477096
738509.42137796315364539623,-8.21634571367534,-7.24700155644398,-297.542497024445
738509.42137805360835045576,-8.17941831720939,-7.25623340556047,-297.644047364727
738509.42137814406305551529,-8.1701864680929,-7.25623340556047,-297.63481551561
738509.42137823451776057482,-8.13325907162694,-7.23776970732749,-297.616351817377
738509.42137832497246563435,-8.10556352427747,-7.23776970732749,-297.597888119144
738509.42137841531075537205,-8.07786797692801,-7.228537858211,-297.551728873562
738509.42137850576546043158,-8.09633167516098,-7.228537858211,-297.542497024445
738509.42137859622016549110,-8.06863612781152,-7.21007415997803,-297.542497024445
738509.42137868667487055063,-8.14249092074343,-7.228537858211,-297.533265175329
738509.42137877712957561016,-8.17941831720939,-7.228537858211,-297.560960722678
738509.42137886758428066969,-8.26250495925779,-7.25623340556047,-297.551728873562
738509.42137895803898572922,-8.2532731101413,-7.26546525467696,-297.616351817377
738509.42137904849369078875,-8.28096865749077,-7.27469710379345,-297.63481551561
738509.42137913894839584827,-8.29020050660726,-7.28392895290994,-297.653279213843
738509.42137922940310090780,-8.28096865749077,-7.27469710379345,-297.644047364727
738509.42137931974139064550,-8.29943235572375,-7.28392895290994,-297.597888119144
738509.42137941019609570503,-8.29943235572375,-7.28392895290994,-297.671742912076
738509.42137950065080076456,-8.30866420484024,-7.28392895290994,-297.616351817377
738509.42137959110550582409,-8.29020050660726,-7.27469710379345,-297.579424420911
738509.42137968156021088362,-8.34559160130619,-7.27469710379345,-297.588656270028
738509.42137977201491594315,-8.43791009247108,-7.24700155644398,-297.63481551561
738509.42137986246962100267,-8.2532731101413,-7.24700155644398,-297.579424420911
738509.42137995292432606220,-7.60704367198706,-7.08082827234718,-297.551728873562
738509.42138004337903112173,-7.21930600909452,-6.93311868648335,-297.514801477096
738509.42138013371732085943,-6.94235053559984,-6.9792779320658,-297.524033326212
738509.42138022417202591896,-7.49626148258919,-6.94235053559984,-297.440946684164
738509.42138031462673097849,-8.35482345042268,-7.01620532853175,-297.570192571795
738509.42138040508143603802,-8.47483748893704,-7.10852381969665,-297.560960722678
738509.42138049553614109755,-8.36405529953917,-7.18237861262856,-297.570192571795
738509.42138058599084615707,-8.31789605395672,-7.228537858211,-297.597888119144
738509.42138067644555121660,-8.31789605395672,-7.25623340556047,-297.616351817377
738509.42138076690025627613,-8.29943235572375,-7.24700155644398,-297.63481551561
738509.42138085735496133566,-8.30866420484024,-7.25623340556047,-297.607119968261
738509.42138094780966639519,-8.30866420484024,-7.25623340556047,-297.607119968261
738509.42138103814795613289,-8.32712790307321,-7.26546525467696,-297.644047364727
738509.42138112860266119242,-8.29020050660726,-7.25623340556047,-297.588656270028
738509.42138121905736625195,-8.29020050660726,-7.24700155644398,-297.570192571795
738509.42138130951207131147,-8.29943235572375,-7.25623340556047,-297.588656270028
738509.42138139996677637100,-8.31789605395672,-7.26546525467696,-297.533265175329
738509.42138149042148143053,-8.29020050660726,-7.25623340556047,-297.514801477096
738509.42138158087618649006,-8.29020050660726,-7.25623340556047,-297.616351817377
738509.42138167133089154959,-8.28096865749077,-7.24700155644398,-297.625583666494
738509.42138176178559660912,-8.28096865749077,-7.23776970732749,-297.560960722678
738509.42138185224030166864,-8.26250495925779,-7.21930600909452,-297.644047364727
738509.42138194257859140635,-8.23480941190832,-7.21930600909452,-297.625583666494
738509.42138203303329646587,-8.22557756279183,-7.21007415997803,-297.63481551561
738509.42138212348800152540,-8.19788201544237,-7.17314676351207,-297.551728873562
738509.42138221394270658493,-8.17941831720939,-7.1454512161626,-297.607119968261
738509.42138230439741164446,-8.15172276985992,-7.12698751792962,-297.616351817377
738509.42138239485211670399,-8.15172276985992,-7.12698751792962,-297.616351817377
738509.42138248530682176352,-8.12402722251045,-7.10852381969665,-297.570192571795
738509.42138257576152682304,-8.09633167516098,-7.09929197058016,-297.570192571795
738509.42138266621623188257,-8.06863612781152,-7.07159642323069,-297.588656270028
738509.42138275667093694210,-8.06863612781152,-7.0623645741142,-297.514801477096
738509.42138284700922667980,-8.04094058046205,-7.0623645741142,-297.607119968261
738509.42138293746393173933,-8.05940427869503,-7.07159642323069,-297.588656270028
738509.42138302791863679886,-8.05017242957854,-7.08082827234718,-297.607119968261
738509.42138311837334185839,-8.05940427869503,-7.09929197058016,-297.542497024445
738509.42138320882804691792,-8.05017242957854,-7.11775566881313,-297.588656270028
738509.42138329928275197744,-8.09633167516098,-7.15468306527909,-297.579424420911
738509.42138338973745703697,-8.12402722251045,-7.19161046174505,-297.597888119144
738509.42138348019216209650,-8.15172276985992,-7.21930600909452,-297.560960722678
738509.42138357064686715603,-8.1701864680929,-7.228537858211,-297.570192571795
738509.42138366098515689373,-8.20711386455885,-7.25623340556047,-297.63481551561
738509.42138375143986195326,-8.22557756279183,-7.26546525467696,-297.579424420911
738509.42138384189456701279,-8.21634571367534,-7.25623340556047,-297.579424420911
738509.42138393234927207232,-8.22557756279183,-7.26546525467696,-297.588656270028
738509.42138402280397713184,-8.21634571367534,-7.25623340556047,-297.588656270028
738509.42138411325868219137,-8.21634571367534,-7.25623340556047,-297.597888119144
738509.42138420371338725090,-8.21634571367534,-7.26546525467696,-297.607119968261
738509.42138429416809231043,-8.21634571367534,-7.25623340556047,-297.597888119144
738509.42138438462279736996,-8.19788201544237,-7.24700155644398,-297.625583666494
738509.42138447507750242949,-8.19788201544237,-7.23776970732749,-297.63481551561
738509.42138456541579216719,-8.19788201544237,-7.24700155644398,-297.542497024445
738509.42138465587049722672,-8.21634571367534,-7.26546525467696,-297.588656270028
738509.42138474632520228624,-8.18865016632588,-7.23776970732749,-297.607119968261
738509.42138483677990734577,-8.18865016632588,-7.24700155644398,-297.579424420911
738509.42138492723461240530,-8.20711386455885,-7.25623340556047,-297.579424420911
738509.42138501768931746483,-8.20711386455885,-7.24700155644398,-297.505569627979
738509.42138510814402252436,-8.20711386455885,-7.25623340556047,-297.570192571795
738509.42138519859872758389,-8.18865016632588,-7.23776970732749,-297.607119968261
738509.42138528905343264341,-8.20711386455885,-7.24700155644398,-297.607119968261
738509.42138537950813770294,-8.18865016632588,-7.23776970732749,-297.616351817377
738509.42138546984642744064,-8.18865016632588,-7.24700155644398,-297.616351817377
738509.42138556030113250017,-8.1701864680929,-7.23776970732749,-297.551728873562
738509.42138565075583755970,-8.19788201544237,-7.24700155644398,-297.542497024445
738509.42138574121054261923,-8.18865016632588,-7.24700155644398,-297.63481551561
738509.42138583166524767876,-8.19788201544237,-7.23776970732749,-297.625583666494
738509.42138592211995273829,-8.18865016632588,-7.23776970732749,-297.625583666494
738509.42138601257465779781,-8.17941831720939,-7.23776970732749,-297.570192571795
738509.42138610302936285734,-8.15172276985992,-7.228537858211,-297.66251106296
738509.42138619348406791687,-8.14249092074343,-7.23776970732749,-297.644047364727
738509.42138628382235765457,-8.10556352427747,-7.21007415997803,-297.560960722678
738509.42138637427706271410,-8.05017242957854,-7.21007415997803,-297.616351817377
738509.42138646473176777363,-8.04094058046205,-7.228537858211,-297.644047364727
738509.42138655518647283316,-8.03170873134556,-7.21007415997803,-297.63481551561
738509.42138664564117789268,-8.03170873134556,-7.21007415997803,-297.625583666494
738509.42138673609588295221,-8.03170873134556,-7.20084231086154,-297.625583666494
738509.42138682655058801174,-8.0870998260445,-7.21930600909452,-297.644047364727
738509.42138691700529307127,-8.12402722251045,-7.21930600909452,-297.551728873562
738509.42138700745999813080,-8.20711386455885,-7.23776970732749,-297.616351817377
738509.42138709791470319033,-8.20711386455885,-7.25623340556047,-297.644047364727
738509.42138718825299292803,-8.22557756279183,-7.26546525467696,-297.63481551561
738509.42138727870769798756,-8.24404126102481,-7.25623340556047,-297.588656270028
738509.42138736916240304708,-8.24404126102481,-7.25623340556047,-297.551728873562
738509.42138745961710810661,-8.22557756279183,-7.25623340556047,-297.560960722678
738509.42138755007181316614,-8.23480941190832,-7.26546525467696,-297.542497024445
738509.42138764052651822567,-8.22557756279183,-7.25623340556047,-297.570192571795
738509.42138773098122328520,-8.26250495925779,-7.26546525467696,-297.616351817377
738509.42138782143592834473,-8.32712790307321,-7.27469710379345,-297.570192571795
738509.42138791189063340425,-8.40098269600513,-7.228537858211,-297.570192571795
738509.42138800234533846378,-7.9116946928312,-7.16391491439558,-297.505569627979
738509.42138809268362820148,-7.33932004760887,-6.99774163029878,-297.459410382397
738509.42138818313833326101,-6.98850978118229,-6.97004608294931,-297.47787408063
738509.42138827359303832054,-6.93311868648335,-6.97004608294931,-297.496337778863
738509.42138836404774338007,-7.93939024018067,-6.86849574266793,-297.514801477096
738509.42138845450244843960,-8.4194463942381,-7.0623645741142,-297.413251136814
738509.42138854495715349913,-8.36405529953917,-7.1454512161626,-297.524033326212
738509.42138863541185855865,-8.29943235572375,-7.18237861262856,-297.616351817377
738509.42138872586656361818,-8.2532731101413,-7.21930600909452,-297.597888119144
738509.42138881632126867771,-8.2532731101413,-7.23776970732749,-297.597888119144
738509.42138890677597373724,-8.26250495925779,-7.25623340556047,-297.63481551561
738509.42138899711426347494,-8.26250495925779,-7.25623340556047,-297.625583666494
738509.42138908756896853447,-8.2532731101413,-7.26546525467696,-297.579424420911
738509.42138917802367359400,-8.23480941190832,-7.25623340556047,-297.616351817377
738509.42138926847837865353,-8.23480941190832,-7.25623340556047,-297.625583666494
738509.42138935893308371305,-8.22557756279183,-7.24700155644398,-297.63481551561
738509.42138944938778877258,-8.20711386455885,-7.23776970732749,-297.542497024445
738509.42138953984249383211,-8.21634571367534,-7.25623340556047,-297.560960722678
738509.42138963029719889164,-8.19788201544237,-7.23776970732749,-297.607119968261
738509.42138972075190395117,-8.20711386455885,-7.228537858211,-297.570192571795
738509.42138981109019368887,-8.19788201544237,-7.228537858211,-297.597888119144
738509.42138990154489874840,-8.19788201544237,-7.228537858211,-297.607119968261
738509.42138999199960380793,-8.17941831720939,-7.21930600909452,-297.607119968261
738509.42139008245430886745,-8.1701864680929,-7.21007415997803,-297.616351817377
738509.42139017290901392698,-8.13325907162694,-7.18237861262856,-297.607119968261
738509.42139026336371898651,-8.13325907162694,-7.17314676351207,-297.63481551561
738509.42139035381842404604,-8.0870998260445,-7.1454512161626,-297.616351817377
738509.42139044427312910557,-8.07786797692801,-7.11775566881313,-297.579424420911
738509.42139053472783416510,-8.05017242957854,-7.09929197058016,-297.570192571795
738509.42139062518253922462,-8.02247688222907,-7.08082827234718,-297.560960722678
738509.42139071552082896233,-7.9947813348796,-7.07159642323069,-297.588656270028
738509.42139080597553402185,-7.97631763664663,-7.0623645741142,-297.570192571795
738509.42139089643023908138,-7.98554948576311,-7.05313272499771,-297.514801477096
738509.42139098688494414091,-7.95785393841365,-7.04390087588122,-297.514801477096
738509.42139107733964920044,-7.96708578753014,-7.07159642323069,-297.496337778863
738509.42139116779435425997,-7.97631763664663,-7.08082827234718,-297.459410382397
738509.42139125824905931950,-7.98554948576311,-7.12698751792962,-297.505569627979
738509.42139134870376437902,-7.9947813348796,-7.15468306527909,-297.524033326212
738509.42139143915846943855,-8.04094058046205,-7.19161046174505,-297.524033326212
738509.42139152961317449808,-8.05940427869503,-7.20084231086154,-297.597888119144
738509.42139161995146423578,-8.0870998260445,-7.21930600909452,-297.616351817377
738509.42139171040616929531,-8.10556352427747,-7.23776970732749,-297.597888119144
738509.42139180086087435484,-8.12402722251045,-7.24700155644398,-297.607119968261
738509.42139189131557941437,-8.13325907162694,-7.24700155644398,-297.66251106296
738509.42139198177028447390,-8.13325907162694,-7.24700155644398,-297.468642231513
738509.42139207222498953342,-8.10556352427747,-7.24700155644398,-297.514801477096
738509.42139216267969459295,-8.13325907162694,-7.24700155644398,-297.625583666494
738509.42139225313439965248,-8.14249092074343,-7.26546525467696,-297.644047364727
738509.42139234358910471201,-8.15172276985992,-7.26546525467696,-297.588656270028
738509.42139243392739444971,-8.14249092074343,-7.26546525467696,-297.570192571795
738509.42139252438209950924,-8.12402722251045,-7.24700155644398,-297.542497024445
738509.42139261483680456877,-8.13325907162694,-7.25623340556047,-297.542497024445
738509.42139270529150962830,-8.12402722251045,-7.24700155644398,-297.560960722678
738509.42139279574621468782,-8.11479537339396,-7.24700155644398,-297.560960722678
738509.42139288620091974735,-8.10556352427747,-7.24700155644398,-297.597888119144
738509.42139297665562480688,-8.10556352427747,-7.24700155644398,-297.597888119144
738509.42139306711032986641,-8.10556352427747,-7.24700155644398,-297.551728873562
738509.42139315756503492594,-8.10556352427747,-7.24700155644398,-297.653279213843
738509.42139324801973998547,-8.09633167516098,-7.23776970732749,-297.63481551561
738509.42139333835802972317,-8.12402722251045,-7.24700155644398,-297.570192571795
738509.42139342881273478270,-8.11479537339396,-7.24700155644398,-297.588656270028
738509.42139351926743984222,-8.10556352427747,-7.24700155644398,-297.588656270028
738509.42139360972214490175,-8.11479537339396,-7.25623340556047,-297.625583666494
738509.42139370017684996128,-8.11479537339396,-7.24700155644398,-297.607119968261
738509.42139379063155502081,-8.10556352427747,-7.24700155644398,-297.597888119144
738509.42139388108626008034,-8.11479537339396,-7.24700155644398,-297.597888119144
738509.42139397154096513987,-8.12402722251045,-7.25623340556047,-297.63481551561
738509.42139406199567019939,-8.13325907162694,-7.24700155644398,-297.644047364727
738509.42139415245037525892,-8.13325907162694,-7.25623340556047,-297.616351817377
738509.42139424278866499662,-8.13325907162694,-7.23776970732749,-297.644047364727
738509.42139433324337005615,-8.14249092074343,-7.24700155644398,-297.63481551561
738509.42139442369807511568,-8.12402722251045,-7.24700155644398,-297.588656270028
738509.42139451415278017521,-8.10556352427747,-7.23776970732749,-297.644047364727
738509.42139460460748523474,-8.07786797692801,-7.23776970732749,-297.66251106296
738509.42139469506219029427,-8.05940427869503,-7.23776970732749,-297.653279213843
738509.42139478551689535379,-8.03170873134556,-7.21930600909452,-297.625583666494
738509.42139487597160041332,-7.98554948576311,-7.21930600909452,-297.63481551561
738509.42139496642630547285,-7.98554948576311,-7.23776970732749,-297.644047364727
738509.42139505688101053238,-7.96708578753014,-7.21007415997803,-297.579424420911
738509.42139514721930027008,-7.94862208929716,-7.21007415997803,-297.66251106296
738509.42139523767400532961,-8.00401318399609,-7.20084231086154,-297.644047364727
738509.42139532812871038914,-8.04094058046205,-7.21930600909452,-297.551728873562
738509.42139541858341544867,-8.07786797692801,-7.21930600909452,-297.616351817377
738509.42139550903812050819,-8.16095461897641,-7.26546525467696,-297.514801477096
738509.42139559949282556772,-8.16095461897641,-7.29316080202643,-297.514801477096
738509.42139568994753062725,-8.18865016632588,-7.28392895290994,-297.63481551561
738509.42139578040223568678,-8.1701864680929,-7.28392895290994,-297.570192571795
738509.42139587085694074631,-8.1701864680929,-7.28392895290994,-297.551728873562
738509.42139596119523048401,-8.16095461897641,-7.27469710379345,-297.542497024445
738509.42139605164993554354,-8.1701864680929,-7.28392895290994,-297.551728873562
738509.42139614210464060307,-8.17941831720939,-7.25623340556047,-297.560960722678
738509.42139623255934566259,-8.19788201544237,-7.25623340556047,-297.560960722678
738509.42139632301405072212,-8.30866420484024,-7.24700155644398,-297.616351817377
738509.42139641346875578165,-8.19788201544237,-7.21007415997803,-297.570192571795
738509.42139650392346084118,-7.58857997375408,-7.11775566881313,-297.496337778863
738509.42139659437816590071,-7.1454512161626,-6.97004608294931,-297.468642231513
738509.42139668483287096024,-6.89619129001739,-6.9792779320658,-297.505569627979
738509.42139677528757601976,-7.21930600909452,-6.85926389355144,-297.468642231513
738509.42139686562586575747,-8.24404126102481,-6.93311868648335,-297.524033326212
738509.42139695608057081699,-8.30866420484024,-7.05313272499771,-297.551728873562
738509.42139704653527587652,-8.19788201544237,-7.16391491439558,-297.579424420911
738509.42139713698998093605,-8.17941831720939,-7.21007415997803,-297.597888119144
738509.42139722744468599558,-8.20711386455885,-7.27469710379345,-297.63481551561
738509.42139731789939105511,-8.20711386455885,-7.27469710379345,-297.616351817377
738509.42139740835409611464,-8.20711386455885,-7.28392895290994,-297.607119968261
738509.42139749880880117416,-8.18865016632588,-7.27469710379345,-297.625583666494
738509.42139758926350623369,-8.17941831720939,-7.27469710379345,-297.63481551561
738509.42139767971821129322,-8.1701864680929,-7.25623340556047,-297.597888119144
738509.42139777005650103092,-8.17941831720939,-7.26546525467696,-297.653279213843
738509.42139786051120609045,-8.15172276985992,-7.25623340556047,-297.644047364727
738509.42139795096591114998,-8.16095461897641,-7.24700155644398,-297.607119968261
738509.42139804142061620951,-8.14249092074343,-7.24700155644398,-297.616351817377
738509.42139813187532126904,-8.14249092074343,-7.24700155644398,-297.644047364727
738509.42139822233002632856,-8.14249092074343,-7.24700155644398,-297.625583666494
738509.42139831278473138809,-8.11479537339396,-7.21930600909452,-297.570192571795
738509.42139840323943644762,-8.13325907162694,-7.228537858211,-297.579424420911
738509.42139849369414150715,-8.09633167516098,-7.21007415997803,-297.644047364727
738509.42139858403243124485,-8.0870998260445,-7.20084231086154,-297.625583666494
738509.42139867448713630438,-8.06863612781152,-7.18237861262856,-297.625583666494
738509.42139876494184136391,-8.04094058046205,-7.16391491439558,-297.524033326212
738509.42139885539654642344,-8.01324503311258,-7.12698751792962,-297.616351817377
738509.42139894585125148296,-7.9947813348796,-7.10852381969665,-297.63481551561
738509.42139903630595654249,-7.95785393841365,-7.08082827234718,-297.422482985931
738509.42139912676066160202,-7.93939024018067,-7.0623645741142,-297.47787408063
738509.42139921721536666155,-7.9116946928312,-7.05313272499771,-297.514801477096
738509.42139930767007172108,-7.90246284371471,-7.04390087588122,-297.47787408063
738509.42139939812477678061,-7.87476729636525,-7.02543717764824,-297.487105929746
738509.42139948846306651831,-7.89323099459822,-7.04390087588122,-297.496337778863
738509.42139957891777157784,-7.88399914548173,-7.08082827234718,-297.524033326212
738509.42139966937247663736,-7.89323099459822,-7.09929197058016,-297.524033326212
738509.42139975982718169689,-7.92092654194769,-7.12698751792962,-297.597888119144
738509.42139985028188675642,-7.93939024018067,-7.15468306527909,-297.625583666494
738509.42139994073659181595,-7.97631763664663,-7.21007415997803,-297.542497024445
738509.42140003119129687548,-7.98554948576311,-7.21930600909452,-297.579424420911
738509.42140012164600193501,-8.03170873134556,-7.23776970732749,-297.625583666494
738509.42140021210070699453,-8.05017242957854,-7.24700155644398,-297.644047364727
738509.42140030255541205406,-8.05940427869503,-7.24700155644398,-297.533265175329
738509.42140039289370179176,-8.05017242957854,-7.25623340556047,-297.625583666494
738509.42140048334840685129,-8.05940427869503,-7.25623340556047,-297.597888119144
738509.42140057380311191082,-8.05940427869503,-7.25623340556047,-297.588656270028
738509.42140066425781697035,-8.06863612781152,-7.26546525467696,-297.579424420911
738509.42140075471252202988,-8.05940427869503,-7.25623340556047,-297.579424420911
738509.42140084516722708941,-8.06863612781152,-7.26546525467696,-297.570192571795
738509.42140093562193214893,-8.05940427869503,-7.24700155644398,-297.579424420911
738509.42140102607663720846,-8.04094058046205,-7.23776970732749,-297.551728873562
738509.42140111653134226799,-8.05017242957854,-7.25623340556047,-297.607119968261
738509.42140120698604732752,-8.05017242957854,-7.24700155644398,-297.607119968261
738509.42140129732433706522,-8.05017242957854,-7.24700155644398,-297.63481551561
738509.42140138777904212475,-8.04094058046205,-7.23776970732749,-297.560960722678
738509.42140147823374718428,-8.06863612781152,-7.25623340556047,-297.607119968261
738509.42140156868845224380,-8.05940427869503,-7.25623340556047,-297.579424420911
738509.42140165914315730333,-8.05940427869503,-7.25623340556047,-297.588656270028
738509.42140174959786236286,-8.04094058046205,-7.24700155644398,-297.597888119144
738509.42140184005256742239,-8.05940427869503,-7.24700155644398,-297.644047364727
738509.42140193050727248192,-8.05017242957854,-7.25623340556047,-297.625583666494
738509.42140202096197754145,-8.04094058046205,-7.24700155644398,-297.607119968261
738509.42140211130026727915,-8.05017242957854,-7.24700155644398,-297.542497024445
738509.42140220175497233868,-8.04094058046205,-7.23776970732749,-297.597888119144
738509.42140229220967739820,-8.06863612781152,-7.25623340556047,-297.63481551561
738509.42140238266438245773,-8.05940427869503,-7.24700155644398,-297.597888119144
738509.42140247311908751726,-8.06863612781152,-7.25623340556047,-297.551728873562
738509.42140256357379257679,-8.05940427869503,-7.26546525467696,-297.45017853328
738509.42140265402849763632,-8.05940427869503,-7.25623340556047,-297.524033326212
738509.42140274448320269585,-8.05940427869503,-7.24700155644398,-297.625583666494
738509.42140283493790775537,-8.05940427869503,-7.25623340556047,-297.579424420911
738509.42140292539261281490,-8.05940427869503,-7.25623340556047,-297.524033326212
738509.42140301573090255260,-8.0870998260445,-7.26546525467696,-297.551728873562
738509.42140310618560761213,-8.05017242957854,-7.23776970732749,-297.551728873562
738509.42140319664031267166,-8.04094058046205,-7.24700155644398,-297.505569627979
738509.42140328709501773119,-7.9947813348796,-7.228537858211,-297.607119968261
738509.42140337754972279072,-8.00401318399609,-7.21930600909452,-297.607119968261
738509.42140346800442785025,-7.9116946928312,-7.21007415997803,-297.607119968261
738509.42140355845913290977,-7.90246284371471,-7.228537858211,-297.616351817377
738509.42140364891383796930,-7.90246284371471,-7.21930600909452,-297.644047364727
738509.42140373936854302883,-7.9116946928312,-7.21930600909452,-297.625583666494
738509.42140382982324808836,-7.92092654194769,-7.21007415997803,-297.570192571795
738509.42140392016153782606,-7.93939024018067,-7.20084231086154,-297.625583666494
738509.42140401061624288559,-8.03170873134556,-7.23776970732749,-297.625583666494
738509.42140410107094794512,-8.0870998260445,-7.23776970732749,-297.63481551561
738509.42140419152565300465,-8.11479537339396,-7.27469710379345,-297.533265175329
738509.42140428198035806417,-8.10556352427747,-7.26546525467696,-297.533265175329
738509.42140437243506312370,-8.13325907162694,-7.28392895290994,-297.579424420911
738509.42140446288976818323,-8.10556352427747,-7.28392895290994,-297.607119968261
738509.42140455334447324276,-8.14249092074343,-7.28392895290994,-297.588656270028
738509.42140464379917830229,-8.12402722251045,-7.28392895290994,-297.625583666494
738509.42140473425388336182,-8.14249092074343,-7.29316080202643,-297.579424420911
738509.42140482459217309952,-8.14249092074343,-7.29316080202643,-297.597888119144
738509.42140491504687815905,-8.23480941190832,-7.27469710379345,-297.597888119144
738509.42140500550158321857,-8.22557756279183,-7.21007415997803,-297.625583666494
738509.42140509595628827810,-7.65320291756951,-7.16391491439558,-297.570192571795
738509.42140518641099333763,-7.23776970732749,-7.01620532853175,-297.533265175329
738509.42140527686569839716,-6.95158238471633,-7.01620532853175,-297.551728873562
738509.42140536732040345669,-7.12698751792962,-6.89619129001739,-297.505569627979
738509.42140545777510851622,-8.10556352427747,-6.86849574266793,-297.505569627979
738509.42140554822981357574,-8.28096865749077,-7.07159642323069,-297.625583666494
738509.42140563856810331345,-8.16095461897641,-7.16391491439558,-297.625583666494
738509.42140572902280837297,-8.15172276985992,-7.21007415997803,-297.607119968261
738509.42140581947751343250,-8.14249092074343,-7.26546525467696,-297.597888119144
738509.42140590993221849203,-8.17941831720939,-7.29316080202643,-297.551728873562
738509.42140600038692355156,-8.15172276985992,-7.28392895290994,-297.597888119144
738509.42140609084162861109,-8.16095461897641,-7.30239265114292,-297.514801477096
738509.42140618129633367062,-8.13325907162694,-7.30239265114292,-297.505569627979
738509.42140627175103873014,-8.13325907162694,-7.28392895290994,-297.607119968261
738509.42140636220574378967,-8.12402722251045,-7.30239265114292,-297.607119968261
738509.42140645266044884920,-8.0870998260445,-7.28392895290994,-297.588656270028
738509.42140654299873858690,-8.09633167516098,-7.27469710379345,-297.63481551561
738509.42140663345344364643,-8.10556352427747,-7.27469710379345,-297.63481551561
738509.42140672390814870596,-8.06863612781152,-7.27469710379345,-297.570192571795
738509.42140681436285376549,-8.07786797692801,-7.25623340556047,-297.579424420911
738509.42140690481755882502,-8.06863612781152,-7.25623340556047,-297.560960722678
738509.42140699527226388454,-8.05017242957854,-7.23776970732749,-297.616351817377
738509.42140708572696894407,-8.03170873134556,-7.23776970732749,-297.625583666494
738509.42140717618167400360,-8.02247688222907,-7.21930600909452,-297.63481551561
738509.42140726663637906313,-7.9947813348796,-7.20084231086154,-297.551728873562
738509.42140735709108412266,-7.96708578753014,-7.17314676351207,-297.616351817377
738509.42140744742937386036,-7.93939024018067,-7.16391491439558,-297.625583666494
738509.42140753788407891989,-7.92092654194769,-7.12698751792962,-297.551728873562
738509.42140762833878397942,-7.88399914548173,-7.10852381969665,-297.542497024445
738509.42140771879348903894,-7.88399914548173,-7.09006012146367,-297.588656270028
738509.42140780924819409847,-7.85630359813227,-7.0623645741142,-297.542497024445
738509.42140789970289915800,-7.78244880520035,-7.05313272499771,-297.459410382397
738509.42140799015760421753,-7.81937620166631,-7.03466902676473,-297.505569627979
738509.42140808061230927706,-7.78244880520035,-7.04390087588122,-297.514801477096
738509.42140817106701433659,-7.78244880520035,-7.05313272499771,-297.487105929746
738509.42140826140530407429,-7.79168065431684,-7.09006012146367,-297.570192571795
738509.42140835186000913382,-7.79168065431684,-7.10852381969665,-297.607119968261
738509.42140844231471419334,-7.84707174901578,-7.16391491439558,-297.63481551561
738509.42140853276941925287,-7.84707174901578,-7.18237861262856,-297.597888119144
738509.42140862322412431240,-7.90246284371471,-7.228537858211,-297.616351817377
738509.42140871367882937193,-7.93939024018067,-7.23776970732749,-297.616351817377
738509.42140880413353443146,-7.94862208929716,-7.23776970732749,-297.616351817377
738509.42140889458823949099,-7.96708578753014,-7.23776970732749,-297.570192571795
738509.42140898504294455051,-7.98554948576311,-7.25623340556047,-297.579424420911
738509.42140907549764961004,-7.95785393841365,-7.25623340556047,-297.588656270028
738509.42140916583593934774,-7.94862208929716,-7.25623340556047,-297.616351817377
738509.42140925629064440727,-7.96708578753014,-7.21007415997803,-297.607119968261
738509.42140934674534946680,-7.96708578753014,-7.228537858211,-297.579424420911
738509.42140943720005452633,-7.97631763664663,-7.228537858211,-297.616351817377
738509.42140952765475958586,-7.95785393841365,-7.23776970732749,-297.625583666494
738509.42140961810946464539,-7.97631763664663,-7.23776970732749,-297.579424420911
738509.42140970856416970491,-7.97631763664663,-7.228537858211,-297.524033326212
738509.42140979901887476444,-8.00401318399609,-7.25623340556047,-297.63481551561
738509.42140988947357982397,-8.00401318399609,-7.21007415997803,-297.570192571795
738509.42140997992828488350,-7.9947813348796,-7.21007415997803,-297.597888119144
738509.42141007026657462120,-7.9947813348796,-7.21007415997803,-297.63481551561
738509.42141016072127968073,-8.02247688222907,-7.228537858211,-297.597888119144
738509.42141025117598474026,-8.00401318399609,-7.20084231086154,-297.625583666494
738509.42141034163068979979,-8.03170873134556,-7.21007415997803,-297.653279213843
738509.42141043208539485931,-8.02247688222907,-7.20084231086154,-297.66251106296
738509.42141052254009991884,-8.03170873134556,-7.21930600909452,-297.570192571795
738509.42141061299480497837,-8.04094058046205,-7.21007415997803,-297.625583666494
738509.42141070344951003790,-8.03170873134556,-7.21007415997803,-297.597888119144
738509.42141079390421509743,-8.06863612781152,-7.21007415997803,-297.625583666494
738509.42141088435892015696,-8.05940427869503,-7.21930600909452,-297.616351817377
738509.42141097469720989466,-8.04094058046205,-7.21007415997803,-297.653279213843
738509.42141106515191495419,-8.07786797692801,-7.21007415997803,-297.680974761193
738509.42141115560662001371,-8.07786797692801,-7.21007415997803,-297.66251106296
738509.42141124606132507324,-8.09633167516098,-7.21007415997803,-297.597888119144
738509.42141133651603013277,-8.13325907162694,-7.228537858211,-297.690206610309
738509.42141142697073519230,-8.13325907162694,-7.21930600909452,-297.680974761193
738509.42141151742544025183,-8.11479537339396,-7.21930600909452,-297.690206610309
738509.42141160788014531136,-8.09633167516098,-7.21007415997803,-297.607119968261
738509.42141169833485037088,-8.09633167516098,-7.21930600909452,-297.66251106296
738509.42141178867314010859,-8.09633167516098,-7.21930600909452,-297.708670308542
738509.42141187912784516811,-8.07786797692801,-7.21007415997803,-297.653279213843
738509.42141196958255022764,-8.04094058046205,-7.19161046174505,-297.63481551561
738509.42141206003725528717,-8.02247688222907,-7.18237861262856,-297.690206610309
738509.42141215049196034670,-7.98554948576311,-7.18237861262856,-297.708670308542
738509.42141224094666540623,-7.97631763664663,-7.18237861262856,-297.588656270028
738509.42141233140137046576,-7.9947813348796,-7.16391491439558,-297.66251106296
738509.42141242185607552528,-7.98554948576311,-7.17314676351207,-297.680974761193
738509.42141251231078058481,-8.00401318399609,-7.16391491439558,-297.625583666494
738509.42141260276548564434,-8.06863612781152,-7.17314676351207,-297.671742912076
738509.42141269310377538204,-8.1701864680929,-7.21007415997803,-297.680974761193
738509.42141278355848044157,-8.21634571367534,-7.25623340556047,-297.671742912076
738509.42141287401318550110,-8.20711386455885,-7.23776970732749,-297.63481551561
738509.42141296446789056063,-8.23480941190832,-7.23776970732749,-297.699438459426
738509.42141305492259562016,-8.2532731101413,-7.25623340556047,-297.66251106296
738509.42141314537730067968,-8.24404126102481,-7.24700155644398,-297.440946684164
738509.42141323583200573921,-8.23480941190832,-7.24700155644398,-297.616351817377
738509.42141332628671079874,-8.23480941190832,-7.24700155644398,-297.66251106296
738509.42141341674141585827,-8.2532731101413,-7.23776970732749,-297.690206610309
738509.42141350719612091780,-8.29020050660726,-7.228537858211,-297.607119968261
738509.42141359753441065550,-8.41021454512162,-7.18237861262856,-297.63481551561
738509.42141368798911571503,-8.15172276985992,-7.1454512161626,-297.607119968261
738509.42141377844382077456,-7.5701162755211,-7.05313272499771,-297.505569627979
738509.42141386889852583408,-7.1454512161626,-6.96081423383282,-297.570192571795
738509.42141395935323089361,-6.96081423383282,-7.00697347941527,-297.551728873562
738509.42141404980793595314,-7.64397106845302,-6.85926389355144,-297.560960722678
738509.42141414026264101267,-8.40098269600513,-7.01620532853175,-297.607119968261
738509.42141423071734607220,-8.38251899777215,-7.08082827234718,-297.644047364727
738509.42141432117205113173,-8.29943235572375,-7.17314676351207,-297.579424420911
738509.42141441151034086943,-8.29020050660726,-7.21930600909452,-297.588656270028
738509.42141450196504592896,-8.28096865749077,-7.23776970732749,-297.616351817377
738509.42141459241975098848,-8.26250495925779,-7.24700155644398,-297.607119968261
738509.42141468287445604801,-8.24404126102481,-7.21930600909452,-297.644047364727
738509.42141477332916110754,-8.31789605395672,-7.23776970732749,-297.680974761193
738509.42141486378386616707,-8.29943235572375,-7.25623340556047,-297.597888119144
738509.42141495423857122660,-8.28096865749077,-7.23776970732749,-297.607119968261
738509.42141504469327628613,-8.28096865749077,-7.23776970732749,-297.597888119144
738509.42141513514798134565,-8.27173680837428,-7.228537858211,-297.63481551561
738509.42141522560268640518,-8.26250495925779,-7.21930600909452,-297.607119968261
738509.42141531594097614288,-8.23480941190832,-7.21007415997803,-297.616351817377
738509.42141540639568120241,-8.2532731101413,-7.21930600909452,-297.653279213843
738509.42141549685038626194,-8.26250495925779,-7.21930600909452,-297.653279213843
738509.42141558730509132147,-8.24404126102481,-7.21007415997803,-297.671742912076
738509.42141567775979638100,-8.26250495925779,-7.21007415997803,-297.671742912076
738509.42141576821450144053,-8.2532731101413,-7.21007415997803,-297.607119968261
738509.42141585866920650005,-8.24404126102481,-7.18237861262856,-297.699438459426
738509.42141594912391155958,-8.19788201544237,-7.16391491439558,-297.671742912076
738509.42141603957861661911,-8.1701864680929,-7.1454512161626,-297.597888119144
738509.42141613003332167864,-8.10556352427747,-7.11775566881313,-297.66251106296
738509.42141622037161141634,-8.11479537339396,-7.07159642323069,-297.66251106296
738509.42141631082631647587,-8.10556352427747,-7.07159642323069,-297.671742912076
738509.42141640128102153540,-8.0870998260445,-7.0623645741142,-297.616351817377
738509.42141649173572659492,-8.06863612781152,-7.05313272499771,-297.63481551561
738509.42141658219043165445,-8.04094058046205,-7.04390087588122,-297.644047364727
738509.42141667264513671398,-8.05017242957854,-7.04390087588122,-297.394787438581
738509.42141676309984177351,-8.05017242957854,-7.05313272499771,-297.579424420911
738509.42141685355454683304,-8.03170873134556,-7.05313272499771,-297.66251106296
738509.42141694400925189257,-8.04094058046205,-7.09929197058016,-297.597888119144
738509.42141703446395695210,-8.09633167516098,-7.12698751792962,-297.653279213843
738509.42141712480224668980,-8.12402722251045,-7.16391491439558,-297.680974761193
738509.42141721525695174932,-8.15172276985992,-7.18237861262856,-297.653279213843
738509.42141730571165680885,-8.17941831720939,-7.19161046174505,-297.607119968261
738509.42141739616636186838,-8.18865016632588,-7.19161046174505,-297.727134006775
738509.42141748662106692791,-8.24404126102481,-7.24700155644398,-297.690206610309
738509.42141757707577198744,-8.24404126102481,-7.24700155644398,-297.644047364727
738509.42141766753047704697,-8.2532731101413,-7.25623340556047,-297.616351817377
738509.42141775798518210649,-8.22557756279183,-7.23776970732749,-297.63481551561
738509.42141784843988716602,-8.2532731101413,-7.25623340556047,-297.63481551561
738509.42141793877817690372,-8.23480941190832,-7.24700155644398,-297.607119968261
738509.42141802923288196325,-8.23480941190832,-7.23776970732749,-297.644047364727
738509.42141811968758702278,-8.23480941190832,-7.21007415997803,-297.671742912076
738509.42141821014229208231,-8.2532731101413,-7.24700155644398,-297.644047364727
738509.42141830059699714184,-8.23480941190832,-7.23776970732749,-297.579424420911
738509.42141839105170220137,-8.22557756279183,-7.228537858211,-297.616351817377
738509.42141848150640726089,-8.23480941190832,-7.24700155644398,-297.625583666494
738509.42141857196111232042,-8.22557756279183,-7.24700155644398,-297.616351817377
738509.42141866241581737995,-8.2532731101413,-7.26546525467696,-297.597888119144
738509.42141875287052243948,-8.23480941190832,-7.23776970732749,-297.607119968261
738509.42141884320881217718,-8.22557756279183,-7.228537858211,-297.653279213843
738509.42141893366351723671,-8.20711386455885,-7.228537858211,-297.597888119144
738509.42141902411822229624,-8.23480941190832,-7.23776970732749,-297.66251106296
738509.42141911457292735577,-8.22557756279183,-7.228537858211,-297.671742912076
738509.42141920502763241529,-8.24404126102481,-7.24700155644398,-297.588656270028
738509.42141929548233747482,-8.21634571367534,-7.228537858211,-297.616351817377
738509.42141938593704253435,-8.23480941190832,-7.24700155644398,-297.625583666494
738509.42141947639174759388,-8.21634571367534,-7.23776970732749,-297.644047364727
738509.42141956684645265341,-8.19788201544237,-7.21930600909452,-297.653279213843
738509.42141965730115771294,-8.15172276985992,-7.21930600909452,-297.597888119144
738509.42141974763944745064,-8.11479537339396,-7.19161046174505,-297.653279213843
738509.42141983809415251017,-8.13325907162694,-7.20084231086154,-297.671742912076
738509.42141992854885756969,-8.09633167516098,-7.20084231086154,-297.671742912076
738509.42142001900356262922,-8.05017242957854,-7.20084231086154,-297.66251106296
738509.42142010945826768875,-8.06863612781152,-7.21007415997803,-297.66251106296
738509.42142019991297274828,-8.09633167516098,-7.21007415997803,-297.524033326212
738509.42142029036767780781,-8.11479537339396,-7.19161046174505,-297.524033326212
738509.42142038082238286734,-8.19788201544237,-7.21930600909452,-297.644047364727
738509.42142047127708792686,-8.27173680837428,-7.23776970732749,-297.699438459426
738509.42142056161537766457,-8.27173680837428,-7.24700155644398,-297.588656270028
738509.42142065207008272409,-8.26250495925779,-7.228537858211,-297.671742912076
738509.42142074252478778362,-8.30866420484024,-7.26546525467696,-297.671742912076
738509.42142083297949284315,-8.29943235572375,-7.25623340556047,-297.653279213843
738509.42142092343419790268,-8.29020050660726,-7.24700155644398,-297.616351817377
738509.42142101388890296221,-8.29020050660726,-7.24700155644398,-297.680974761193
738509.42142110434360802174,-8.30866420484024,-7.26546525467696,-297.717902157659
738509.42142119479831308126,-8.31789605395672,-7.26546525467696,-297.625583666494
738509.42142128525301814079,-8.38251899777215,-7.26546525467696,-297.690206610309
738509.42142137570772320032,-8.48406933805353,-7.24700155644398,-297.680974761193
738509.42142146604601293802,-8.22557756279183,-7.21007415997803,-297.625583666494
738509.42142155650071799755,-7.60704367198706,-7.09929197058016,-297.579424420911
738509.42142164695542305708,-7.21007415997803,-6.95158238471633,-297.607119968261
738509.42142173741012811661,-6.96081423383282,-6.99774163029878,-297.579424420911
738509.42142182786483317614,-7.55165257728812,-6.94235053559984,-297.524033326212
738509.42142191831953823566,-8.36405529953917,-7.01620532853175,-297.671742912076
738509.42142200877424329519,-8.43791009247108,-7.09006012146367,-297.551728873562
738509.42142209922894835472,-8.36405529953917,-7.15468306527909,-297.570192571795
738509.42142218968365341425,-8.31789605395672,-7.21007415997803,-297.579424420911
738509.42142228013835847378,-8.35482345042268,-7.27469710379345,-297.579424420911
738509.42142237047664821148,-8.35482345042268,-7.24700155644398,-297.597888119144
738509.42142246093135327101,-8.36405529953917,-7.25623340556047,-297.616351817377
738509.42142255138605833054,-8.31789605395672,-7.25623340556047,-297.625583666494
738509.42142264184076339006,-8.32712790307321,-7.25623340556047,-297.66251106296
738509.42142273229546844959,-8.3363597521897,-7.228537858211,-297.588656270028
738509.42142282275017350912,-8.31789605395672,-7.21930600909452,-297.607119968261
738509.42142291320487856865,-8.31789605395672,-7.21930600909452,-297.63481551561
738509.42142300365958362818,-8.29943235572375,-7.20084231086154,-297.63481551561
738509.42142309411428868771,-8.26250495925779,-7.18237861262856,-297.63481551561
738509.42142318456899374723,-8.26250495925779,-7.20084231086154,-297.653279213843
738509.42142327490728348494,-8.38251899777215,-7.26546525467696,-297.680974761193
738509.42142336536198854446,-8.32712790307321,-7.23776970732749,-297.680974761193
738509.42142345581669360399,-8.3363597521897,-7.21007415997803,-297.570192571795
738509.42142354627139866352,-8.31789605395672,-7.21007415997803,-297.653279213843
738509.42142363672610372305,-8.28096865749077,-7.20084231086154,-297.653279213843
738509.42142372718080878258,-8.28096865749077,-7.17314676351207,-297.542497024445
738509.42142381763551384211,-8.24404126102481,-7.15468306527909,-297.514801477096
738509.42142390809021890163,-8.19788201544237,-7.1454512161626,-297.63481551561
738509.42142399854492396116,-8.19788201544237,-7.11775566881313,-297.616351817377
738509.42142408888321369886,-8.18865016632588,-7.08082827234718,-297.63481551561
738509.42142417933791875839,-8.13325907162694,-7.0623645741142,-297.644047364727
738509.42142426979262381792,-8.11479537339396,-7.05313272499771,-297.653279213843
738509.42142436024732887745,-8.13325907162694,-7.09006012146367,-297.625583666494
738509.42142445070203393698,-8.14249092074343,-7.08082827234718,-297.625583666494
738509.42142454115673899651,-8.11479537339396,-7.09929197058016,-297.625583666494
738509.42142463161144405603,-8.13325907162694,-7.1454512161626,-297.671742912076
738509.42142472206614911556,-8.12402722251045,-7.1454512161626,-297.644047364727
738509.42142481252085417509,-8.1701864680929,-7.15468306527909,-297.690206610309
738509.42142490297555923462,-8.17941831720939,-7.17314676351207,-297.690206610309
738509.42142499331384897232,-8.21634571367534,-7.19161046174505,-297.680974761193
738509.42142508376855403185,-8.21634571367534,-7.21930600909452,-297.616351817377
738509.42142517422325909138,-8.21634571367534,-7.21007415997803,-297.66251106296
738509.42142526467796415091,-8.23480941190832,-7.21007415997803,-297.708670308542
738509.42142535513266921043,-8.26250495925779,-7.24700155644398,-297.607119968261
738509.42142544558737426996,-8.26250495925779,-7.24700155644398,-297.717902157659
738509.42142553604207932949,-8.28096865749077,-7.25623340556047,-297.699438459426
738509.42142562649678438902,-8.29020050660726,-7.25623340556047,-297.66251106296
738509.42142571695148944855,-8.2532731101413,-7.228537858211,-297.671742912076
738509.42142580740619450808,-8.26250495925779,-7.24700155644398,-297.699438459426
738509.42142589774448424578,-8.27173680837428,-7.27469710379345,-297.727134006775
738509.42142598819918930531,-8.28096865749077,-7.25623340556047,-297.63481551561
738509.42142607865389436483,-8.27173680837428,-7.23776970732749,-297.690206610309
738509.42142616910859942436,-8.23480941190832,-7.25623340556047,-297.63481551561
738509.42142625956330448389,-8.24404126102481,-7.21930600909452,-297.63481551561
738509.42142635001800954342,-8.23480941190832,-7.21007415997803,-297.644047364727
738509.42142644047271460295,-8.23480941190832,-7.21930600909452,-297.616351817377
738509.42142653092741966248,-8.24404126102481,-7.23776970732749,-297.588656270028
738509.42142662138212472200,-8.23480941190832,-7.26546525467696,-297.66251106296
738509.42142671183682978153,-8.24404126102481,-7.25623340556047,-297.63481551561
738509.42142680217511951923,-8.27173680837428,-7.26546525467696,-297.607119968261
738509.42142689262982457876,-8.24404126102481,-7.25623340556047,-297.66251106296
738509.42142698308452963829,-8.22557756279183,-7.24700155644398,-297.625583666494
738509.42142707353923469782,-8.20711386455885,-7.21930600909452,-297.63481551561
738509.42142716399393975735,-8.18865016632588,-7.228537858211,-297.63481551561
738509.42142725444864481688,-8.15172276985992,-7.21007415997803,-297.597888119144
738509.42142734490334987640,-8.10556352427747,-7.20084231086154,-297.588656270028
738509.42142743535805493593,-8.05940427869503,-7.19161046174505,-297.699438459426
738509.42142752581275999546,-8.09633167516098,-7.21930600909452,-297.597888119144
738509.42142761615104973316,-8.07786797692801,-7.21007415997803,-297.588656270028
738509.42142770660575479269,-8.07786797692801,-7.21007415997803,-297.616351817377
738509.42142779706045985222,-8.11479537339396,-7.21930600909452,-297.607119968261
738509.42142788751516491175,-8.18865016632588,-7.23776970732749,-297.597888119144
738509.42142797796986997128,-8.26250495925779,-7.24700155644398,-297.597888119144
738509.42142806842457503080,-8.28096865749077,-7.24700155644398,-297.597888119144
738509.42142815887928009033,-8.28096865749077,-7.25623340556047,-297.644047364727
738509.42142824933398514986,-8.29943235572375,-7.26546525467696,-297.597888119144
738509.42142833978869020939,-8.29943235572375,-7.25623340556047,-297.66251106296
738509.42142843024339526892,-8.29943235572375,-7.26546525467696,-297.690206610309
738509.42142852058168500662,-8.26250495925779,-7.25623340556047,-297.671742912076
738509.42142861103639006615,-8.2532731101413,-7.23776970732749,-297.671742912076
738509.42142870149109512568,-8.31789605395672,-7.27469710379345,-297.699438459426
738509.42142879194580018520,-8.37328714865566,-7.28392895290994,-297.671742912076
738509.42142888240050524473,-8.47483748893704,-7.25623340556047,-297.597888119144
738509.42142897285521030426,-8.21634571367534,-7.19161046174505,-297.653279213843
738509.42142906330991536379,-7.59781182287057,-7.11775566881313,-297.588656270028
738509.42142915376462042332,-7.16391491439558,-6.98850978118229,-297.487105929746
738509.42142924421932548285,-6.91465498825037,-7.0623645741142,-297.570192571795
738509.42142933467403054237,-7.41317484054079,-6.98850978118229,-297.570192571795
738509.42142942501232028008,-8.32712790307321,-7.03466902676473,-297.625583666494
738509.42142951546702533960,-8.42867824335459,-7.09929197058016,-297.644047364727
738509.42142960592173039913,-8.36405529953917,-7.19161046174505,-297.680974761193
738509.42142969637643545866,-8.30866420484024,-7.228537858211,-297.66251106296
738509.42142978683114051819,-8.29020050660726,-7.228537858211,-297.625583666494
738509.42142987728584557772,-8.29943235572375,-7.26546525467696,-297.653279213843
738509.42142996774055063725,-8.31789605395672,-7.26546525467696,-297.699438459426
738509.42143005819525569677,-8.29943235572375,-7.26546525467696,-297.644047364727
738509.42143014864996075630,-8.29020050660726,-7.23776970732749,-297.63481551561
738509.42143023898825049400,-8.29020050660726,-7.24700155644398,-297.680974761193
738509.42143032944295555353,-8.28096865749077,-7.23776970732749,-297.699438459426
738509.42143041989766061306,-8.29943235572375,-7.26546525467696,-297.625583666494
738509.42143051035236567259,-8.29943235572375,-7.24700155644398,-297.680974761193
738509.42143060080707073212,-8.27173680837428,-7.23776970732749,-297.717902157659
738509.42143069126177579165,-8.2532731101413,-7.228537858211,-297.597888119144
738509.42143078171648085117,-8.26250495925779,-7.24700155644398,-297.607119968261
738509.42143087217118591070,-8.26250495925779,-7.23776970732749,-297.514801477096
738509.42143096262589097023,-8.24404126102481,-7.21930600909452,-297.625583666494
738509.42143105308059602976,-8.22557756279183,-7.21007415997803,-297.63481551561
738509.42143114341888576746,-8.23480941190832,-7.19161046174505,-297.616351817377
738509.42143123387359082699,-8.20711386455885,-7.17314676351207,-297.597888119144
738509.42143132432829588652,-8.17941831720939,-7.15468306527909,-297.607119968261
738509.42143141478300094604,-8.16095461897641,-7.12698751792962,-297.588656270028
738509.42143150523770600557,-8.12402722251045,-7.09929197058016,-297.644047364727
738509.42143159569241106510,-8.12402722251045,-7.10852381969665,-297.644047364727
738509.42143168614711612463,-8.10556352427747,-7.09929197058016,-297.597888119144
738509.42143177660182118416,-8.0870998260445,-7.08082827234718,-297.588656270028
738509.42143186705652624369,-8.05940427869503,-7.05313272499771,-297.560960722678
738509.42143195751123130322,-8.05940427869503,-7.0623645741142,-297.542497024445
738509.42143204784952104092,-8.06863612781152,-7.08082827234718,-297.560960722678
738509.42143213830422610044,-8.06863612781152,-7.10852381969665,-297.570192571795
738509.42143222875893115997,-8.06863612781152,-7.13621936704611,-297.542497024445
738509.42143231921363621950,-8.09633167516098,-7.16391491439558,-297.597888119144
738509.42143240966834127903,-8.09633167516098,-7.17314676351207,-297.653279213843
738509.42143250012304633856,-8.13325907162694,-7.21007415997803,-297.66251106296
738509.42143259057775139809,-8.1701864680929,-7.21930600909452,-297.625583666494
738509.42143268103245645761,-8.17941831720939,-7.21930600909452,-297.699438459426
738509.42143277148716151714,-8.19788201544237,-7.228537858211,-297.680974761193
738509.42143286194186657667,-8.20711386455885,-7.23776970732749,-297.625583666494
738509.42143295228015631437,-8.20711386455885,-7.25623340556047,-297.680974761193
738509.42143304273486137390,-8.21634571367534,-7.25623340556047,-297.680974761193
738509.42143313318956643343,-8.21634571367534,-7.25623340556047,-297.653279213843
738509.42143322364427149296,-8.19788201544237,-7.24700155644398,-297.653279213843
738509.42143331409897655249,-8.20711386455885,-7.24700155644398,-297.680974761193
738509.42143340455368161201,-8.18865016632588,-7.24700155644398,-297.680974761193
738509.42143349500838667154,-8.18865016632588,-7.23776970732749,-297.616351817377
738509.42143358546309173107,-8.1701864680929,-7.21930600909452,-297.671742912076
738509.42143367591779679060,-8.1701864680929,-7.21007415997803,-297.690206610309
738509.42143376625608652830,-8.19788201544237,-7.24700155644398,-297.690206610309
738509.42143385671079158783,-8.19788201544237,-7.24700155644398,-297.616351817377
738509.42143394716549664736,-8.18865016632588,-7.23776970732749,-297.671742912076
738509.42143403762020170689,-8.18865016632588,-7.23776970732749,-297.680974761193
