time_dn,ecg_projection_ll_ra_mV,ecg_projection_la_ra_mV,ecg_projection_vx_rl_mV
738509.43442444386892020702,-8.88103885006256,-8.6779381694998,-298.253349406415
738509.43442453432362526655,-8.86257515182958,-8.6779381694998,-298.244117557298
738509.43442462477833032608,-8.87180700094607,-8.6779381694998,-298.197958311716
738509.43442471523303538561,-8.85334330271309,-8.66870632038331,-298.244117557298
738509.43442480557132512331,-8.85334330271309,-8.6779381694998,-298.207190160833
738509.43442489602603018284,-8.84411145359661,-8.6779381694998,-298.179494613483
738509.43442498648073524237,-8.85334330271309,-8.66870632038331,-298.16103091525
738509.43442507693544030190,-8.85334330271309,-8.66870632038331,-298.170262764367
738509.43442516739014536142,-8.84411145359661,-8.66870632038331,-298.170262764367
738509.43442525784485042095,-8.85334330271309,-8.66870632038331,-298.197958311716
738509.43442534818314015865,-8.84411145359661,-8.65947447126682,-298.225653859066
738509.43442543863784521818,-8.85334330271309,-8.66870632038331,-298.244117557298
738509.43442552909255027771,-8.84411145359661,-8.65947447126682,-298.216422009949
738509.43442561954725533724,-8.84411145359661,-8.66870632038331,-298.234885708182
738509.43442571000196039677,-8.80718405713065,-8.65024262215033,-298.281044953764
738509.43442580034025013447,-8.78872035889767,-8.65024262215033,-298.234885708182
738509.43442589079495519400,-8.77025666066469,-8.65024262215033,-298.207190160833
738509.43442598124966025352,-8.73332926419874,-8.63177892391736,-298.262581255531
738509.43442607170436531305,-8.68717001861629,-8.63177892391736,-298.290276802881
738509.43442616215907037258,-8.6779381694998,-8.65024262215033,-298.281044953764
738509.43442625249736011028,-8.66870632038331,-8.64101077303384,-298.207190160833
738509.43442634295206516981,-8.68717001861629,-8.64101077303384,-298.124103518784
738509.43442643340677022934,-8.70563371684927,-8.63177892391736,-298.179494613483
738509.43442652386147528887,-8.7610248115482,-8.64101077303384,-298.179494613483
738509.43442661431618034840,-8.84411145359661,-8.65947447126682,-298.170262764367
738509.43442670477088540792,-8.87180700094607,-8.66870632038331,-298.170262764367
738509.43442679510917514563,-8.89950254829554,-8.68717001861629,-298.216422009949
738509.43442688556388020515,-8.90873439741203,-8.68717001861629,-298.207190160833
738509.43442697601858526468,-8.92719809564501,-8.69640186773278,-298.197958311716
738509.43442706647329032421,-8.90873439741203,-8.68717001861629,-298.225653859066
738509.43442715692799538374,-8.9364299447615,-8.69640186773278,-298.197958311716
738509.43442724726628512144,-8.92719809564501,-8.69640186773278,-298.262581255531
738509.43442733772099018097,-8.9364299447615,-8.69640186773278,-298.262581255531
738509.43442742817569524050,-8.96412549211096,-8.69640186773278,-298.244117557298
738509.43442751863040030003,-9.1026032288583,-8.6779381694998,-298.170262764367
738509.43442760908510535955,-8.92719809564501,-8.63177892391736,-298.041016876736
738509.43442769953981041908,-8.30866420484024,-8.54869228186895,-298.050248725852
738509.43442778987810015678,-7.88399914548173,-8.4194463942381,-298.087176122318
738509.43442788033280521631,-7.59781182287057,-8.44714194158757,-298.151799066134
738509.43442797078751027584,-8.05940427869503,-8.38251899777215,-298.068712424085
738509.43442806124221533537,-8.98258919034394,-8.42867824335459,-298.1887264626
738509.43442815169692039490,-9.05644398327586,-8.53022858363597,-298.179494613483
738509.43442824203521013260,-8.96412549211096,-8.60408337656789,-298.197958311716
738509.43442833248991519213,-8.95489364299448,-8.65947447126682,-298.225653859066
738509.43442842294462025166,-8.96412549211096,-8.6779381694998,-298.244117557298
738509.43442851339932531118,-8.95489364299448,-8.68717001861629,-298.253349406415
738509.43442860385403037071,-8.95489364299448,-8.68717001861629,-298.170262764367
738509.43442869430873543024,-8.95489364299448,-8.68717001861629,-298.170262764367
738509.43442878464702516794,-8.94566179387799,-8.68717001861629,-298.179494613483
738509.43442887510173022747,-8.94566179387799,-8.68717001861629,-298.16103091525
738509.43442896555643528700,-8.9364299447615,-8.68717001861629,-298.170262764367
738509.43442905601114034653,-8.9364299447615,-8.68717001861629,-298.197958311716
738509.43442914646584540606,-8.90873439741203,-8.6779381694998,-298.225653859066
738509.43442923680413514376,-8.91796624652852,-8.66870632038331,-298.197958311716
738509.43442932725884020329,-8.89950254829554,-8.66870632038331,-298.253349406415
738509.43442941771354526281,-8.89027069917905,-8.65947447126682,-298.262581255531
738509.43442950816825032234,-8.89027069917905,-8.65947447126682,-298.253349406415
738509.43442959862295538187,-8.88103885006256,-8.64101077303384,-298.207190160833
738509.43442968907766044140,-8.87180700094607,-8.64101077303384,-298.234885708182
738509.43442977941595017910,-8.85334330271309,-8.62254707480087,-298.271813104648
738509.43442986987065523863,-8.83487960448012,-8.61331522568438,-298.16103091525
738509.43442996032536029816,-8.81641590624714,-8.58561967833491,-298.216422009949
738509.43443005078006535769,-8.79795220801416,-8.56715598010193,-298.244117557298
738509.43443014123477041721,-8.7610248115482,-8.53946043275246,-298.16103091525
738509.43443023157306015491,-8.75179296243171,-8.53022858363597,-298.197958311716
738509.43443032202776521444,-8.71486556596576,-8.50253303628651,-298.225653859066
738509.43443041248247027397,-8.70563371684927,-8.50253303628651,-298.216422009949
738509.43443050293717533350,-8.69640186773278,-8.49330118717002,-298.133335367901
738509.43443059339188039303,-8.68717001861629,-8.49330118717002,-298.225653859066
738509.43443068373017013073,-8.6779381694998,-8.49330118717002,-298.253349406415
738509.43443077418487519026,-8.6779381694998,-8.511764885403,-298.142567217017
738509.43443086463958024979,-8.69640186773278,-8.53946043275246,-298.170262764367
738509.43443095509428530931,-8.71486556596576,-8.57638782921842,-298.197958311716
738509.43443104554899036884,-8.73332926419874,-8.60408337656789,-298.197958311716
738509.43443113600369542837,-8.7610248115482,-8.62254707480087,-298.105639820551
738509.43443122634198516607,-8.78872035889767,-8.65024262215033,-298.114871669668
738509.43443131679669022560,-8.78872035889767,-8.65024262215033,-298.197958311716
738509.43443140725139528513,-8.81641590624714,-8.65947447126682,-298.197958311716
738509.43443149770610034466,-8.81641590624714,-8.66870632038331,-298.207190160833
738509.43443158816080540419,-8.82564775536363,-8.66870632038331,-298.234885708182
738509.43443167849909514189,-8.81641590624714,-8.66870632038331,-298.244117557298
738509.43443176895380020142,-8.82564775536363,-8.66870632038331,-298.234885708182
738509.43443185940850526094,-8.82564775536363,-8.66870632038331,-298.244117557298
738509.43443194986321032047,-8.83487960448012,-8.6779381694998,-298.207190160833
738509.43443204031791538000,-8.81641590624714,-8.66870632038331,-298.244117557298
738509.43443213077262043953,-8.81641590624714,-8.66870632038331,-298.225653859066
738509.43443222111091017723,-8.80718405713065,-8.65947447126682,-298.216422009949
738509.43443231156561523676,-8.81641590624714,-8.65947447126682,-298.207190160833
738509.43443240202032029629,-8.81641590624714,-8.65947447126682,-298.234885708182
738509.43443249247502535582,-8.80718405713065,-8.65947447126682,-298.244117557298
738509.43443258292973041534,-8.80718405713065,-8.65947447126682,-298.281044953764
738509.43443267326802015305,-8.79795220801416,-8.65947447126682,-298.197958311716
738509.43443276372272521257,-8.79795220801416,-8.65947447126682,-298.197958311716
738509.43443285417743027210,-8.77948850978118,-8.64101077303384,-298.216422009949
738509.43443294463213533163,-8.7610248115482,-8.65024262215033,-298.244117557298
738509.43443303508684039116,-8.72409741508225,-8.65024262215033,-298.281044953764
738509.43443312554154545069,-8.71486556596576,-8.63177892391736,-298.271813104648
738509.43443321587983518839,-8.65024262215033,-8.62254707480087,-298.179494613483
738509.43443330633454024792,-8.64101077303384,-8.64101077303384,-298.234885708182
738509.43443339678924530745,-8.61331522568438,-8.64101077303384,-298.281044953764
738509.43443348724395036697,-8.63177892391736,-8.65024262215033,-298.179494613483
738509.43443357769865542650,-8.62254707480087,-8.62254707480087,-298.179494613483
738509.43443366803694516420,-8.69640186773278,-8.63177892391736,-298.170262764367
738509.43443375849165022373,-8.77025666066469,-8.64101077303384,-298.179494613483
738509.43443384894635528326,-8.84411145359661,-8.65947447126682,-298.142567217017
738509.43443393940106034279,-8.86257515182958,-8.6779381694998,-298.225653859066
738509.43443402985576540232,-8.87180700094607,-8.6779381694998,-298.244117557298
738509.43443412019405514002,-8.88103885006256,-8.68717001861629,-298.225653859066
738509.43443421064876019955,-8.89027069917905,-8.68717001861629,-298.179494613483
738509.43443430110346525908,-8.89950254829554,-8.68717001861629,-298.244117557298
738509.43443439155817031860,-8.89950254829554,-8.68717001861629,-298.271813104648
738509.43443448201287537813,-8.89950254829554,-8.68717001861629,-298.197958311716
738509.43443457246758043766,-8.91796624652852,-8.68717001861629,-298.262581255531
738509.43443466280587017536,-9.01028473769341,-8.68717001861629,-298.216422009949
738509.43443475326057523489,-9.03798028504288,-8.63177892391736,-298.105639820551
738509.43443484371528029442,-8.53022858363597,-8.57638782921842,-298.170262764367
738509.43443493416998535395,-8.00401318399609,-8.44714194158757,-298.170262764367
738509.43443502462469041348,-7.67166661580248,-8.44714194158757,-298.151799066134
738509.43443511496298015118,-7.70859401226844,-8.41021454512162,-298.096407971435
738509.43443520541768521070,-8.69640186773278,-8.30866420484024,-298.216422009949
738509.43443529587239027023,-9.04721213415937,-8.50253303628651,-298.262581255531
738509.43443538632709532976,-8.96412549211096,-8.57638782921842,-298.1887264626
738509.43443547678180038929,-8.92719809564501,-8.64101077303384,-298.253349406415
738509.43443556723650544882,-8.91796624652852,-8.65947447126682,-298.225653859066
738509.43443565757479518652,-8.92719809564501,-8.66870632038331,-298.1887264626
738509.43443574802950024605,-8.9364299447615,-8.6779381694998,-298.216422009949
738509.43443583848420530558,-8.94566179387799,-8.68717001861629,-298.216422009949
738509.43443592893891036510,-8.92719809564501,-8.68717001861629,-298.207190160833
738509.43443601939361542463,-8.92719809564501,-8.6779381694998,-298.244117557298
738509.43443610973190516233,-8.91796624652852,-8.6779381694998,-298.170262764367
738509.43443620018661022186,-8.92719809564501,-8.6779381694998,-298.1887264626
738509.43443629064131528139,-8.91796624652852,-8.6779381694998,-298.216422009949
738509.43443638109602034092,-8.90873439741203,-8.6779381694998,-298.207190160833
738509.43443647155072540045,-8.89027069917905,-8.66870632038331,-298.271813104648
738509.43443656200543045998,-8.89027069917905,-8.65947447126682,-298.234885708182
738509.43443665234372019768,-8.88103885006256,-8.65947447126682,-298.197958311716
738509.43443674279842525721,-8.87180700094607,-8.65024262215033,-298.234885708182
738509.43443683325313031673,-8.86257515182958,-8.64101077303384,-298.1887264626
738509.43443692370783537626,-8.84411145359661,-8.62254707480087,-298.207190160833
738509.43443701416254043579,-8.81641590624714,-8.61331522568438,-298.207190160833
738509.43443710450083017349,-8.79795220801416,-8.5948515274514,-298.207190160833
738509.43443719495553523302,-8.78872035889767,-8.57638782921842,-298.234885708182
738509.43443728541024029255,-8.7610248115482,-8.54869228186895,-298.225653859066
738509.43443737586494535208,-8.73332926419874,-8.53946043275246,-298.179494613483
738509.43443746631965041161,-8.70563371684927,-8.511764885403,-298.1887264626
738509.43443755677435547113,-8.69640186773278,-8.511764885403,-298.1887264626
738509.43443764711264520884,-8.6779381694998,-8.49330118717002,-298.114871669668
738509.43443773756735026836,-8.6779381694998,-8.50253303628651,-298.197958311716
738509.43443782802205532789,-8.66870632038331,-8.50253303628651,-298.207190160833
738509.43443791847676038742,-8.6779381694998,-8.52099673451949,-298.16103091525
738509.43443800893146544695,-8.6779381694998,-8.54869228186895,-298.170262764367
738509.43443809926975518465,-8.68717001861629,-8.56715598010193,-298.197958311716
738509.43443818972446024418,-8.71486556596576,-8.5948515274514,-298.179494613483
738509.43443828017916530371,-8.74256111331523,-8.61331522568438,-298.087176122318
738509.43443837063387036324,-8.77948850978118,-8.64101077303384,-298.197958311716
738509.43443846108857542276,-8.78872035889767,-8.65024262215033,-298.244117557298
738509.43443855142686516047,-8.80718405713065,-8.65947447126682,-298.225653859066
738509.43443864188157021999,-8.80718405713065,-8.65947447126682,-298.216422009949
738509.43443873233627527952,-8.82564775536363,-8.66870632038331,-298.225653859066
738509.43443882279098033905,-8.80718405713065,-8.66870632038331,-298.244117557298
738509.43443891324568539858,-8.82564775536363,-8.6779381694998,-298.234885708182
738509.43443900370039045811,-8.81641590624714,-8.66870632038331,-298.216422009949
738509.43443909403868019581,-8.81641590624714,-8.66870632038331,-298.234885708182
738509.43443918449338525534,-8.80718405713065,-8.66870632038331,-298.253349406415
738509.43443927494809031487,-8.81641590624714,-8.66870632038331,-298.179494613483
738509.43443936540279537439,-8.80718405713065,-8.65947447126682,-298.262581255531
738509.43443945585750043392,-8.81641590624714,-8.65947447126682,-298.142567217017
738509.43443954619579017162,-8.79795220801416,-8.65947447126682,-298.179494613483
738509.43443963665049523115,-8.80718405713065,-8.65947447126682,-298.207190160833
738509.43443972710520029068,-8.77948850978118,-8.64101077303384,-298.16103091525
738509.43443981755990535021,-8.7610248115482,-8.64101077303384,-298.16103091525
738509.43443990801461040974,-8.72409741508225,-8.64101077303384,-298.207190160833
738509.43443999846931546926,-8.71486556596576,-8.64101077303384,-298.179494613483
738509.43444008880760520697,-8.68717001861629,-8.62254707480087,-298.16103091525
738509.43444017926231026649,-8.62254707480087,-8.61331522568438,-298.244117557298
738509.43444026971701532602,-8.62254707480087,-8.63177892391736,-298.197958311716
738509.43444036017172038555,-8.60408337656789,-8.63177892391736,-298.216422009949
738509.43444045062642544508,-8.61331522568438,-8.63177892391736,-298.1887264626
738509.43444054096471518278,-8.61331522568438,-8.62254707480087,-298.1887264626
738509.43444063141942024231,-8.6779381694998,-8.62254707480087,-298.1887264626
738509.43444072187412530184,-8.74256111331523,-8.65024262215033,-298.207190160833
738509.43444081232883036137,-8.81641590624714,-8.65947447126682,-298.262581255531
738509.43444090278353542089,-8.84411145359661,-8.6779381694998,-298.207190160833
738509.43444099323824048042,-8.86257515182958,-8.6779381694998,-298.197958311716
738509.43444108357653021812,-8.86257515182958,-8.6779381694998,-298.207190160833
738509.43444117403123527765,-8.88103885006256,-8.68717001861629,-298.207190160833
738509.43444126448594033718,-8.89027069917905,-8.69640186773278,-298.244117557298
738509.43444135494064539671,-8.89027069917905,-8.68717001861629,-298.262581255531
738509.43444144539535045624,-8.89027069917905,-8.68717001861629,-298.216422009949
738509.43444153573364019394,-8.9364299447615,-8.68717001861629,-298.170262764367
738509.43444162618834525347,-9.05644398327586,-8.65947447126682,-298.170262764367
738509.43444171664305031300,-8.86257515182958,-8.61331522568438,-297.957930234687
738509.43444180709775537252,-8.24404126102481,-8.53022858363597,-297.957930234687
738509.43444189755246043205,-7.9947813348796,-8.45637379070406,-298.059480574969
738509.43444198789075016975,-7.66243476668599,-8.46560563982055,-298.114871669668
738509.43444207834545522928,-7.68089846491897,-8.46560563982055,-298.096407971435
738509.43444216880016028881,-8.64101077303384,-8.31789605395672,-298.170262764367
738509.43444225925486534834,-9.0195165868099,-8.511764885403,-298.244117557298
738509.43444234970957040787,-8.9364299447615,-8.58561967833491,-298.207190160833
738509.43444244016427546740,-8.90873439741203,-8.65024262215033,-298.207190160833
738509.43444253050256520510,-8.90873439741203,-8.6779381694998,-298.262581255531
738509.43444262095727026463,-8.92719809564501,-8.68717001861629,-298.271813104648
738509.43444271141197532415,-8.92719809564501,-8.68717001861629,-298.1887264626
738509.43444280186668038368,-8.92719809564501,-8.68717001861629,-298.244117557298
738509.43444289232138544321,-8.91796624652852,-8.68717001861629,-298.262581255531
738509.43444298265967518091,-8.90873439741203,-8.68717001861629,-298.197958311716
738509.43444307311438024044,-8.90873439741203,-8.68717001861629,-298.225653859066
738509.43444316356908529997,-8.89950254829554,-8.68717001861629,-298.262581255531
738509.43444325402379035950,-8.87180700094607,-8.6779381694998,-298.216422009949
738509.43444334447849541903,-8.87180700094607,-8.6779381694998,-298.225653859066
738509.43444343493320047855,-8.86257515182958,-8.65947447126682,-298.234885708182
738509.43444352527149021626,-8.87180700094607,-8.66870632038331,-298.253349406415
738509.43444361572619527578,-8.84411145359661,-8.65024262215033,-298.170262764367
738509.43444370618090033531,-8.84411145359661,-8.65024262215033,-298.216422009949
738509.43444379663560539484,-8.82564775536363,-8.65024262215033,-298.170262764367
738509.43444388709031045437,-8.81641590624714,-8.64101077303384,-298.1887264626
738509.43444397742860019207,-8.80718405713065,-8.62254707480087,-298.16103091525
738509.43444406788330525160,-8.78872035889767,-8.60408337656789,-298.142567217017
738509.43444415833801031113,-8.77025666066469,-8.57638782921842,-298.170262764367
738509.43444424879271537066,-8.74256111331523,-8.55792413098544,-298.151799066134
738509.43444433924742043018,-8.72409741508225,-8.53946043275246,-298.170262764367
738509.43444442970212548971,-8.68717001861629,-8.52099673451949,-298.197958311716
738509.43444452004041522741,-8.6779381694998,-8.511764885403,-298.179494613483
738509.43444461049512028694,-8.65024262215033,-8.50253303628651,-298.179494613483
738509.43444470094982534647,-8.65024262215033,-8.50253303628651,-298.133335367901
738509.43444479140453040600,-8.65024262215033,-8.511764885403,-298.16103091525
738509.43444488185923546553,-8.65024262215033,-8.53022858363597,-298.16103091525
738509.43444497219752520323,-8.65024262215033,-8.55792413098544,-298.16103091525
738509.43444506265223026276,-8.66870632038331,-8.58561967833491,-298.142567217017
738509.43444515310693532228,-8.70563371684927,-8.62254707480087,-298.170262764367
738509.43444524356164038181,-8.74256111331523,-8.65024262215033,-298.00408948027
738509.43444533401634544134,-8.7610248115482,-8.65947447126682,-298.133335367901
738509.43444542447105050087,-8.77948850978118,-8.66870632038331,-298.16103091525
738509.43444551480934023857,-8.77948850978118,-8.66870632038331,-298.179494613483
738509.43444560526404529810,-8.78872035889767,-8.66870632038331,-298.207190160833
738509.43444569571875035763,-8.80718405713065,-8.6779381694998,-298.179494613483
738509.43444578617345541716,-8.79795220801416,-8.6779381694998,-298.244117557298
738509.43444587662816047668,-8.79795220801416,-8.6779381694998,-298.234885708182
738509.43444596696645021439,-8.78872035889767,-8.6779381694998,-298.1887264626
738509.43444605742115527391,-8.79795220801416,-8.6779381694998,-298.234885708182
738509.43444614787586033344,-8.78872035889767,-8.6779381694998,-298.234885708182
738509.43444623833056539297,-8.79795220801416,-8.6779381694998,-298.253349406415
738509.43444632878527045250,-8.77948850978118,-8.6779381694998,-298.225653859066
738509.43444641912356019020,-8.78872035889767,-8.6779381694998,-298.225653859066
738509.43444650957826524973,-8.77948850978118,-8.66870632038331,-298.225653859066
738509.43444660003297030926,-8.77025666066469,-8.66870632038331,-298.170262764367
738509.43444669048767536879,-8.73332926419874,-8.65024262215033,-298.262581255531
738509.43444678094238042831,-8.70563371684927,-8.65947447126682,-298.281044953764
738509.43444687139708548784,-8.69640186773278,-8.65024262215033,-298.234885708182
738509.43444696173537522554,-8.64101077303384,-8.62254707480087,-298.216422009949
738509.43444705219008028507,-8.60408337656789,-8.63177892391736,-298.234885708182
738509.43444714264478534460,-8.5948515274514,-8.64101077303384,-298.225653859066
738509.43444723309949040413,-8.58561967833491,-8.64101077303384,-298.1887264626
738509.43444732355419546366,-8.5948515274514,-8.63177892391736,-298.170262764367
738509.43444741389248520136,-8.62254707480087,-8.63177892391736,-298.244117557298
738509.43444750434719026089,-8.65024262215033,-8.63177892391736,-298.244117557298
738509.43444759480189532042,-8.72409741508225,-8.64101077303384,-298.216422009949
738509.43444768525660037994,-8.77948850978118,-8.65947447126682,-298.216422009949
738509.43444777571130543947,-8.81641590624714,-8.6779381694998,-298.197958311716
738509.43444786616601049900,-8.82564775536363,-8.68717001861629,-298.234885708182
738509.43444795650430023670,-8.84411145359661,-8.68717001861629,-298.225653859066
738509.43444804695900529623,-8.84411145359661,-8.68717001861629,-298.179494613483
738509.43444813741371035576,-8.85334330271309,-8.68717001861629,-298.234885708182
738509.43444822786841541529,-8.86257515182958,-8.69640186773278,-298.225653859066
738509.43444831832312047482,-8.87180700094607,-8.69640186773278,-298.197958311716
738509.43444840866141021252,-8.90873439741203,-8.69640186773278,-298.271813104648
738509.43444849911611527205,-9.03798028504288,-8.66870632038331,-298.271813104648
738509.43444858957082033157,-8.86257515182958,-8.62254707480087,-298.16103091525
738509.43444868002552539110,-8.23480941190832,-8.52099673451949,-298.1887264626
738509.43444877048023045063,-7.81014435254982,-8.42867824335459,-298.00408948027
738509.43444886093493551016,-7.5701162755211,-8.47483748893704,-298.013321329386
738509.43444895127322524786,-8.09633167516098,-8.3363597521897,-298.077944273202
738509.43444904172793030739,-8.95489364299448,-8.44714194158757,-298.142567217017
738509.43444913218263536692,-8.95489364299448,-8.54869228186895,-298.170262764367
738509.43444922263734042645,-8.87180700094607,-8.62254707480087,-298.179494613483
738509.43444931309204548597,-8.89027069917905,-8.66870632038331,-298.133335367901
738509.43444940343033522367,-8.89027069917905,-8.68717001861629,-298.179494613483
738509.43444949388504028320,-8.89950254829554,-8.68717001861629,-298.253349406415
738509.43444958433974534273,-8.89950254829554,-8.69640186773278,-298.253349406415
738509.43444967479445040226,-8.89027069917905,-8.69640186773278,-298.1887264626
738509.43444976524915546179,-8.89027069917905,-8.69640186773278,-298.262581255531
738509.43444985570386052132,-8.88103885006256,-8.68717001861629,-298.197958311716
738509.43444994604215025902,-8.88103885006256,-8.69640186773278,-298.170262764367
738509.43445003649685531855,-8.86257515182958,-8.68717001861629,-298.271813104648
738509.43445012695156037807,-8.85334330271309,-8.68717001861629,-298.244117557298
738509.43445021740626543760,-8.84411145359661,-8.6779381694998,-298.179494613483
738509.43445030786097049713,-8.84411145359661,-8.6779381694998,-298.244117557298
738509.43445039819926023483,-8.82564775536363,-8.6779381694998,-298.253349406415
738509.43445048865396529436,-8.82564775536363,-8.66870632038331,-298.253349406415
738509.43445057910867035389,-8.80718405713065,-8.65024262215033,-298.244117557298
738509.43445066956337541342,-8.79795220801416,-8.64101077303384,-298.234885708182
738509.43445076001808047295,-8.77025666066469,-8.63177892391736,-298.244117557298
738509.43445085035637021065,-8.7610248115482,-8.61331522568438,-298.179494613483
738509.43445094081107527018,-8.73332926419874,-8.58561967833491,-298.253349406415
738509.43445103126578032970,-8.71486556596576,-8.57638782921842,-298.244117557298
738509.43445112172048538923,-8.6779381694998,-8.53946043275246,-298.151799066134
738509.43445121217519044876,-8.65947447126682,-8.53022858363597,-298.207190160833
738509.43445130262989550829,-8.65024262215033,-8.53022858363597,-298.207190160833
738509.43445139296818524599,-8.62254707480087,-8.511764885403,-298.197958311716
738509.43445148342289030552,-8.61331522568438,-8.50253303628651,-298.151799066134
738509.43445157387759536505,-8.60408337656789,-8.50253303628651,-298.234885708182
738509.43445166433230042458,-8.5948515274514,-8.511764885403,-298.216422009949
738509.43445175478700548410,-8.5948515274514,-8.53022858363597,-298.142567217017
738509.43445184512529522181,-8.61331522568438,-8.56715598010193,-298.216422009949
738509.43445193558000028133,-8.62254707480087,-8.58561967833491,-298.16103091525
738509.43445202603470534086,-8.65024262215033,-8.62254707480087,-298.1887264626
738509.43445211648941040039,-8.65947447126682,-8.64101077303384,-298.179494613483
738509.43445220694411545992,-8.69640186773278,-8.65947447126682,-298.179494613483
738509.43445229739882051945,-8.70563371684927,-8.66870632038331,-298.087176122318
738509.43445238773711025715,-8.72409741508225,-8.6779381694998,-298.096407971435
738509.43445247819181531668,-8.72409741508225,-8.6779381694998,-298.216422009949
738509.43445256864652037621,-8.73332926419874,-8.6779381694998,-298.151799066134
738509.43445265910122543573,-8.73332926419874,-8.6779381694998,-298.1887264626
738509.43445274955593049526,-8.73332926419874,-8.6779381694998,-298.179494613483
738509.43445283989422023296,-8.72409741508225,-8.6779381694998,-298.16103091525
738509.43445293034892529249,-8.72409741508225,-8.66870632038331,-298.179494613483
738509.43445302080363035202,-8.71486556596576,-8.66870632038331,-298.197958311716
738509.43445311125833541155,-8.70563371684927,-8.66870632038331,-298.207190160833
738509.43445320171304047108,-8.71486556596576,-8.66870632038331,-298.234885708182
738509.43445329216774553061,-8.69640186773278,-8.65947447126682,-298.244117557298
738509.43445338250603526831,-8.70563371684927,-8.66870632038331,-298.244117557298
738509.43445347296074032784,-8.68717001861629,-8.65947447126682,-298.225653859066
738509.43445356341544538736,-8.6779381694998,-8.65024262215033,-298.216422009949
738509.43445365387015044689,-8.64101077303384,-8.65024262215033,-298.1887264626
738509.43445374432485550642,-8.62254707480087,-8.65947447126682,-298.1887264626
738509.43445383466314524412,-8.57638782921842,-8.63177892391736,-298.244117557298
738509.43445392511785030365,-8.53022858363597,-8.63177892391736,-298.1887264626
738509.43445401557255536318,-8.511764885403,-8.64101077303384,-298.1887264626
738509.43445410602726042271,-8.511764885403,-8.64101077303384,-298.216422009949
738509.43445419648196548223,-8.50253303628651,-8.65024262215033,-298.234885708182
738509.43445428682025521994,-8.511764885403,-8.63177892391736,-298.244117557298
738509.43445437727496027946,-8.56715598010193,-8.63177892391736,-298.225653859066
738509.43445446772966533899,-8.64101077303384,-8.64101077303384,-298.197958311716
738509.43445455818437039852,-8.70563371684927,-8.66870632038331,-298.244117557298
738509.43445464863907545805,-8.73332926419874,-8.68717001861629,-298.271813104648
738509.43445473909378051758,-8.75179296243171,-8.68717001861629,-298.262581255531
738509.43445482943207025528,-8.7610248115482,-8.69640186773278,-298.151799066134
738509.43445491988677531481,-8.77948850978118,-8.69640186773278,-298.225653859066
738509.43445501034148037434,-8.7610248115482,-8.69640186773278,-298.225653859066
738509.43445510079618543386,-8.77025666066469,-8.70563371684927,-298.234885708182
738509.43445519125089049339,-8.77025666066469,-8.69640186773278,-298.197958311716
738509.43445528158918023109,-8.79795220801416,-8.70563371684927,-298.271813104648
738509.43445537204388529062,-8.89027069917905,-8.70563371684927,-298.253349406415
738509.43445546249859035015,-8.94566179387799,-8.64101077303384,-298.142567217017
738509.43445555295329540968,-8.44714194158757,-8.56715598010193,-298.1887264626
738509.43445564340800046921,-7.90246284371471,-8.43791009247108,-298.114871669668
738509.43445573386270552874,-7.5701162755211,-8.45637379070406,-298.142567217017
738509.43445582420099526644,-7.68089846491897,-8.39175084688864,-298.022553178503
738509.43445591465570032597,-8.63177892391736,-8.30866420484024,-298.068712424085
738509.43445600511040538549,-8.88103885006256,-8.511764885403,-298.234885708182
738509.43445609556511044502,-8.78872035889767,-8.61331522568438,-298.170262764367
738509.43445618601981550455,-8.77025666066469,-8.65947447126682,-298.151799066134
738509.43445627635810524225,-8.79795220801416,-8.69640186773278,-298.170262764367
738509.43445636681281030178,-8.79795220801416,-8.69640186773278,-298.225653859066
738509.43445645726751536131,-8.80718405713065,-8.70563371684927,-298.207190160833
738509.43445654772222042084,-8.79795220801416,-8.69640186773278,-298.1887264626
738509.43445663817692548037,-8.79795220801416,-8.70563371684927,-298.179494613483
738509.43445672863163053989,-8.77948850978118,-8.69640186773278,-298.244117557298
738509.43445681896992027760,-8.78872035889767,-8.69640186773278,-298.244117557298
738509.43445690942462533712,-8.77025666066469,-8.68717001861629,-298.234885708182
738509.43445699987933039665,-8.77025666066469,-8.68717001861629,-298.271813104648
738509.43445709033403545618,-8.77025666066469,-8.69640186773278,-298.253349406415
738509.43445718078874051571,-8.75179296243171,-8.68717001861629,-298.170262764367
738509.43445727112703025341,-8.75179296243171,-8.6779381694998,-298.207190160833
738509.43445736158173531294,-8.73332926419874,-8.66870632038331,-298.1887264626
738509.43445745203644037247,-8.73332926419874,-8.66870632038331,-298.151799066134
738509.43445754249114543200,-8.70563371684927,-8.65024262215033,-298.207190160833
738509.43445763294585049152,-8.70563371684927,-8.64101077303384,-298.197958311716
738509.43445772340055555105,-8.6779381694998,-8.62254707480087,-298.207190160833
738509.43445781373884528875,-8.65947447126682,-8.60408337656789,-298.234885708182
738509.43445790419355034828,-8.62254707480087,-8.57638782921842,-298.170262764367
738509.43445799464825540781,-8.61331522568438,-8.55792413098544,-298.087176122318
738509.43445808510296046734,-8.57638782921842,-8.53946043275246,-298.124103518784
738509.43445817555766552687,-8.55792413098544,-8.52099673451949,-298.114871669668
738509.43445826589595526457,-8.53022858363597,-8.511764885403,-298.105639820551
738509.43445835635066032410,-8.52099673451949,-8.50253303628651,-298.087176122318
738509.43445844680536538363,-8.511764885403,-8.50253303628651,-298.16103091525
738509.43445853726007044315,-8.511764885403,-8.52099673451949,-298.179494613483
738509.43445862771477550268,-8.50253303628651,-8.53946043275246,-298.151799066134
738509.43445871805306524038,-8.52099673451949,-8.56715598010193,-298.170262764367
738509.43445880850777029991,-8.53022858363597,-8.60408337656789,-298.1887264626
738509.43445889896247535944,-8.53946043275246,-8.61331522568438,-298.234885708182
738509.43445898941718041897,-8.57638782921842,-8.64101077303384,-298.170262764367
738509.43445907987188547850,-8.5948515274514,-8.65024262215033,-298.225653859066
738509.43445917032659053802,-8.61331522568438,-8.66870632038331,-298.244117557298
738509.43445926066488027573,-8.61331522568438,-8.66870632038331,-298.216422009949
738509.43445935111958533525,-8.63177892391736,-8.6779381694998,-298.087176122318
738509.43445944157429039478,-8.62254707480087,-8.6779381694998,-298.096407971435
738509.43445953202899545431,-8.63177892391736,-8.6779381694998,-298.197958311716
738509.43445962248370051384,-8.62254707480087,-8.6779381694998,-298.244117557298
738509.43445971282199025154,-8.63177892391736,-8.6779381694998,-298.179494613483
738509.43445980327669531107,-8.62254707480087,-8.66870632038331,-298.197958311716
738509.43445989373140037060,-8.62254707480087,-8.66870632038331,-298.216422009949
738509.43445998418610543013,-8.61331522568438,-8.66870632038331,-298.216422009949
738509.43446007464081048965,-8.61331522568438,-8.6779381694998,-298.170262764367
738509.43446016509551554918,-8.61331522568438,-8.6779381694998,-298.216422009949
738509.43446025543380528688,-8.60408337656789,-8.66870632038331,-298.216422009949
738509.43446034588851034641,-8.60408337656789,-8.6779381694998,-298.151799066134
738509.43446043634321540594,-8.60408337656789,-8.66870632038331,-298.253349406415
738509.43446052679792046547,-8.60408337656789,-8.66870632038331,-298.216422009949
738509.43446061725262552500,-8.5948515274514,-8.6779381694998,-298.151799066134
738509.43446070759091526270,-8.60408337656789,-8.6779381694998,-298.151799066134
738509.43446079804562032223,-8.5948515274514,-8.6779381694998,-298.170262764367
738509.43446088850032538176,-8.60408337656789,-8.6779381694998,-298.151799066134
738509.43446097895503044128,-8.60408337656789,-8.68717001861629,-298.151799066134
738509.43446106940973550081,-8.61331522568438,-8.68717001861629,-298.225653859066
738509.43446115986444056034,-8.58561967833491,-8.66870632038331,-298.133335367901
738509.43446125020273029804,-8.54869228186895,-8.66870632038331,-298.142567217017
738509.43446134065743535757,-8.53022858363597,-8.6779381694998,-298.124103518784
738509.43446143111214041710,-8.49330118717002,-8.65947447126682,-298.133335367901
738509.43446152156684547663,-8.44714194158757,-8.65024262215033,-298.151799066134
738509.43446161202155053616,-8.42867824335459,-8.65947447126682,-298.16103091525
738509.43446170235984027386,-8.42867824335459,-8.66870632038331,-298.151799066134
738509.43446179281454533339,-8.42867824335459,-8.65024262215033,-298.142567217017
738509.43446188326925039291,-8.45637379070406,-8.64101077303384,-298.170262764367
738509.43446197372395545244,-8.511764885403,-8.65024262215033,-298.16103091525
738509.43446206417866051197,-8.60408337656789,-8.66870632038331,-298.262581255531
738509.43446215451695024967,-8.62254707480087,-8.6779381694998,-298.244117557298
738509.43446224497165530920,-8.65947447126682,-8.69640186773278,-298.1887264626
738509.43446233542636036873,-8.65947447126682,-8.69640186773278,-298.216422009949
738509.43446242588106542826,-8.68717001861629,-8.71486556596576,-298.216422009949
738509.43446251633577048779,-8.6779381694998,-8.71486556596576,-298.262581255531
738509.43446260679047554731,-8.68717001861629,-8.71486556596576,-298.1887264626
738509.43446269712876528502,-8.68717001861629,-8.70563371684927,-298.225653859066
738509.43446278758347034454,-8.68717001861629,-8.70563371684927,-298.253349406415
738509.43446287803817540407,-8.74256111331523,-8.70563371684927,-298.197958311716
738509.43446296849288046360,-8.86257515182958,-8.66870632038331,-298.077944273202
738509.43446305894758552313,-8.66870632038331,-8.63177892391736,-298.179494613483
738509.43446314928587526083,-8.06863612781152,-8.53022858363597,-298.1887264626
738509.43446323974058032036,-7.66243476668599,-8.44714194158757,-298.059480574969
738509.43446333019528537989,-7.46856593523972,-8.4194463942381,-298.133335367901
738509.43446342064999043941,-8.03170873134556,-8.24404126102481,-298.105639820551
738509.43446351110469549894,-8.78872035889767,-8.42867824335459,-298.179494613483
738509.43446360155940055847,-8.74256111331523,-8.54869228186895,-298.216422009949
738509.43446369189769029617,-8.68717001861629,-8.64101077303384,-298.234885708182
738509.43446378235239535570,-8.70563371684927,-8.68717001861629,-298.216422009949
738509.43446387280710041523,-8.70563371684927,-8.69640186773278,-298.207190160833
738509.43446396326180547476,-8.72409741508225,-8.71486556596576,-298.234885708182
738509.43446405371651053429,-8.70563371684927,-8.71486556596576,-298.234885708182
738509.43446414405480027199,-8.71486556596576,-8.71486556596576,-298.16103091525
738509.43446423450950533152,-8.70563371684927,-8.71486556596576,-298.225653859066
738509.43446432496421039104,-8.70563371684927,-8.71486556596576,-298.225653859066
738509.43446441541891545057,-8.68717001861629,-8.70563371684927,-298.244117557298
738509.43446450587362051010,-8.68717001861629,-8.70563371684927,-298.262581255531
738509.43446459632832556963,-8.69640186773278,-8.70563371684927,-298.16103091525
738509.43446468666661530733,-8.6779381694998,-8.69640186773278,-298.234885708182
738509.43446477712132036686,-8.66870632038331,-8.68717001861629,-298.271813104648
738509.43446486757602542639,-8.65024262215033,-8.6779381694998,-298.244117557298
738509.43446495803073048592,-8.65024262215033,-8.6779381694998,-298.179494613483
738509.43446504848543554544,-8.62254707480087,-8.66870632038331,-298.253349406415
738509.43446513882372528315,-8.62254707480087,-8.65947447126682,-298.244117557298
738509.43446522927843034267,-8.5948515274514,-8.64101077303384,-298.16103091525
738509.43446531973313540220,-8.57638782921842,-8.62254707480087,-298.207190160833
738509.43446541018784046173,-8.54869228186895,-8.5948515274514,-298.151799066134
738509.43446550064254552126,-8.53022858363597,-8.57638782921842,-298.142567217017
738509.43446559109725058079,-8.49330118717002,-8.54869228186895,-298.142567217017
738509.43446568143554031849,-8.47483748893704,-8.53022858363597,-298.124103518784
738509.43446577189024537802,-8.44714194158757,-8.511764885403,-298.151799066134
738509.43446586234495043755,-8.42867824335459,-8.50253303628651,-298.124103518784
738509.43446595279965549707,-8.41021454512162,-8.49330118717002,-298.124103518784
738509.43446604325436055660,-8.40098269600513,-8.49330118717002,-298.151799066134
738509.43446613359265029430,-8.39175084688864,-8.511764885403,-298.151799066134
738509.43446622404735535383,-8.39175084688864,-8.53022858363597,-298.142567217017
738509.43446631450206041336,-8.41021454512162,-8.56715598010193,-298.124103518784
738509.43446640495676547289,-8.4194463942381,-8.58561967833491,-298.096407971435
738509.43446649541147053242,-8.45637379070406,-8.61331522568438,-298.068712424085
738509.43446658574976027012,-8.47483748893704,-8.64101077303384,-298.197958311716
738509.43446667620446532965,-8.511764885403,-8.65947447126682,-298.179494613483
738509.43446676665917038918,-8.52099673451949,-8.66870632038331,-298.170262764367
738509.43446685711387544870,-8.53946043275246,-8.6779381694998,-298.271813104648
738509.43446694756858050823,-8.53946043275246,-8.6779381694998,-298.225653859066
738509.43446703802328556776,-8.54869228186895,-8.6779381694998,-298.234885708182
738509.43446712836157530546,-8.53946043275246,-8.6779381694998,-298.1887264626
738509.43446721881628036499,-8.54869228186895,-8.6779381694998,-298.216422009949
738509.43446730927098542452,-8.53946043275246,-8.6779381694998,-298.225653859066
738509.43446739972569048405,-8.53022858363597,-8.6779381694998,-298.16103091525
738509.43446749018039554358,-8.53022858363597,-8.6779381694998,-298.216422009949
738509.43446758051868528128,-8.53022858363597,-8.6779381694998,-298.207190160833
738509.43446767097339034081,-8.53022858363597,-8.6779381694998,-298.216422009949
738509.43446776142809540033,-8.52099673451949,-8.66870632038331,-298.197958311716
738509.43446785188280045986,-8.53022858363597,-8.6779381694998,-298.216422009949
738509.43446794233750551939,-8.52099673451949,-8.66870632038331,-298.234885708182
738509.43446803279221057892,-8.52099673451949,-8.66870632038331,-298.16103091525
738509.43446812313050031662,-8.52099673451949,-8.66870632038331,-298.225653859066
738509.43446821358520537615,-8.53022858363597,-8.66870632038331,-298.207190160833
738509.43446830403991043568,-8.52099673451949,-8.66870632038331,-298.216422009949
738509.43446839449461549520,-8.52099673451949,-8.66870632038331,-298.179494613483
738509.43446848494932055473,-8.53022858363597,-8.6779381694998,-298.207190160833
738509.43446857528761029243,-8.53022858363597,-8.66870632038331,-298.234885708182
738509.43446866574231535196,-8.53022858363597,-8.66870632038331,-298.16103091525
738509.43446875619702041149,-8.53022858363597,-8.6779381694998,-298.216422009949
738509.43446884665172547102,-8.53946043275246,-8.68717001861629,-298.216422009949
738509.43446893710643053055,-8.53946043275246,-8.6779381694998,-298.225653859066
738509.43446902756113559008,-8.54869228186895,-8.6779381694998,-298.179494613483
738509.43446911789942532778,-8.54869228186895,-8.6779381694998,-298.225653859066
738509.43446920835413038731,-8.54869228186895,-8.68717001861629,-298.179494613483
738509.43446929880883544683,-8.53022858363597,-8.6779381694998,-298.151799066134
738509.43446938926354050636,-8.511764885403,-8.6779381694998,-298.179494613483
738509.43446947971824556589,-8.46560563982055,-8.6779381694998,-298.1887264626
738509.43446957005653530359,-8.46560563982055,-8.66870632038331,-298.179494613483
738509.43446966051124036312,-8.38251899777215,-8.65947447126682,-298.16103091525
738509.43446975096594542265,-8.37328714865566,-8.65947447126682,-298.151799066134
738509.43446984142065048218,-8.34559160130619,-8.65947447126682,-298.170262764367
738509.43446993187535554171,-8.37328714865566,-8.65024262215033,-298.031785027619
738509.43447002233006060123,-8.37328714865566,-8.63177892391736,-298.142567217017
738509.43447011266835033894,-8.43791009247108,-8.64101077303384,-298.170262764367
738509.43447020312305539846,-8.48406933805353,-8.65024262215033,-298.234885708182
738509.43447029357776045799,-8.55792413098544,-8.66870632038331,-298.1887264626
738509.43447038403246551752,-8.58561967833491,-8.69640186773278,-298.170262764367
738509.43447047448717057705,-8.5948515274514,-8.68717001861629,-298.216422009949
738509.43447056482546031475,-8.62254707480087,-8.69640186773278,-298.1887264626
738509.43447065528016537428,-8.61331522568438,-8.69640186773278,-298.207190160833
738509.43447074573487043381,-8.62254707480087,-8.70563371684927,-298.216422009949
738509.43447083618957549334,-8.62254707480087,-8.69640186773278,-298.225653859066
738509.43447092664428055286,-8.63177892391736,-8.70563371684927,-298.216422009949
738509.43447101698257029057,-8.65947447126682,-8.70563371684927,-298.170262764367
738509.43447110743727535009,-8.79795220801416,-8.6779381694998,-298.234885708182
738509.43447119789198040962,-8.65947447126682,-8.61331522568438,-298.16103091525
738509.43447128834668546915,-8.0870998260445,-8.53022858363597,-298.16103091525
738509.43447137880139052868,-7.65320291756951,-8.41021454512162,-298.142567217017
738509.43447146925609558821,-7.43163853877377,-8.41021454512162,-298.114871669668
738509.43447155959438532591,-7.89323099459822,-8.21634571367534,-298.022553178503
738509.43447165004909038544,-8.72409741508225,-8.36405529953917,-298.105639820551
738509.43447174050379544497,-8.69640186773278,-8.50253303628651,-298.142567217017
738509.43447183095850050449,-8.64101077303384,-8.61331522568438,-298.096407971435
738509.43447192141320556402,-8.64101077303384,-8.66870632038331,-298.151799066134
738509.43447201175149530172,-8.65947447126682,-8.68717001861629,-298.234885708182
738509.43447210220620036125,-8.65947447126682,-8.69640186773278,-298.216422009949
738509.43447219266090542078,-8.65947447126682,-8.69640186773278,-298.170262764367
738509.43447228311561048031,-8.65947447126682,-8.69640186773278,-298.262581255531
738509.43447237357031553984,-8.65024262215033,-8.69640186773278,-298.244117557298
738509.43447246402502059937,-8.65024262215033,-8.69640186773278,-298.1887264626
738509.43447255436331033707,-8.64101077303384,-8.69640186773278,-298.225653859066
738509.43447264481801539660,-8.64101077303384,-8.68717001861629,-298.271813104648
738509.43447273527272045612,-8.63177892391736,-8.68717001861629,-298.216422009949
738509.43447282572742551565,-8.63177892391736,-8.68717001861629,-298.1887264626
738509.43447291618213057518,-8.62254707480087,-8.68717001861629,-298.234885708182
738509.43447300652042031288,-8.61331522568438,-8.6779381694998,-298.244117557298
738509.43447309697512537241,-8.60408337656789,-8.66870632038331,-298.170262764367
738509.43447318742983043194,-8.5948515274514,-8.65024262215033,-298.244117557298
738509.43447327788453549147,-8.57638782921842,-8.64101077303384,-298.216422009949
738509.43447336833924055099,-8.55792413098544,-8.62254707480087,-298.151799066134
738509.43447345879394561052,-8.54869228186895,-8.61331522568438,-298.013321329386
738509.43447354913223534822,-8.52099673451949,-8.58561967833491,-298.087176122318
738509.43447363958694040775,-8.49330118717002,-8.56715598010193,-298.124103518784
738509.43447373004164546728,-8.45637379070406,-8.53946043275246,-298.197958311716
738509.43447382049635052681,-8.44714194158757,-8.52099673451949,-298.1887264626
738509.43447391095105558634,-8.4194463942381,-8.49330118717002,-298.197958311716
738509.43447400128934532404,-8.41021454512162,-8.49330118717002,-298.105639820551
738509.43447409174405038357,-8.38251899777215,-8.48406933805353,-298.197958311716
738509.43447418219875544310,-8.37328714865566,-8.47483748893704,-298.170262764367
738509.43447427265346050262,-8.36405529953917,-8.47483748893704,-298.16103091525
738509.43447436310816556215,-8.35482345042268,-8.49330118717002,-298.170262764367
738509.43447445344645529985,-8.36405529953917,-8.52099673451949,-298.170262764367
738509.43447454390116035938,-8.38251899777215,-8.54869228186895,-298.170262764367
738509.43447463435586541891,-8.41021454512162,-8.58561967833491,-298.133335367901
738509.43447472481057047844,-8.43791009247108,-8.61331522568438,-298.216422009949
738509.43447481526527553797,-8.47483748893704,-8.64101077303384,-298.216422009949
738509.43447490571998059750,-8.48406933805353,-8.64101077303384,-298.151799066134
738509.43447499605827033520,-8.50253303628651,-8.65947447126682,-298.197958311716
738509.43447508651297539473,-8.50253303628651,-8.65947447126682,-298.216422009949
738509.43447517696768045425,-8.511764885403,-8.65947447126682,-298.179494613483
738509.43447526742238551378,-8.50253303628651,-8.65947447126682,-298.234885708182
738509.43447535787709057331,-8.52099673451949,-8.65947447126682,-298.114871669668
738509.43447544821538031101,-8.511764885403,-8.65947447126682,-298.151799066134
738509.43447553867008537054,-8.52099673451949,-8.65947447126682,-298.197958311716
738509.43447562912479043007,-8.50253303628651,-8.65024262215033,-298.207190160833
738509.43447571957949548960,-8.511764885403,-8.65947447126682,-298.197958311716
738509.43447581003420054913,-8.49330118717002,-8.65024262215033,-298.197958311716
738509.43447590048890560865,-8.50253303628651,-8.65024262215033,-298.216422009949
738509.43447599082719534636,-8.511764885403,-8.65947447126682,-298.262581255531
738509.43447608128190040588,-8.49330118717002,-8.65024262215033,-298.1887264626
738509.43447617173660546541,-8.50253303628651,-8.65947447126682,-298.225653859066
738509.43447626219131052494,-8.50253303628651,-8.65024262215033,-298.207190160833
738509.43447635264601558447,-8.52099673451949,-8.65947447126682,-298.234885708182
738509.43447644298430532217,-8.50253303628651,-8.65024262215033,-298.1887264626
738509.43447653343901038170,-8.511764885403,-8.65947447126682,-298.244117557298
738509.43447662389371544123,-8.511764885403,-8.65947447126682,-298.244117557298
738509.43447671434842050076,-8.52099673451949,-8.66870632038331,-298.16103091525
738509.43447680480312556028,-8.511764885403,-8.65947447126682,-298.216422009949
738509.43447689525783061981,-8.52099673451949,-8.65947447126682,-298.225653859066
738509.43447698559612035751,-8.52099673451949,-8.65947447126682,-298.050248725852
738509.43447707605082541704,-8.53022858363597,-8.66870632038331,-298.114871669668
738509.43447716650553047657,-8.53022858363597,-8.66870632038331,-298.151799066134
738509.43447725696023553610,-8.53946043275246,-8.66870632038331,-298.133335367901
738509.43447734741494059563,-8.53022858363597,-8.65947447126682,-298.151799066134
738509.43447743775323033333,-8.53946043275246,-8.65947447126682,-298.114871669668
738509.43447752820793539286,-8.53946043275246,-8.66870632038331,-298.114871669668
738509.43447761866264045238,-8.53022858363597,-8.65947447126682,-298.124103518784
738509.43447770911734551191,-8.49330118717002,-8.65947447126682,-298.1887264626
738509.43447779957205057144,-8.48406933805353,-8.65947447126682,-298.1887264626
738509.43447789002675563097,-8.47483748893704,-8.65947447126682,-298.124103518784
738509.43447798036504536867,-8.4194463942381,-8.64101077303384,-298.207190160833
738509.43447807081975042820,-8.38251899777215,-8.63177892391736,-298.179494613483
738509.43447816127445548773,-8.35482345042268,-8.64101077303384,-298.207190160833
738509.43447825172916054726,-8.37328714865566,-8.63177892391736,-298.16103091525
738509.43447834218386560678,-8.36405529953917,-8.62254707480087,-298.179494613483
738509.43447843252215534449,-8.4194463942381,-8.61331522568438,-298.16103091525
738509.43447852297686040401,-8.47483748893704,-8.64101077303384,-298.151799066134
738509.43447861343156546354,-8.56715598010193,-8.65947447126682,-298.225653859066
738509.43447870388627052307,-8.57638782921842,-8.66870632038331,-298.234885708182
738509.43447879434097558260,-8.60408337656789,-8.6779381694998,-298.151799066134
738509.43447888467926532030,-8.61331522568438,-8.68717001861629,-298.170262764367
738509.43447897513397037983,-8.62254707480087,-8.68717001861629,-298.216422009949
738509.43447906558867543936,-8.62254707480087,-8.68717001861629,-298.253349406415
738509.43447915604338049889,-8.62254707480087,-8.68717001861629,-298.234885708182
738509.43447924649808555841,-8.63177892391736,-8.69640186773278,-298.244117557298
738509.43447933695279061794,-8.66870632038331,-8.68717001861629,-298.170262764367
738509.43447942729108035564,-8.79795220801416,-8.66870632038331,-298.216422009949
738509.43447951774578541517,-8.65024262215033,-8.61331522568438,-298.170262764367
738509.43447960820049047470,-8.07786797692801,-8.53022858363597,-298.133335367901
738509.43447969865519553423,-7.83783989989929,-8.43791009247108,-298.077944273202
738509.43447978910990059376,-7.50549333170568,-8.41021454512162,-298.133335367901
738509.43447987944819033146,-7.55165257728812,-8.35482345042268,-298.16103091525
738509.43447996990289539099,-8.46560563982055,-8.23480941190832,-298.151799066134
738509.43448006035760045052,-8.78872035889767,-8.44714194158757,-298.207190160833
738509.43448015081230551004,-8.70563371684927,-8.53946043275246,-298.142567217017
738509.43448024126701056957,-8.65947447126682,-8.62254707480087,-298.253349406415
738509.43448033172171562910,-8.66870632038331,-8.66870632038331,-298.234885708182
738509.43448042206000536680,-8.6779381694998,-8.6779381694998,-298.179494613483
738509.43448051251471042633,-8.6779381694998,-8.6779381694998,-298.124103518784
738509.43448060296941548586,-8.68717001861629,-8.68717001861629,-298.151799066134
738509.43448069342412054539,-8.66870632038331,-8.6779381694998,-298.216422009949
738509.43448078387882560492,-8.6779381694998,-8.6779381694998,-298.234885708182
738509.43448087421711534262,-8.66870632038331,-8.6779381694998,-298.234885708182
738509.43448096467182040215,-8.6779381694998,-8.6779381694998,-298.244117557298
738509.43448105512652546167,-8.65024262215033,-8.66870632038331,-298.124103518784
738509.43448114558123052120,-8.65947447126682,-8.66870632038331,-298.16103091525
738509.43448123603593558073,-8.64101077303384,-8.66870632038331,-298.170262764367
738509.43448132649064064026,-8.65024262215033,-8.65947447126682,-298.124103518784
738509.43448141682893037796,-8.62254707480087,-8.65024262215033,-298.16103091525
738509.43448150728363543749,-8.62254707480087,-8.64101077303384,-298.179494613483
738509.43448159773834049702,-8.61331522568438,-8.64101077303384,-298.225653859066
738509.43448168819304555655,-8.60408337656789,-8.62254707480087,-298.179494613483
738509.43448177864775061607,-8.58561967833491,-8.61331522568438,-298.244117557298
738509.43448186898604035378,-8.55792413098544,-8.58561967833491,-298.244117557298
738509.43448195944074541330,-8.54869228186895,-8.56715598010193,-298.142567217017
738509.43448204989545047283,-8.511764885403,-8.53946043275246,-298.207190160833
738509.43448214035015553236,-8.49330118717002,-8.52099673451949,-298.170262764367
738509.43448223080486059189,-8.46560563982055,-8.49330118717002,-298.16103091525
738509.43448232114315032959,-8.45637379070406,-8.48406933805353,-298.151799066134
738509.43448241159785538912,-8.42867824335459,-8.47483748893704,-298.16103091525
738509.43448250205256044865,-8.42867824335459,-8.47483748893704,-298.142567217017
738509.43448259250726550817,-8.41021454512162,-8.46560563982055,-298.114871669668
738509.43448268296197056770,-8.41021454512162,-8.48406933805353,-298.124103518784
738509.43448277341667562723,-8.41021454512162,-8.50253303628651,-298.142567217017
738509.43448286375496536493,-8.44714194158757,-8.54869228186895,-298.16103091525
738509.43448295420967042446,-8.45637379070406,-8.56715598010193,-298.170262764367
738509.43448304466437548399,-8.48406933805353,-8.5948515274514,-298.1887264626
738509.43448313511908054352,-8.511764885403,-8.62254707480087,-298.16103091525
738509.43448322557378560305,-8.53946043275246,-8.63177892391736,-298.207190160833
738509.43448331591207534075,-8.53946043275246,-8.64101077303384,-298.1887264626
738509.43448340636678040028,-8.56715598010193,-8.65024262215033,-298.234885708182
738509.43448349682148545980,-8.56715598010193,-8.65024262215033,-298.234885708182
738509.43448358727619051933,-8.55792413098544,-8.65024262215033,-298.216422009949
738509.43448367773089557886,-8.57638782921842,-8.65024262215033,-298.197958311716
738509.43448376818560063839,-8.56715598010193,-8.64101077303384,-298.216422009949
738509.43448385852389037609,-8.57638782921842,-8.65024262215033,-298.234885708182
738509.43448394897859543562,-8.56715598010193,-8.64101077303384,-298.170262764367
738509.43448403943330049515,-8.57638782921842,-8.64101077303384,-298.114871669668
738509.43448412988800555468,-8.55792413098544,-8.64101077303384,-298.077944273202
738509.43448422034271061420,-8.56715598010193,-8.64101077303384,-298.142567217017
738509.43448431068100035191,-8.55792413098544,-8.64101077303384,-298.133335367901
738509.43448440113570541143,-8.57638782921842,-8.64101077303384,-298.151799066134
738509.43448449159041047096,-8.55792413098544,-8.63177892391736,-298.16103091525
738509.43448458204511553049,-8.56715598010193,-8.64101077303384,-298.170262764367
738509.43448467249982059002,-8.55792413098544,-8.63177892391736,-298.253349406415
738509.43448476295452564955,-8.57638782921842,-8.64101077303384,-298.262581255531
738509.43448485329281538725,-8.57638782921842,-8.64101077303384,-298.197958311716
738509.43448494374752044678,-8.57638782921842,-8.64101077303384,-298.207190160833
738509.43448503420222550631,-8.57638782921842,-8.65024262215033,-298.207190160833
738509.43448512465693056583,-8.58561967833491,-8.64101077303384,-298.216422009949
738509.43448521511163562536,-8.5948515274514,-8.65024262215033,-298.207190160833
738509.43448530544992536306,-8.58561967833491,-8.65024262215033,-298.225653859066
738509.43448539590463042259,-8.57638782921842,-8.65024262215033,-298.244117557298
738509.43448548635933548212,-8.53946043275246,-8.65024262215033,-298.225653859066
738509.43448557681404054165,-8.53022858363597,-8.64101077303384,-298.207190160833
738509.43448566726874560118,-8.48406933805353,-8.62254707480087,-298.225653859066
738509.43448575772345066071,-8.43791009247108,-8.61331522568438,-298.244117557298
738509.43448584806174039841,-8.41021454512162,-8.63177892391736,-298.1887264626
738509.43448593851644545794,-8.4194463942381,-8.62254707480087,-298.253349406415
738509.43448602897115051746,-8.4194463942381,-8.61331522568438,-298.271813104648
738509.43448611942585557699,-8.44714194158757,-8.61331522568438,-298.16103091525
738509.43448620988056063652,-8.53022858363597,-8.62254707480087,-298.216422009949
738509.43448630021885037422,-8.63177892391736,-8.64101077303384,-298.234885708182
738509.43448639067355543375,-8.65024262215033,-8.66870632038331,-298.179494613483
738509.43448648112826049328,-8.66870632038331,-8.66870632038331,-298.271813104648
738509.43448657158296555281,-8.68717001861629,-8.66870632038331,-298.244117557298
738509.43448666203767061234,-8.69640186773278,-8.66870632038331,-298.179494613483
738509.43448675237596035004,-8.70563371684927,-8.6779381694998,-298.234885708182
738509.43448684283066540956,-8.69640186773278,-8.6779381694998,-298.216422009949
738509.43448693328537046909,-8.70563371684927,-8.68717001861629,-298.207190160833
738509.43448702374007552862,-8.72409741508225,-8.66870632038331,-298.216422009949
738509.43448711419478058815,-8.84411145359661,-8.66870632038331,-298.207190160833
738509.43448720464948564768,-8.81641590624714,-8.62254707480087,-298.207190160833
738509.43448729498777538538,-8.58561967833491,-8.61331522568438,-298.16103091525
738509.43448738544248044491,-7.9947813348796,-8.48406933805353,-298.114871669668
738509.43448747589718550444,-7.64397106845302,-8.38251899777215,-298.096407971435
738509.43448756635189056396,-7.4870296334727,-8.43791009247108,-298.050248725852
738509.43448765680659562349,-8.29943235572375,-8.31789605395672,-298.013321329386
738509.43448774714488536119,-8.87180700094607,-8.44714194158757,-298.151799066134
738509.43448783759959042072,-8.84411145359661,-8.50253303628651,-298.142567217017
738509.43448792805429548025,-8.77948850978118,-8.58561967833491,-298.133335367901
738509.43448801850900053978,-8.75179296243171,-8.64101077303384,-298.207190160833
738509.43448810896370559931,-8.7610248115482,-8.65947447126682,-298.179494613483
738509.43448819941841065884,-8.75179296243171,-8.65947447126682,-298.1887264626
738509.43448828975670039654,-8.7610248115482,-8.65947447126682,-298.234885708182
738509.43448838021140545607,-8.75179296243171,-8.65947447126682,-298.290276802881
738509.43448847066611051559,-8.7610248115482,-8.65947447126682,-298.234885708182
738509.43448856112081557512,-8.74256111331523,-8.65947447126682,-298.271813104648
738509.43448865157552063465,-8.75179296243171,-8.65947447126682,-298.253349406415
738509.43448874191381037235,-8.73332926419874,-8.65024262215033,-298.253349406415
738509.43448883236851543188,-8.74256111331523,-8.65024262215033,-298.225653859066
738509.43448892282322049141,-8.72409741508225,-8.65024262215033,-298.281044953764
738509.43448901327792555094,-8.72409741508225,-8.65024262215033,-298.271813104648
738509.43448910373263061047,-8.72409741508225,-8.65024262215033,-298.262581255531
738509.43448919418733566999,-8.70563371684927,-8.63177892391736,-298.262581255531
738509.43448928452562540770,-8.69640186773278,-8.63177892391736,-298.225653859066
738509.43448937498033046722,-8.66870632038331,-8.61331522568438,-298.271813104648
738509.43448946543503552675,-8.66870632038331,-8.60408337656789,-298.207190160833
738509.43448955588974058628,-8.65024262215033,-8.58561967833491,-298.253349406415
738509.43448964634444564581,-8.64101077303384,-8.56715598010193,-298.253349406415
738509.43448973668273538351,-8.61331522568438,-8.54869228186895,-298.262581255531
738509.43448982713744044304,-8.60408337656789,-8.53022858363597,-298.170262764367
738509.43448991759214550257,-8.56715598010193,-8.511764885403,-298.16103091525
738509.43449000804685056210,-8.55792413098544,-8.50253303628651,-298.170262764367
738509.43449009850155562162,-8.52099673451949,-8.49330118717002,-298.133335367901
738509.43449018895626068115,-8.53022858363597,-8.48406933805353,-298.151799066134
738509.43449027929455041885,-8.511764885403,-8.49330118717002,-298.142567217017
738509.43449036974925547838,-8.52099673451949,-8.50253303628651,-298.170262764367
738509.43449046020396053791,-8.50253303628651,-8.52099673451949,-298.1887264626
738509.43449055065866559744,-8.53022858363597,-8.55792413098544,-298.197958311716
738509.43449064111337065697,-8.54869228186895,-8.57638782921842,-298.16103091525
738509.43449073145166039467,-8.58561967833491,-8.60408337656789,-298.234885708182
738509.43449082190636545420,-8.60408337656789,-8.62254707480087,-298.225653859066
738509.43449091236107051373,-8.62254707480087,-8.64101077303384,-298.225653859066
738509.43449100281577557325,-8.64101077303384,-8.64101077303384,-298.234885708182
738509.43449109327048063278,-8.65024262215033,-8.64101077303384,-298.170262764367
738509.43449118360877037048,-8.65947447126682,-8.65024262215033,-298.087176122318
738509.43449127406347543001,-8.65947447126682,-8.65024262215033,-298.244117557298
738509.43449136451818048954,-8.65947447126682,-8.65024262215033,-298.216422009949
738509.43449145497288554907,-8.65024262215033,-8.64101077303384,-298.1887264626
738509.43449154542759060860,-8.66870632038331,-8.65024262215033,-298.253349406415
738509.43449163588229566813,-8.65024262215033,-8.64101077303384,-298.234885708182
738509.43449172622058540583,-8.65947447126682,-8.64101077303384,-298.216422009949
738509.43449181667529046535,-8.65024262215033,-8.64101077303384,-298.216422009949
738509.43449190712999552488,-8.65947447126682,-8.63177892391736,-298.262581255531
738509.43449199758470058441,-8.64101077303384,-8.63177892391736,-298.262581255531
738509.43449208803940564394,-8.64101077303384,-8.64101077303384,-298.244117557298
738509.43449217837769538164,-8.65024262215033,-8.64101077303384,-298.225653859066
738509.43449226883240044117,-8.64101077303384,-8.63177892391736,-298.179494613483
738509.43449235928710550070,-8.65024262215033,-8.64101077303384,-298.207190160833
738509.43449244974181056023,-8.65024262215033,-8.64101077303384,-298.244117557298
738509.43449254019651561975,-8.65947447126682,-8.64101077303384,-298.262581255531
738509.43449263065122067928,-8.63177892391736,-8.63177892391736,-298.179494613483
738509.43449272098951041698,-8.61331522568438,-8.64101077303384,-298.151799066134
738509.43449281144421547651,-8.58561967833491,-8.63177892391736,-298.1887264626
738509.43449290189892053604,-8.58561967833491,-8.62254707480087,-298.179494613483
738509.43449299235362559557,-8.53022858363597,-8.60408337656789,-298.1887264626
738509.43449308280833065510,-8.49330118717002,-8.61331522568438,-298.170262764367
738509.43449317314662039280,-8.47483748893704,-8.63177892391736,-298.262581255531
738509.43449326360132545233,-8.47483748893704,-8.62254707480087,-298.271813104648
738509.43449335405603051186,-8.48406933805353,-8.61331522568438,-298.225653859066
738509.43449344451073557138,-8.50253303628651,-8.61331522568438,-298.244117557298
738509.43449353496544063091,-8.58561967833491,-8.62254707480087,-298.253349406415
738509.43449362542014569044,-8.66870632038331,-8.64101077303384,-298.253349406415
738509.43449371575843542814,-8.69640186773278,-8.65947447126682,-298.216422009949
738509.43449380621314048767,-8.71486556596576,-8.65947447126682,-298.225653859066
738509.43449389666784554720,-8.73332926419874,-8.66870632038331,-298.281044953764
738509.43449398712255060673,-8.73332926419874,-8.66870632038331,-298.290276802881
738509.43449407757725566626,-8.75179296243171,-8.66870632038331,-298.253349406415
738509.43449416791554540396,-8.74256111331523,-8.66870632038331,-298.262581255531
738509.43449425837025046349,-8.7610248115482,-8.6779381694998,-298.290276802881
738509.43449434882495552301,-8.7610248115482,-8.66870632038331,-298.234885708182
738509.43449443927966058254,-8.89027069917905,-8.66870632038331,-298.290276802881
738509.43449452973436564207,-8.84411145359661,-8.63177892391736,-298.262581255531
738509.43449462007265537977,-8.28096865749077,-8.56715598010193,-298.013321329386
738509.43449471052736043930,-7.81014435254982,-8.4194463942381,-298.059480574969
738509.43449480098206549883,-7.65320291756951,-8.41021454512162,-298.022553178503
738509.43449489143677055836,-7.4870296334727,-8.45637379070406,-298.124103518784
738509.43449498189147561789,-8.28096865749077,-8.32712790307321,-298.133335367901
738509.43449507234618067741,-8.89027069917905,-8.46560563982055,-298.216422009949
738509.43449516268447041512,-8.85334330271309,-8.52099673451949,-298.207190160833
738509.43449525313917547464,-8.78872035889767,-8.60408337656789,-298.225653859066
738509.43449534359388053417,-8.77025666066469,-8.64101077303384,-298.271813104648
738509.43449543404858559370,-8.78872035889767,-8.66870632038331,-298.290276802881
738509.43449552450329065323,-8.77025666066469,-8.66870632038331,-298.234885708182
738509.43449561484158039093,-8.77948850978118,-8.66870632038331,-298.225653859066
738509.43449570529628545046,-8.77025666066469,-8.65947447126682,-298.234885708182
738509.43449579575099050999,-8.77025666066469,-8.66870632038331,-298.262581255531
738509.43449588620569556952,-8.75179296243171,-8.65947447126682,-298.216422009949
738509.43449597666040062904,-8.7610248115482,-8.65947447126682,-298.216422009949
738509.43449606711510568857,-8.75179296243171,-8.65947447126682,-298.262581255531
738509.43449615745339542627,-8.74256111331523,-8.65024262215033,-298.262581255531
738509.43449624790810048580,-8.73332926419874,-8.65947447126682,-298.299508651997
738509.43449633836280554533,-8.72409741508225,-8.65024262215033,-298.308740501114
738509.43449642881751060486,-8.71486556596576,-8.64101077303384,-298.244117557298
738509.43449651927221566439,-8.70563371684927,-8.63177892391736,-298.281044953764
738509.43449660961050540209,-8.69640186773278,-8.62254707480087,-298.262581255531
738509.43449670006521046162,-8.6779381694998,-8.61331522568438,-298.262581255531
738509.43449679051991552114,-8.6779381694998,-8.61331522568438,-298.234885708182
738509.43449688097462058067,-8.65024262215033,-8.5948515274514,-298.271813104648
738509.43449697142932564020,-8.64101077303384,-8.56715598010193,-298.262581255531
738509.43449706188403069973,-8.60408337656789,-8.54869228186895,-298.225653859066
738509.43449715222232043743,-8.58561967833491,-8.52099673451949,-298.253349406415
738509.43449724267702549696,-8.55792413098544,-8.511764885403,-298.262581255531
738509.43449733313173055649,-8.53946043275246,-8.49330118717002,-298.216422009949
738509.43449742358643561602,-8.52099673451949,-8.48406933805353,-298.216422009949
738509.43449751404114067554,-8.511764885403,-8.48406933805353,-298.225653859066
738509.43449760437943041325,-8.50253303628651,-8.48406933805353,-298.281044953764
738509.43449769483413547277,-8.49330118717002,-8.50253303628651,-298.197958311716
738509.43449778528884053230,-8.49330118717002,-8.53022858363597,-298.244117557298
738509.43449787574354559183,-8.511764885403,-8.55792413098544,-298.262581255531
738509.43449796619825065136,-8.53946043275246,-8.58561967833491,-298.207190160833
738509.43449805665295571089,-8.56715598010193,-8.61331522568438,-298.271813104648
738509.43449814699124544859,-8.58561967833491,-8.63177892391736,-298.114871669668
738509.43449823744595050812,-8.60408337656789,-8.64101077303384,-298.16103091525
738509.43449832790065556765,-8.61331522568438,-8.65024262215033,-298.281044953764
738509.43449841835536062717,-8.62254707480087,-8.65024262215033,-298.271813104648
738509.43449850881006568670,-8.63177892391736,-8.66870632038331,-298.271813104648
738509.43449859914835542440,-8.62254707480087,-8.65947447126682,-298.225653859066
738509.43449868960306048393,-8.62254707480087,-8.65947447126682,-298.281044953764
738509.43449878005776554346,-8.62254707480087,-8.65947447126682,-298.31797235023
738509.43449887051247060299,-8.62254707480087,-8.65024262215033,-298.262581255531
738509.43449896096717566252,-8.62254707480087,-8.65024262215033,-298.271813104648
738509.43449905130546540022,-8.62254707480087,-8.65024262215033,-298.271813104648
738509.43449914176017045975,-8.61331522568438,-8.65024262215033,-298.299508651997
738509.43449923221487551928,-8.61331522568438,-8.65024262215033,-298.225653859066
738509.43449932266958057880,-8.61331522568438,-8.65024262215033,-298.216422009949
738509.43449941312428563833,-8.60408337656789,-8.64101077303384,-298.225653859066
738509.43449950357899069786,-8.60408337656789,-8.64101077303384,-298.253349406415
738509.43449959391728043556,-8.60408337656789,-8.65024262215033,-298.244117557298
738509.43449968437198549509,-8.61331522568438,-8.65024262215033,-298.271813104648
738509.43449977482669055462,-8.60408337656789,-8.65024262215033,-298.207190160833
738509.43449986528139561415,-8.61331522568438,-8.65947447126682,-298.197958311716
738509.43449995573610067368,-8.5948515274514,-8.64101077303384,-298.216422009949
738509.43450004607439041138,-8.58561967833491,-8.64101077303384,-298.216422009949
738509.43450013652909547091,-8.54869228186895,-8.64101077303384,-298.271813104648
738509.43450022698380053043,-8.53946043275246,-8.64101077303384,-298.225653859066
738509.43450031743850558996,-8.48406933805353,-8.62254707480087,-298.253349406415
738509.43450040789321064949,-8.45637379070406,-8.62254707480087,-298.244117557298
738509.43450049834791570902,-8.43791009247108,-8.63177892391736,-298.290276802881
738509.43450058868620544672,-8.42867824335459,-8.64101077303384,-298.244117557298
738509.43450067914091050625,-8.43791009247108,-8.63177892391736,-298.299508651997
738509.43450076959561556578,-8.42867824335459,-8.62254707480087,-298.31797235023
738509.43450086005032062531,-8.50253303628651,-8.63177892391736,-298.216422009949
738509.43450095050502568483,-8.57638782921842,-8.63177892391736,-298.253349406415
738509.43450104084331542253,-8.64101077303384,-8.65947447126682,-298.281044953764
738509.43450113129802048206,-8.65024262215033,-8.66870632038331,-298.281044953764
738509.43450122175272554159,-8.6779381694998,-8.6779381694998,-298.225653859066
738509.43450131220743060112,-8.6779381694998,-8.6779381694998,-298.281044953764
738509.43450140266213566065,-8.70563371684927,-8.68717001861629,-298.290276802881
738509.43450149311684072018,-8.69640186773278,-8.68717001861629,-298.281044953764
738509.43450158345513045788,-8.70563371684927,-8.68717001861629,-298.299508651997
738509.43450167390983551741,-8.69640186773278,-8.68717001861629,-298.087176122318
738509.43450176436454057693,-8.7610248115482,-8.6779381694998,-298.207190160833
738509.43450185481924563646,-8.87180700094607,-8.64101077303384,-298.299508651997
738509.43450194527395069599,-8.55792413098544,-8.60408337656789,-298.234885708182
738509.43450203561224043369,-7.95785393841365,-8.49330118717002,-298.197958311716
738509.43450212606694549322,-7.59781182287057,-8.4194463942381,-298.207190160833
738509.43450221652165055275,-7.44087038789026,-8.41021454512162,-298.1887264626
738509.43450230697635561228,-8.22557756279183,-8.26250495925779,-298.114871669668
738509.43450239743106067181,-8.6779381694998,-8.32712790307321,-298.16103091525
738509.43450248776935040951,-8.82564775536363,-8.47483748893704,-298.197958311716
738509.43450257822405546904,-8.74256111331523,-8.58561967833491,-298.197958311716
738509.43450266867876052856,-8.71486556596576,-8.64101077303384,-298.197958311716
738509.43450275913346558809,-8.73332926419874,-8.6779381694998,-298.253349406415
738509.43450284958817064762,-8.72409741508225,-8.6779381694998,-298.281044953764
738509.43450294004287570715,-8.72409741508225,-8.68717001861629,-298.216422009949
738509.43450303038116544485,-8.71486556596576,-8.68717001861629,-298.299508651997
738509.43450312083587050438,-8.71486556596576,-8.6779381694998,-298.327204199347
738509.43450321129057556391,-8.70563371684927,-8.6779381694998,-298.253349406415
738509.43450330174528062344,-8.70563371684927,-8.6779381694998,-298.271813104648
738509.43450339219998568296,-8.68717001861629,-8.6779381694998,-298.262581255531
738509.43450348253827542067,-8.68717001861629,-8.6779381694998,-298.253349406415
738509.43450357299298048019,-8.6779381694998,-8.66870632038331,-298.225653859066
738509.43450366344768553972,-8.66870632038331,-8.65947447126682,-298.225653859066
738509.43450375390239059925,-8.65947447126682,-8.65947447126682,-298.234885708182
738509.43450384435709565878,-8.65024262215033,-8.65024262215033,-298.234885708182
738509.43450393481180071831,-8.64101077303384,-8.64101077303384,-298.234885708182
738509.43450402515009045601,-8.62254707480087,-8.63177892391736,-298.253349406415
738509.43450411560479551554,-8.61331522568438,-8.62254707480087,-298.271813104648
738509.43450420605950057507,-8.5948515274514,-8.5948515274514,-298.262581255531
738509.43450429651420563459,-8.58561967833491,-8.5948515274514,-298.262581255531
738509.43450438696891069412,-8.55792413098544,-8.56715598010193,-298.179494613483
738509.43450447730720043182,-8.53946043275246,-8.54869228186895,-298.207190160833
738509.43450456776190549135,-8.50253303628651,-8.52099673451949,-298.234885708182
738509.43450465821661055088,-8.48406933805353,-8.511764885403,-298.225653859066
738509.43450474867131561041,-8.45637379070406,-8.49330118717002,-298.244117557298
738509.43450483912602066994,-8.44714194158757,-8.48406933805353,-298.170262764367
738509.43450492958072572947,-8.43791009247108,-8.48406933805353,-298.234885708182
738509.43450501991901546717,-8.42867824335459,-8.49330118717002,-298.197958311716
738509.43450511037372052670,-8.42867824335459,-8.52099673451949,-298.225653859066
738509.43450520082842558622,-8.43791009247108,-8.55792413098544,-298.124103518784
738509.43450529128313064575,-8.47483748893704,-8.58561967833491,-298.142567217017
738509.43450538173783570528,-8.48406933805353,-8.60408337656789,-298.16103091525
738509.43450547207612544298,-8.511764885403,-8.63177892391736,-298.281044953764
738509.43450556253083050251,-8.52099673451949,-8.64101077303384,-298.253349406415
738509.43450565298553556204,-8.54869228186895,-8.65947447126682,-298.1887264626
738509.43450574344024062157,-8.55792413098544,-8.65947447126682,-298.262581255531
738509.43450583389494568110,-8.56715598010193,-8.65947447126682,-298.281044953764
738509.43450592434965074062,-8.55792413098544,-8.65947447126682,-298.299508651997
738509.43450601468794047832,-8.56715598010193,-8.65947447126682,-298.207190160833
738509.43450610514264553785,-8.55792413098544,-8.65947447126682,-298.253349406415
738509.43450619559735059738,-8.55792413098544,-8.65947447126682,-298.299508651997
738509.43450628605205565691,-8.55792413098544,-8.65947447126682,-298.262581255531
738509.43450637650676071644,-8.54869228186895,-8.65947447126682,-298.225653859066
738509.43450646684505045414,-8.54869228186895,-8.65947447126682,-298.262581255531
738509.43450655729975551367,-8.53946043275246,-8.65947447126682,-298.290276802881
738509.43450664775446057320,-8.54869228186895,-8.65947447126682,-298.253349406415
738509.43450673820916563272,-8.53022858363597,-8.65024262215033,-298.244117557298
738509.43450682866387069225,-8.53946043275246,-8.65947447126682,-298.262581255531
738509.43450691900216042995,-8.53022858363597,-8.65947447126682,-298.253349406415
738509.43450700945686548948,-8.53946043275246,-8.65947447126682,-298.216422009949
738509.43450709991157054901,-8.52099673451949,-8.65024262215033,-298.253349406415
738509.43450719036627560854,-8.53946043275246,-8.65947447126682,-298.290276802881
738509.43450728082098066807,-8.53022858363597,-8.65947447126682,-298.262581255531
738509.43450737127568572760,-8.52099673451949,-8.65024262215033,-298.234885708182
738509.43450746161397546530,-8.48406933805353,-8.65024262215033,-298.244117557298
738509.43450755206868052483,-8.46560563982055,-8.65947447126682,-298.197958311716
738509.43450764252338558435,-8.42867824335459,-8.63177892391736,-298.179494613483
738509.43450773297809064388,-8.38251899777215,-8.62254707480087,-298.170262764367
738509.43450782343279570341,-8.35482345042268,-8.63177892391736,-298.197958311716
738509.43450791377108544111,-8.35482345042268,-8.64101077303384,-298.216422009949
738509.43450800422579050064,-8.34559160130619,-8.63177892391736,-298.253349406415
738509.43450809468049556017,-8.35482345042268,-8.62254707480087,-298.244117557298
738509.43450818513520061970,-8.39175084688864,-8.62254707480087,-298.244117557298
738509.43450827558990567923,-8.44714194158757,-8.63177892391736,-298.290276802881
738509.43450836604461073875,-8.54869228186895,-8.65024262215033,-298.308740501114
738509.43450845638290047646,-8.56715598010193,-8.66870632038331,-298.234885708182
738509.43450854683760553598,-8.5948515274514,-8.6779381694998,-298.290276802881
738509.43450863729231059551,-8.60408337656789,-8.68717001861629,-298.299508651997
738509.43450872774701565504,-8.62254707480087,-8.68717001861629,-298.114871669668
738509.43450881820172071457,-8.60408337656789,-8.68717001861629,-298.114871669668
738509.43450890854001045227,-8.62254707480087,-8.68717001861629,-298.244117557298
738509.43450899899471551180,-8.61331522568438,-8.69640186773278,-298.290276802881
738509.43450908944942057133,-8.65024262215033,-8.68717001861629,-298.225653859066
738509.43450917990412563086,-8.75179296243171,-8.66870632038331,-298.299508651997
738509.43450927035883069038,-8.71486556596576,-8.61331522568438,-298.197958311716
738509.43450936081353574991,-8.12402722251045,-8.54869228186895,-298.16103091525
738509.43450945115182548761,-7.68089846491897,-8.43791009247108,-298.105639820551
738509.43450954160653054714,-7.38547929319132,-8.43791009247108,-298.170262764367
738509.43450963206123560667,-7.69013031403546,-8.29943235572375,-298.170262764367
738509.43450972251594066620,-8.65024262215033,-8.3363597521897,-298.253349406415
738509.43450981297064572573,-8.72409741508225,-8.49330118717002,-298.234885708182
738509.43450990330893546343,-8.64101077303384,-8.60408337656789,-298.281044953764
738509.43450999376364052296,-8.63177892391736,-8.63177892391736,-298.299508651997
738509.43451008421834558249,-8.65024262215033,-8.6779381694998,-298.234885708182
738509.43451017467305064201,-8.65024262215033,-8.68717001861629,-298.290276802881
738509.43451026512775570154,-8.66870632038331,-8.69640186773278,-298.299508651997
738509.43451035558246076107,-8.65024262215033,-8.68717001861629,-298.271813104648
738509.43451044592075049877,-8.65947447126682,-8.68717001861629,-298.197958311716
738509.43451053637545555830,-8.64101077303384,-8.69640186773278,-298.253349406415
738509.43451062683016061783,-8.63177892391736,-8.68717001861629,-298.244117557298
738509.43451071728486567736,-8.62254707480087,-8.68717001861629,-298.197958311716
738509.43451080773957073689,-8.62254707480087,-8.6779381694998,-298.244117557298
738509.43451089807786047459,-8.61331522568438,-8.6779381694998,-298.262581255531
738509.43451098853256553411,-8.60408337656789,-8.66870632038331,-298.234885708182
738509.43451107898727059364,-8.60408337656789,-8.66870632038331,-298.253349406415
738509.43451116944197565317,-8.5948515274514,-8.65947447126682,-298.244117557298
738509.43451125989668071270,-8.58561967833491,-8.65947447126682,-298.244117557298
738509.43451135023497045040,-8.56715598010193,-8.64101077303384,-298.207190160833
738509.43451144068967550993,-8.55792413098544,-8.63177892391736,-298.1887264626
738509.43451153114438056946,-8.53022858363597,-8.61331522568438,-298.207190160833
738509.43451162159908562899,-8.511764885403,-8.5948515274514,-298.151799066134
738509.43451171205379068851,-8.47483748893704,-8.55792413098544,-298.151799066134
738509.43451180250849574804,-8.47483748893704,-8.54869228186895,-298.133335367901
738509.43451189284678548574,-8.44714194158757,-8.53022858363597,-298.133335367901
738509.43451198330149054527,-8.41021454512162,-8.511764885403,-298.151799066134
738509.43451207375619560480,-8.39175084688864,-8.49330118717002,-298.170262764367
738509.43451216421090066433,-8.37328714865566,-8.48406933805353,-298.170262764367
738509.43451225466560572386,-8.36405529953917,-8.48406933805353,-298.105639820551
738509.43451234500389546156,-8.34559160130619,-8.48406933805353,-298.068712424085
738509.43451243545860052109,-8.35482345042268,-8.511764885403,-298.16103091525
738509.43451252591330558062,-8.36405529953917,-8.53946043275246,-298.142567217017
738509.43451261636801064014,-8.38251899777215,-8.57638782921842,-298.1887264626
738509.43451270682271569967,-8.40098269600513,-8.60408337656789,-298.1887264626
738509.43451279727742075920,-8.44714194158757,-8.63177892391736,-298.207190160833
738509.43451288761571049690,-8.45637379070406,-8.64101077303384,-298.253349406415
738509.43451297807041555643,-8.48406933805353,-8.65947447126682,-298.1887264626
738509.43451306852512061596,-8.48406933805353,-8.65947447126682,-298.207190160833
738509.43451315897982567549,-8.50253303628651,-8.66870632038331,-298.207190160833
738509.43451324943453073502,-8.49330118717002,-8.66870632038331,-298.197958311716
738509.43451333977282047272,-8.50253303628651,-8.66870632038331,-298.207190160833
738509.43451343022752553225,-8.49330118717002,-8.66870632038331,-298.244117557298
738509.43451352068223059177,-8.49330118717002,-8.66870632038331,-298.234885708182
738509.43451361113693565130,-8.48406933805353,-8.66870632038331,-298.253349406415
738509.43451370159164071083,-8.48406933805353,-8.66870632038331,-298.262581255531
738509.43451379204634577036,-8.49330118717002,-8.66870632038331,-298.262581255531
738509.43451388238463550806,-8.47483748893704,-8.66870632038331,-298.262581255531
738509.43451397283934056759,-8.49330118717002,-8.66870632038331,-298.262581255531
738509.43451406329404562712,-8.48406933805353,-8.65947447126682,-298.271813104648
738509.43451415374875068665,-8.48406933805353,-8.66870632038331,-298.281044953764
738509.43451424420345574617,-8.46560563982055,-8.65947447126682,-298.216422009949
738509.43451433454174548388,-8.47483748893704,-8.65947447126682,-298.253349406415
738509.43451442499645054340,-8.46560563982055,-8.65947447126682,-298.299508651997
738509.43451451545115560293,-8.47483748893704,-8.65947447126682,-298.197958311716
738509.43451460590586066246,-8.46560563982055,-8.65947447126682,-298.253349406415
738509.43451469636056572199,-8.47483748893704,-8.66870632038331,-298.271813104648
738509.43451478669885545969,-8.47483748893704,-8.65947447126682,-298.244117557298
738509.43451487715356051922,-8.47483748893704,-8.66870632038331,-298.244117557298
738509.43451496760826557875,-8.46560563982055,-8.66870632038331,-298.299508651997
738509.43451505806297063828,-8.47483748893704,-8.65947447126682,-298.290276802881
738509.43451514851767569780,-8.43791009247108,-8.65024262215033,-298.253349406415
738509.43451523897238075733,-8.4194463942381,-8.66870632038331,-298.234885708182
738509.43451532931067049503,-8.39175084688864,-8.65947447126682,-298.281044953764
738509.43451541976537555456,-8.3363597521897,-8.64101077303384,-298.299508651997
738509.43451551022008061409,-8.30866420484024,-8.64101077303384,-298.207190160833
738509.43451560067478567362,-8.29020050660726,-8.65024262215033,-298.271813104648
738509.43451569112949073315,-8.29943235572375,-8.65947447126682,-298.299508651997
738509.43451578146778047085,-8.29020050660726,-8.63177892391736,-298.216422009949
738509.43451587192248553038,-8.32712790307321,-8.63177892391736,-298.114871669668
738509.43451596237719058990,-8.38251899777215,-8.64101077303384,-298.271813104648
738509.43451605283189564943,-8.48406933805353,-8.65024262215033,-298.234885708182
738509.43451614328660070896,-8.511764885403,-8.6779381694998,-298.1887264626
738509.43451623374130576849,-8.53946043275246,-8.68717001861629,-298.170262764367
738509.43451632407959550619,-8.54869228186895,-8.68717001861629,-298.207190160833
738509.43451641453430056572,-8.55792413098544,-8.69640186773278,-298.207190160833
738509.43451650498900562525,-8.55792413098544,-8.69640186773278,-298.1887264626
738509.43451659544371068478,-8.56715598010193,-8.69640186773278,-298.262581255531
738509.43451668589841574430,-8.56715598010193,-8.70563371684927,-298.253349406415
738509.43451677623670548201,-8.5948515274514,-8.69640186773278,-298.234885708182
738509.43451686669141054153,-8.68717001861629,-8.68717001861629,-298.225653859066
738509.43451695714611560106,-8.70563371684927,-8.61331522568438,-298.225653859066
738509.43451704760082066059,-8.17941831720939,-8.56715598010193,-298.16103091525
738509.43451713805552572012,-7.69013031403546,-8.43791009247108,-298.16103091525
738509.43451722851023077965,-7.38547929319132,-8.44714194158757,-298.124103518784
738509.43451731884852051735,-7.57934812463759,-8.29943235572375,-298.077944273202
738509.43451740930322557688,-8.54869228186895,-8.29020050660726,-298.133335367901
738509.43451749975793063641,-8.68717001861629,-8.4194463942381,-298.197958311716
738509.43451759021263569593,-8.62254707480087,-8.53946043275246,-298.225653859066
738509.43451768066734075546,-8.57638782921842,-8.63177892391736,-298.225653859066
738509.43451777100563049316,-8.5948515274514,-8.6779381694998,-298.197958311716
738509.43451786146033555269,-8.5948515274514,-8.68717001861629,-298.216422009949
738509.43451795191504061222,-8.60408337656789,-8.69640186773278,-298.207190160833
738509.43451804236974567175,-8.5948515274514,-8.69640186773278,-298.234885708182
738509.43451813282445073128,-8.5948515274514,-8.69640186773278,-298.290276802881
738509.43451822327915579081,-8.5948515274514,-8.69640186773278,-298.271813104648
738509.43451831361744552851,-8.58561967833491,-8.68717001861629,-298.253349406415
738509.43451840407215058804,-8.57638782921842,-8.68717001861629,-298.281044953764
738509.43451849452685564756,-8.55792413098544,-8.6779381694998,-298.271813104648
738509.43451858498156070709,-8.56715598010193,-8.6779381694998,-298.281044953764
738509.43451867543626576662,-8.54869228186895,-8.66870632038331,-298.262581255531
738509.43451876577455550432,-8.55792413098544,-8.66870632038331,-298.281044953764
738509.43451885622926056385,-8.53946043275246,-8.65947447126682,-298.253349406415
738509.43451894668396562338,-8.53022858363597,-8.65024262215033,-298.197958311716
738509.43451903713867068291,-8.511764885403,-8.63177892391736,-298.271813104648
738509.43451912759337574244,-8.50253303628651,-8.63177892391736,-298.281044953764
738509.43451921793166548014,-8.47483748893704,-8.60408337656789,-298.225653859066
738509.43451930838637053967,-8.46560563982055,-8.58561967833491,-298.050248725852
738509.43451939884107559919,-8.44714194158757,-8.57638782921842,-298.133335367901
738509.43451948929578065872,-8.4194463942381,-8.54869228186895,-298.197958311716
738509.43451957975048571825,-8.39175084688864,-8.53022858363597,-298.142567217017
738509.43451967020519077778,-8.36405529953917,-8.50253303628651,-298.151799066134
738509.43451976054348051548,-8.34559160130619,-8.48406933805353,-298.133335367901
738509.43451985099818557501,-8.31789605395672,-8.47483748893704,-298.142567217017
738509.43451994145289063454,-8.31789605395672,-8.47483748893704,-298.096407971435
738509.43452003190759569407,-8.29020050660726,-8.46560563982055,-298.133335367901
738509.43452012236230075359,-8.29020050660726,-8.48406933805353,-298.133335367901
738509.43452021270059049129,-8.29020050660726,-8.511764885403,-298.197958311716
738509.43452030315529555082,-8.32712790307321,-8.55792413098544,-298.1887264626
738509.43452039361000061035,-8.34559160130619,-8.58561967833491,-298.1887264626
738509.43452048406470566988,-8.38251899777215,-8.62254707480087,-298.207190160833
738509.43452057451941072941,-8.40098269600513,-8.63177892391736,-298.225653859066
738509.43452066497411578894,-8.42867824335459,-8.65024262215033,-298.225653859066
738509.43452075531240552664,-8.43791009247108,-8.65024262215033,-298.253349406415
738509.43452084576711058617,-8.44714194158757,-8.65947447126682,-298.253349406415
738509.43452093622181564569,-8.45637379070406,-8.65947447126682,-298.170262764367
738509.43452102667652070522,-8.44714194158757,-8.66870632038331,-298.253349406415
738509.43452111713122576475,-8.44714194158757,-8.65947447126682,-298.207190160833
738509.43452120746951550245,-8.45637379070406,-8.66870632038331,-298.244117557298
738509.43452129792422056198,-8.45637379070406,-8.66870632038331,-298.225653859066
738509.43452138837892562151,-8.44714194158757,-8.65947447126682,-298.216422009949
738509.43452147883363068104,-8.46560563982055,-8.66870632038331,-298.234885708182
738509.43452156928833574057,-8.44714194158757,-8.65947447126682,-298.271813104648
738509.43452165974304080009,-8.44714194158757,-8.65024262215033,-298.253349406415
738509.43452175008133053780,-8.43791009247108,-8.65947447126682,-298.216422009949
738509.43452184053603559732,-8.44714194158757,-8.65947447126682,-298.207190160833
738509.43452193099074065685,-8.43791009247108,-8.65947447126682,-298.234885708182
738509.43452202144544571638,-8.44714194158757,-8.65947447126682,-298.216422009949
738509.43452211190015077591,-8.44714194158757,-8.65947447126682,-298.216422009949
738509.43452220223844051361,-8.44714194158757,-8.65947447126682,-298.234885708182
738509.43452229269314557314,-8.44714194158757,-8.65947447126682,-298.281044953764
738509.43452238314785063267,-8.45637379070406,-8.65947447126682,-298.234885708182
738509.43452247360255569220,-8.45637379070406,-8.66870632038331,-298.253349406415
738509.43452256405726075172,-8.46560563982055,-8.66870632038331,-298.244117557298
738509.43452265439555048943,-8.46560563982055,-8.66870632038331,-298.281044953764
738509.43452274485025554895,-8.46560563982055,-8.66870632038331,-298.1887264626
738509.43452283530496060848,-8.46560563982055,-8.66870632038331,-298.096407971435
738509.43452292575966566801,-8.43791009247108,-8.65947447126682,-298.207190160833
738509.43452301621437072754,-8.4194463942381,-8.66870632038331,-298.216422009949
738509.43452310666907578707,-8.39175084688864,-8.65947447126682,-298.1887264626
738509.43452319700736552477,-8.38251899777215,-8.65024262215033,-298.234885708182
738509.43452328746207058430,-8.31789605395672,-8.64101077303384,-298.290276802881
738509.43452337791677564383,-8.30866420484024,-8.65024262215033,-298.225653859066
738509.43452346837148070335,-8.29020050660726,-8.65024262215033,-298.271813104648
738509.43452355882618576288,-8.30866420484024,-8.64101077303384,-298.290276802881
738509.43452364916447550058,-8.31789605395672,-8.63177892391736,-298.281044953764
738509.43452373961918056011,-8.39175084688864,-8.63177892391736,-298.244117557298
738509.43452383007388561964,-8.48406933805353,-8.65024262215033,-298.197958311716
738509.43452392052859067917,-8.53022858363597,-8.6779381694998,-298.253349406415
738509.43452401098329573870,-8.54869228186895,-8.68717001861629,-298.271813104648
738509.43452410143800079823,-8.56715598010193,-8.69640186773278,-298.271813104648
738509.43452419177629053593,-8.58561967833491,-8.69640186773278,-298.262581255531
738509.43452428223099559546,-8.58561967833491,-8.69640186773278,-298.271813104648
738509.43452437268570065498,-8.5948515274514,-8.70563371684927,-298.290276802881
738509.43452446314040571451,-8.58561967833491,-8.69640186773278,-298.225653859066
738509.43452455359511077404,-8.62254707480087,-8.70563371684927,-298.262581255531
738509.43452464393340051174,-8.68717001861629,-8.69640186773278,-298.244117557298
738509.43452473438810557127,-8.77025666066469,-8.64101077303384,-298.1887264626
738509.43452482484281063080,-8.28096865749077,-8.56715598010193,-298.133335367901
738509.43452491529751569033,-7.78244880520035,-8.44714194158757,-298.068712424085
738509.43452500575222074986,-7.44087038789026,-8.43791009247108,-298.087176122318
738509.43452509620692580938,-7.4039429914243,-8.4194463942381,-298.077944273202
738509.43452518654521554708,-8.00401318399609,-8.23480941190832,-298.087176122318
738509.43452527699992060661,-8.72409741508225,-8.40098269600513,-298.197958311716
738509.43452536745462566614,-8.69640186773278,-8.52099673451949,-298.1887264626
738509.43452545790933072567,-8.63177892391736,-8.61331522568438,-298.225653859066
738509.43452554836403578520,-8.64101077303384,-8.6779381694998,-298.281044953764
738509.43452563870232552290,-8.64101077303384,-8.68717001861629,-298.197958311716
738509.43452572915703058243,-8.65947447126682,-8.70563371684927,-298.234885708182
738509.43452581961173564196,-8.65024262215033,-8.69640186773278,-298.253349406415
738509.43452591006644070148,-8.65947447126682,-8.70563371684927,-298.281044953764
738509.43452600052114576101,-8.64101077303384,-8.69640186773278,-298.253349406415
738509.43452609097585082054,-8.65024262215033,-8.70563371684927,-298.244117557298
738509.43452618131414055824,-8.63177892391736,-8.69640186773278,-298.290276802881
738509.43452627176884561777,-8.63177892391736,-8.69640186773278,-298.244117557298
738509.43452636222355067730,-8.62254707480087,-8.68717001861629,-298.105639820551
738509.43452645267825573683,-8.62254707480087,-8.6779381694998,-298.151799066134
738509.43452654313296079636,-8.61331522568438,-8.6779381694998,-298.299508651997
738509.43452663347125053406,-8.61331522568438,-8.66870632038331,-298.299508651997
738509.43452672392595559359,-8.5948515274514,-8.65947447126682,-298.253349406415
738509.43452681438066065311,-8.5948515274514,-8.65024262215033,-298.271813104648
738509.43452690483536571264,-8.57638782921842,-8.63177892391736,-298.262581255531
738509.43452699529007077217,-8.56715598010193,-8.62254707480087,-298.290276802881
738509.43452708562836050987,-8.55792413098544,-8.61331522568438,-298.207190160833
738509.43452717608306556940,-8.53022858363597,-8.58561967833491,-298.281044953764
738509.43452726653777062893,-8.52099673451949,-8.56715598010193,-298.299508651997
738509.43452735699247568846,-8.48406933805353,-8.54869228186895,-298.244117557298
738509.43452744744718074799,-8.47483748893704,-8.52099673451949,-298.216422009949
738509.43452753790188580751,-8.44714194158757,-8.511764885403,-298.244117557298
738509.43452762824017554522,-8.43791009247108,-8.50253303628651,-298.281044953764
738509.43452771869488060474,-8.41021454512162,-8.49330118717002,-298.197958311716
738509.43452780914958566427,-8.41021454512162,-8.49330118717002,-298.271813104648
738509.43452789960429072380,-8.40098269600513,-8.50253303628651,-298.262581255531
738509.43452799005899578333,-8.40098269600513,-8.52099673451949,-298.179494613483
738509.43452808039728552103,-8.41021454512162,-8.56715598010193,-298.253349406415
738509.43452817085199058056,-8.43791009247108,-8.5948515274514,-298.290276802881
738509.43452826130669564009,-8.46560563982055,-8.62254707480087,-298.244117557298
738509.43452835176140069962,-8.511764885403,-8.64101077303384,-298.262581255531
738509.43452844221610575914,-8.53022858363597,-8.65947447126682,-298.308740501114
738509.43452853267081081867,-8.54869228186895,-8.66870632038331,-298.290276802881
738509.43452862300910055637,-8.55792413098544,-8.6779381694998,-298.262581255531
738509.43452871346380561590,-8.56715598010193,-8.66870632038331,-298.271813104648
738509.43452880391851067543,-8.57638782921842,-8.6779381694998,-298.299508651997
738509.43452889437321573496,-8.56715598010193,-8.6779381694998,-298.290276802881
738509.43452898482792079449,-8.57638782921842,-8.6779381694998,-298.253349406415
738509.43452907516621053219,-8.55792413098544,-8.66870632038331,-298.299508651997
738509.43452916562091559172,-8.56715598010193,-8.66870632038331,-298.290276802881
738509.43452925607562065125,-8.55792413098544,-8.6779381694998,-298.244117557298
738509.43452934653032571077,-8.56715598010193,-8.66870632038331,-298.216422009949
738509.43452943698503077030,-8.55792413098544,-8.65947447126682,-298.262581255531
738509.43452952743973582983,-8.55792413098544,-8.65947447126682,-298.244117557298
738509.43452961777802556753,-8.55792413098544,-8.66870632038331,-298.234885708182
738509.43452970823273062706,-8.56715598010193,-8.66870632038331,-298.225653859066
738509.43452979868743568659,-8.56715598010193,-8.66870632038331,-298.253349406415
738509.43452988914214074612,-8.56715598010193,-8.65947447126682,-298.133335367901
738509.43452997959684580564,-8.56715598010193,-8.66870632038331,-298.133335367901
738509.43453006993513554335,-8.56715598010193,-8.65947447126682,-298.225653859066
738509.43453016038984060287,-8.57638782921842,-8.66870632038331,-298.207190160833
738509.43453025084454566240,-8.58561967833491,-8.66870632038331,-298.299508651997
738509.43453034129925072193,-8.58561967833491,-8.6779381694998,-298.253349406415
738509.43453043175395578146,-8.55792413098544,-8.66870632038331,-298.253349406415
738509.43453052220866084099,-8.54869228186895,-8.6779381694998,-298.271813104648
738509.43453061254695057869,-8.52099673451949,-8.66870632038331,-298.262581255531
738509.43453070300165563822,-8.49330118717002,-8.65024262215033,-298.271813104648
738509.43453079345636069775,-8.45637379070406,-8.64101077303384,-298.262581255531
738509.43453088391106575727,-8.4194463942381,-8.65024262215033,-298.31797235023
738509.43453097436577081680,-8.41021454512162,-8.65947447126682,-298.31797235023
738509.43453106470406055450,-8.42867824335459,-8.65024262215033,-298.225653859066
738509.43453115515876561403,-8.42867824335459,-8.64101077303384,-298.290276802881
738509.43453124561347067356,-8.47483748893704,-8.63177892391736,-298.290276802881
738509.43453133606817573309,-8.55792413098544,-8.65947447126682,-298.299508651997
738509.43453142652288079262,-8.62254707480087,-8.6779381694998,-298.271813104648
738509.43453151686117053032,-8.65024262215033,-8.69640186773278,-298.327204199347
738509.43453160731587558985,-8.65947447126682,-8.68717001861629,-298.299508651997
738509.43453169777058064938,-8.68717001861629,-8.69640186773278,-298.234885708182
738509.43453178822528570890,-8.68717001861629,-8.69640186773278,-298.290276802881
738509.43453187867999076843,-8.69640186773278,-8.70563371684927,-298.308740501114
738509.43453196913469582796,-8.69640186773278,-8.69640186773278,-298.299508651997
738509.43453205947298556566,-8.71486556596576,-8.70563371684927,-298.290276802881
738509.43453214992769062519,-8.74256111331523,-8.69640186773278,-298.299508651997
738509.43453224038239568472,-8.89950254829554,-8.6779381694998,-298.299508651997
738509.43453233083710074425,-8.65947447126682,-8.64101077303384,-298.225653859066
738509.43453242129180580378,-8.06863612781152,-8.53946043275246,-298.244117557298
738509.43453251163009554148,-7.66243476668599,-8.41021454512162,-298.207190160833
738509.43453260208480060101,-7.46856593523972,-8.47483748893704,-298.234885708182
738509.43453269253950566053,-7.65320291756951,-8.4194463942381,-298.133335367901
738509.43453278299421072006,-8.60408337656789,-8.32712790307321,-298.244117557298
738509.43453287344891577959,-8.89950254829554,-8.49330118717002,-298.271813104648
738509.43453296390362083912,-8.78872035889767,-8.56715598010193,-298.1887264626
738509.43453305424191057682,-8.75179296243171,-8.64101077303384,-298.234885708182
738509.43453314469661563635,-8.75179296243171,-8.66870632038331,-298.234885708182
738509.43453323515132069588,-8.7610248115482,-8.6779381694998,-298.207190160833
738509.43453332560602575541,-8.75179296243171,-8.6779381694998,-298.207190160833
738509.43453341606073081493,-8.7610248115482,-8.68717001861629,-298.133335367901
738509.43453350639902055264,-8.75179296243171,-8.68717001861629,-298.1887264626
738509.43453359685372561216,-8.75179296243171,-8.68717001861629,-298.253349406415
738509.43453368730843067169,-8.75179296243171,-8.68717001861629,-298.262581255531
738509.43453377776313573122,-8.74256111331523,-8.68717001861629,-298.262581255531
738509.43453386821784079075,-8.73332926419874,-8.66870632038331,-298.281044953764
738509.43453395867254585028,-8.74256111331523,-8.66870632038331,-298.290276802881
738509.43453404901083558798,-8.72409741508225,-8.66870632038331,-298.31797235023
738509.43453413946554064751,-8.72409741508225,-8.65947447126682,-298.253349406415
738509.43453422992024570704,-8.70563371684927,-8.65947447126682,-298.262581255531
738509.43453432037495076656,-8.70563371684927,-8.64101077303384,-298.253349406415
738509.43453441082965582609,-8.69640186773278,-8.64101077303384,-298.308740501114
738509.43453450116794556379,-8.66870632038331,-8.62254707480087,-298.299508651997
738509.43453459162265062332,-8.66870632038331,-8.62254707480087,-298.271813104648
738509.43453468207735568285,-8.65024262215033,-8.60408337656789,-298.290276802881
738509.43453477253206074238,-8.64101077303384,-8.57638782921842,-298.262581255531
738509.43453486298676580191,-8.61331522568438,-8.55792413098544,-298.299508651997
738509.43453495332505553961,-8.5948515274514,-8.53022858363597,-298.179494613483
738509.43453504377976059914,-8.55792413098544,-8.511764885403,-298.253349406415
738509.43453513423446565866,-8.55792413098544,-8.511764885403,-298.290276802881
738509.43453522468917071819,-8.54869228186895,-8.50253303628651,-298.299508651997
738509.43453531514387577772,-8.53946043275246,-8.50253303628651,-298.225653859066
738509.43453540559858083725,-8.53022858363597,-8.511764885403,-298.271813104648
738509.43453549593687057495,-8.53022858363597,-8.52099673451949,-298.299508651997
738509.43453558639157563448,-8.53946043275246,-8.55792413098544,-298.244117557298
738509.43453567684628069401,-8.55792413098544,-8.58561967833491,-298.299508651997
738509.43453576730098575354,-8.58561967833491,-8.61331522568438,-298.31797235023
738509.43453585775569081306,-8.61331522568438,-8.63177892391736,-298.253349406415
738509.43453594809398055077,-8.65024262215033,-8.65024262215033,-298.308740501114
738509.43453603854868561029,-8.65947447126682,-8.65947447126682,-298.336436048463
738509.43453612900339066982,-8.6779381694998,-8.66870632038331,-298.308740501114
738509.43453621945809572935,-8.6779381694998,-8.65947447126682,-298.336436048463
738509.43453630991280078888,-8.69640186773278,-8.6779381694998,-298.327204199347
738509.43453640036750584841,-8.6779381694998,-8.66870632038331,-298.34566789758
738509.43453649070579558611,-8.68717001861629,-8.66870632038331,-298.31797235023
738509.43453658116050064564,-8.6779381694998,-8.65947447126682,-298.290276802881
738509.43453667161520570517,-8.68717001861629,-8.65947447126682,-298.308740501114
738509.43453676206991076469,-8.68717001861629,-8.65947447126682,-298.336436048463
738509.43453685252461582422,-8.6779381694998,-8.65024262215033,-298.244117557298
738509.43453694286290556192,-8.6779381694998,-8.65947447126682,-298.234885708182
738509.43453703331761062145,-8.6779381694998,-8.65024262215033,-298.151799066134
738509.43453712377231568098,-8.6779381694998,-8.65024262215033,-298.262581255531
738509.43453721422702074051,-8.6779381694998,-8.65024262215033,-298.234885708182
738509.43453730468172580004,-8.6779381694998,-8.65024262215033,-298.281044953764
738509.43453739513643085957,-8.6779381694998,-8.65024262215033,-298.290276802881
738509.43453748547472059727,-8.69640186773278,-8.65947447126682,-298.262581255531
738509.43453757592942565680,-8.68717001861629,-8.65947447126682,-298.262581255531
738509.43453766638413071632,-8.66870632038331,-8.65024262215033,-298.271813104648
738509.43453775683883577585,-8.63177892391736,-8.65024262215033,-298.290276802881
738509.43453784729354083538,-8.64101077303384,-8.65024262215033,-298.290276802881
738509.43453793763183057308,-8.5948515274514,-8.62254707480087,-298.271813104648
738509.43453802808653563261,-8.55792413098544,-8.62254707480087,-298.299508651997
738509.43453811854124069214,-8.52099673451949,-8.63177892391736,-298.262581255531
738509.43453820899594575167,-8.53022858363597,-8.65024262215033,-298.262581255531
738509.43453829945065081120,-8.53022858363597,-8.64101077303384,-298.253349406415
738509.43453838990535587072,-8.53022858363597,-8.62254707480087,-298.234885708182
738509.43453848024364560843,-8.57638782921842,-8.62254707480087,-298.234885708182
738509.43453857069835066795,-8.65024262215033,-8.63177892391736,-298.253349406415
738509.43453866115305572748,-8.73332926419874,-8.65947447126682,-298.31797235023
738509.43453875160776078701,-8.7610248115482,-8.6779381694998,-298.253349406415
738509.43453884206246584654,-8.77025666066469,-8.6779381694998,-298.308740501114
738509.43453893240075558424,-8.78872035889767,-8.6779381694998,-298.34566789758
738509.43453902285546064377,-8.80718405713065,-8.6779381694998,-298.262581255531
738509.43453911331016570330,-8.78872035889767,-8.6779381694998,-298.299508651997
738509.43453920376487076283,-8.80718405713065,-8.68717001861629,-298.281044953764
738509.43453929421957582235,-8.81641590624714,-8.6779381694998,-298.327204199347
738509.43453938455786556005,-8.85334330271309,-8.68717001861629,-298.34566789758
738509.43453947501257061958,-8.97335734122745,-8.66870632038331,-298.354899746696
738509.43453956546727567911,-8.85334330271309,-8.65024262215033,-298.271813104648
738509.43453965592198073864,-8.23480941190832,-8.54869228186895,-298.271813104648
738509.43453974637668579817,-7.8286080507828,-8.40098269600513,-298.271813104648
738509.43453983683139085770,-7.54242072817164,-8.43791009247108,-298.16103091525
738509.43453992716968059540,-7.98554948576311,-8.38251899777215,-298.216422009949
738509.43454001762438565493,-8.85334330271309,-8.4194463942381,-298.31797235023
738509.43454010807909071445,-8.97335734122745,-8.52099673451949,-298.308740501114
738509.43454019853379577398,-8.92719809564501,-8.54869228186895,-298.253349406415
738509.43454028898850083351,-8.85334330271309,-8.61331522568438,-298.327204199347
738509.43454037932679057121,-8.86257515182958,-8.65947447126682,-298.354899746696
738509.43454046978149563074,-8.85334330271309,-8.66870632038331,-298.308740501114
738509.43454056023620069027,-8.86257515182958,-8.66870632038331,-298.207190160833
738509.43454065069090574980,-8.85334330271309,-8.66870632038331,-298.354899746696
738509.43454074114561080933,-8.85334330271309,-8.66870632038331,-298.336436048463
738509.43454083160031586885,-8.84411145359661,-8.65947447126682,-298.299508651997
738509.43454092193860560656,-8.84411145359661,-8.65947447126682,-298.34566789758
738509.43454101239331066608,-8.83487960448012,-8.65947447126682,-298.382595294046
738509.43454110284801572561,-8.82564775536363,-8.65947447126682,-298.262581255531
738509.43454119330272078514,-8.81641590624714,-8.65024262215033,-298.327204199347
738509.43454128375742584467,-8.82564775536363,-8.65024262215033,-298.271813104648
738509.43454137409571558237,-8.81641590624714,-8.64101077303384,-298.234885708182
738509.43454146455042064190,-8.80718405713065,-8.64101077303384,-298.253349406415
738509.43454155500512570143,-8.80718405713065,-8.64101077303384,-298.225653859066
738509.43454164545983076096,-8.78872035889767,-8.62254707480087,-298.216422009949
738509.43454173591453582048,-8.77025666066469,-8.61331522568438,-298.234885708182
738509.43454182636924088001,-8.7610248115482,-8.5948515274514,-298.225653859066
738509.43454191670753061771,-8.74256111331523,-8.58561967833491,-298.253349406415
738509.43454200716223567724,-8.72409741508225,-8.55792413098544,-298.299508651997
738509.43454209761694073677,-8.71486556596576,-8.54869228186895,-298.327204199347
738509.43454218807164579630,-8.68717001861629,-8.53022858363597,-298.308740501114
738509.43454227852635085583,-8.6779381694998,-8.511764885403,-298.253349406415
738509.43454236886464059353,-8.66870632038331,-8.50253303628651,-298.290276802881
738509.43454245931934565306,-8.64101077303384,-8.50253303628651,-298.225653859066
738509.43454254977405071259,-8.63177892391736,-8.50253303628651,-298.262581255531
738509.43454264022875577211,-8.63177892391736,-8.50253303628651,-298.299508651997
738509.43454273068346083164,-8.63177892391736,-8.52099673451949,-298.271813104648
738509.43454282102175056934,-8.62254707480087,-8.54869228186895,-298.253349406415
738509.43454291147645562887,-8.65947447126682,-8.58561967833491,-298.290276802881
738509.43454300193116068840,-8.66870632038331,-8.5948515274514,-298.327204199347
738509.43454309238586574793,-8.71486556596576,-8.62254707480087,-298.373363444929
738509.43454318284057080746,-8.73332926419874,-8.63177892391736,-298.327204199347
738509.43454327329527586699,-8.7610248115482,-8.65024262215033,-298.308740501114
738509.43454336363356560469,-8.75179296243171,-8.65024262215033,-298.308740501114
738509.43454345408827066422,-8.7610248115482,-8.65947447126682,-298.327204199347
738509.43454354454297572374,-8.7610248115482,-8.65947447126682,-298.354899746696
738509.43454363499768078327,-8.77948850978118,-8.66870632038331,-298.354899746696
738509.43454372545238584280,-8.7610248115482,-8.65947447126682,-298.336436048463
738509.43454381579067558050,-8.7610248115482,-8.65947447126682,-298.336436048463
738509.43454390624538064003,-8.7610248115482,-8.65024262215033,-298.354899746696
738509.43454399670008569956,-8.7610248115482,-8.65024262215033,-298.299508651997
738509.43454408715479075909,-8.75179296243171,-8.65947447126682,-298.216422009949
738509.43454417760949581861,-8.75179296243171,-8.64101077303384,-298.327204199347
738509.43454426806420087814,-8.75179296243171,-8.65024262215033,-298.34566789758
738509.43454435840249061584,-8.74256111331523,-8.64101077303384,-298.354899746696
738509.43454444885719567537,-8.75179296243171,-8.64101077303384,-298.271813104648
738509.43454453931190073490,-8.74256111331523,-8.64101077303384,-298.336436048463
738509.43454462976660579443,-8.74256111331523,-8.64101077303384,-298.34566789758
738509.43454472022131085396,-8.73332926419874,-8.64101077303384,-298.327204199347
738509.43454481055960059166,-8.71486556596576,-8.63177892391736,-298.336436048463
738509.43454490101430565119,-8.6779381694998,-8.63177892391736,-298.354899746696
738509.43454499146901071072,-8.65947447126682,-8.61331522568438,-298.336436048463
738509.43454508192371577024,-8.60408337656789,-8.60408337656789,-298.31797235023
738509.43454517237842082977,-8.58561967833491,-8.62254707480087,-298.1887264626
738509.43454526283312588930,-8.56715598010193,-8.62254707480087,-298.299508651997
738509.43454535317141562700,-8.58561967833491,-8.62254707480087,-298.244117557298
738509.43454544362612068653,-8.57638782921842,-8.60408337656789,-298.290276802881
738509.43454553408082574606,-8.64101077303384,-8.60408337656789,-298.308740501114
738509.43454562453553080559,-8.72409741508225,-8.63177892391736,-298.308740501114
738509.43454571499023586512,-8.77948850978118,-8.65024262215033,-298.327204199347
738509.43454580532852560282,-8.80718405713065,-8.65024262215033,-298.354899746696
738509.43454589578323066235,-8.81641590624714,-8.65947447126682,-298.34566789758
738509.43454598623793572187,-8.84411145359661,-8.65947447126682,-298.308740501114
738509.43454607669264078140,-8.84411145359661,-8.66870632038331,-298.244117557298
738509.43454616714734584093,-8.86257515182958,-8.6779381694998,-298.234885708182
738509.43454625760205090046,-8.84411145359661,-8.66870632038331,-298.271813104648
738509.43454634794034063816,-8.86257515182958,-8.66870632038331,-298.290276802881
738509.43454643839504569769,-8.87180700094607,-8.65947447126682,-298.262581255531
738509.43454652884975075722,-8.99182103946043,-8.66870632038331,-298.271813104648
738509.43454661930445581675,-8.96412549211096,-8.63177892391736,-298.308740501114
738509.43454670975916087627,-8.41021454512162,-8.56715598010193,-298.281044953764
738509.43454680009745061398,-7.90246284371471,-8.4194463942381,-298.244117557298
738509.43454689055215567350,-7.59781182287057,-8.42867824335459,-298.179494613483
738509.43454698100686073303,-7.78244880520035,-8.4194463942381,-298.1887264626
738509.43454707146156579256,-8.77025666066469,-8.38251899777215,-298.290276802881
738509.43454716191627085209,-9.0195165868099,-8.52099673451949,-298.281044953764
738509.43454725225456058979,-8.94566179387799,-8.56715598010193,-298.271813104648
738509.43454734270926564932,-8.89027069917905,-8.62254707480087,-298.31797235023
738509.43454743316397070885,-8.89027069917905,-8.65024262215033,-298.31797235023
738509.43454752361867576838,-8.89027069917905,-8.65947447126682,-298.16103091525
738509.43454761407338082790,-8.90873439741203,-8.65947447126682,-298.244117557298
738509.43454770452808588743,-8.89027069917905,-8.65947447126682,-298.299508651997
738509.43454779486637562513,-8.87180700094607,-8.65024262215033,-298.299508651997
738509.43454788532108068466,-8.88103885006256,-8.65947447126682,-298.364131595813
738509.43454797577578574419,-8.88103885006256,-8.65947447126682,-298.354899746696
738509.43454806623049080372,-8.89950254829554,-8.65947447126682,-298.327204199347
738509.43454815668519586325,-8.87180700094607,-8.65024262215033,-298.336436048463
738509.43454824702348560095,-8.87180700094607,-8.65024262215033,-298.336436048463
738509.43454833747819066048,-8.85334330271309,-8.65024262215033,-298.364131595813
738509.43454842793289572001,-8.84411145359661,-8.64101077303384,-298.308740501114
738509.43454851838760077953,-8.84411145359661,-8.64101077303384,-298.34566789758
738509.43454860884230583906,-8.83487960448012,-8.63177892391736,-298.336436048463
738509.43454869929701089859,-8.81641590624714,-8.62254707480087,-298.299508651997
738509.43454878963530063629,-8.80718405713065,-8.61331522568438,-298.31797235023
738509.43454888009000569582,-8.78872035889767,-8.5948515274514,-298.31797235023
738509.43454897054471075535,-8.7610248115482,-8.57638782921842,-298.234885708182
738509.43454906099941581488,-8.74256111331523,-8.55792413098544,-298.234885708182
738509.43454915145412087440,-8.72409741508225,-8.53022858363597,-298.244117557298
738509.43454924179241061211,-8.69640186773278,-8.52099673451949,-298.234885708182
738509.43454933224711567163,-8.66870632038331,-8.50253303628651,-298.281044953764
738509.43454942270182073116,-8.66870632038331,-8.50253303628651,-298.34566789758
738509.43454951315652579069,-8.65024262215033,-8.49330118717002,-298.336436048463
738509.43454960361123085022,-8.64101077303384,-8.49330118717002,-298.336436048463
738509.43454969406593590975,-8.63177892391736,-8.50253303628651,-298.281044953764
738509.43454978440422564745,-8.63177892391736,-8.511764885403,-298.244117557298
738509.43454987485893070698,-8.64101077303384,-8.53946043275246,-298.290276802881
738509.43454996531363576651,-8.65947447126682,-8.55792413098544,-298.244117557298
738509.43455005576834082603,-8.68717001861629,-8.58561967833491,-298.281044953764
738509.43455014622304588556,-8.70563371684927,-8.60408337656789,-298.271813104648
738509.43455023656133562326,-8.72409741508225,-8.62254707480087,-298.299508651997
738509.43455032701604068279,-8.73332926419874,-8.62254707480087,-298.290276802881
738509.43455041747074574232,-8.7610248115482,-8.64101077303384,-298.308740501114
738509.43455050792545080185,-8.75179296243171,-8.64101077303384,-298.290276802881
738509.43455059838015586138,-8.7610248115482,-8.64101077303384,-298.281044953764
738509.43455068883486092091,-8.74256111331523,-8.64101077303384,-298.290276802881
738509.43455077917315065861,-8.7610248115482,-8.65024262215033,-298.299508651997
738509.43455086962785571814,-8.75179296243171,-8.64101077303384,-298.290276802881
738509.43455096008256077766,-8.74256111331523,-8.64101077303384,-298.271813104648
738509.43455105053726583719,-8.73332926419874,-8.63177892391736,-298.16103091525
738509.43455114099197089672,-8.74256111331523,-8.64101077303384,-298.253349406415
738509.43455123133026063442,-8.73332926419874,-8.64101077303384,-298.327204199347
738509.43455132178496569395,-8.73332926419874,-8.63177892391736,-298.364131595813
738509.43455141223967075348,-8.72409741508225,-8.63177892391736,-298.253349406415
738509.43455150269437581301,-8.73332926419874,-8.63177892391736,-298.244117557298
738509.43455159314908087254,-8.72409741508225,-8.63177892391736,-298.31797235023
738509.43455168348737061024,-8.68717001861629,-8.61331522568438,-298.327204199347
738509.43455177394207566977,-8.6779381694998,-8.62254707480087,-298.336436048463
738509.43455186439678072929,-8.64101077303384,-8.61331522568438,-298.244117557298
738509.43455195485148578882,-8.62254707480087,-8.60408337656789,-298.262581255531
738509.43455204530619084835,-8.56715598010193,-8.5948515274514,-298.271813104648
738509.43455213576089590788,-8.54869228186895,-8.61331522568438,-298.336436048463
738509.43455222609918564558,-8.53946043275246,-8.61331522568438,-298.364131595813
738509.43455231655389070511,-8.54869228186895,-8.61331522568438,-298.327204199347
738509.43455240700859576464,-8.54869228186895,-8.5948515274514,-298.31797235023
738509.43455249746330082417,-8.61331522568438,-8.60408337656789,-298.336436048463
738509.43455258791800588369,-8.6779381694998,-8.61331522568438,-298.354899746696
738509.43455267825629562140,-8.74256111331523,-8.64101077303384,-298.262581255531
738509.43455276871100068092,-8.7610248115482,-8.65024262215033,-298.262581255531
738509.43455285916570574045,-8.78872035889767,-8.65024262215033,-298.262581255531
738509.43455294962041079998,-8.79795220801416,-8.65024262215033,-298.225653859066
738509.43455304007511585951,-8.80718405713065,-8.65947447126682,-298.253349406415
738509.43455313052982091904,-8.80718405713065,-8.65947447126682,-298.299508651997
738509.43455322086811065674,-8.81641590624714,-8.65947447126682,-298.281044953764
738509.43455331132281571627,-8.81641590624714,-8.65947447126682,-298.336436048463
738509.43455340177752077579,-8.88103885006256,-8.65947447126682,-298.354899746696
738509.43455349223222583532,-8.95489364299448,-8.65947447126682,-298.336436048463
738509.43455358268693089485,-8.92719809564501,-8.61331522568438,-298.262581255531
738509.43455367302522063255,-8.35482345042268,-8.55792413098544,-298.262581255531
738509.43455376347992569208,-7.83783989989929,-8.41021454512162,-298.244117557298
738509.43455385393463075161,-7.54242072817164,-8.4194463942381,-298.225653859066
738509.43455394438933581114,-7.66243476668599,-8.40098269600513,-298.216422009949
738509.43455403484404087067,-8.69640186773278,-8.34559160130619,-298.271813104648
738509.43455412529874593019,-8.95489364299448,-8.50253303628651,-298.336436048463
738509.43455421563703566790,-8.86257515182958,-8.56715598010193,-298.234885708182
738509.43455430609174072742,-8.83487960448012,-8.61331522568438,-298.31797235023
738509.43455439654644578695,-8.85334330271309,-8.64101077303384,-298.327204199347
738509.43455448700115084648,-8.85334330271309,-8.65024262215033,-298.336436048463
738509.43455457745585590601,-8.85334330271309,-8.65947447126682,-298.179494613483
738509.43455466779414564371,-8.85334330271309,-8.65947447126682,-298.262581255531
738509.43455475824885070324,-8.83487960448012,-8.65947447126682,-298.271813104648
738509.43455484870355576277,-8.84411145359661,-8.65947447126682,-298.281044953764
738509.43455493915826082230,-8.83487960448012,-8.65024262215033,-298.308740501114
738509.43455502961296588182,-8.82564775536363,-8.65024262215033,-298.271813104648
738509.43455511995125561953,-8.81641590624714,-8.65024262215033,-298.290276802881
738509.43455521040596067905,-8.81641590624714,-8.65024262215033,-298.31797235023
738509.43455530086066573858,-8.80718405713065,-8.64101077303384,-298.327204199347
738509.43455539131537079811,-8.79795220801416,-8.63177892391736,-298.31797235023
738509.43455548177007585764,-8.78872035889767,-8.63177892391736,-298.290276802881
738509.43455557222478091717,-8.77948850978118,-8.61331522568438,-298.290276802881
738509.43455566256307065487,-8.7610248115482,-8.61331522568438,-298.281044953764
738509.43455575301777571440,-8.75179296243171,-8.5948515274514,-298.308740501114
738509.43455584347248077393,-8.74256111331523,-8.58561967833491,-298.253349406415
738509.43455593392718583345,-8.71486556596576,-8.56715598010193,-298.244117557298
738509.43455602438189089298,-8.68717001861629,-8.54869228186895,-298.299508651997
738509.43455611472018063068,-8.65947447126682,-8.52099673451949,-298.290276802881
738509.43455620517488569021,-8.64101077303384,-8.511764885403,-298.271813104648
738509.43455629562959074974,-8.63177892391736,-8.49330118717002,-298.281044953764
738509.43455638608429580927,-8.62254707480087,-8.49330118717002,-298.31797235023
738509.43455647653900086880,-8.60408337656789,-8.48406933805353,-298.262581255531
738509.43455656699370592833,-8.60408337656789,-8.48406933805353,-298.308740501114
738509.43455665733199566603,-8.58561967833491,-8.49330118717002,-298.308740501114
738509.43455674778670072556,-8.60408337656789,-8.52099673451949,-298.31797235023
738509.43455683824140578508,-8.5948515274514,-8.55792413098544,-298.308740501114
738509.43455692869611084461,-8.63177892391736,-8.58561967833491,-298.327204199347
738509.43455701915081590414,-8.65024262215033,-8.60408337656789,-298.336436048463
738509.43455710948910564184,-8.6779381694998,-8.62254707480087,-298.262581255531
738509.43455719994381070137,-8.69640186773278,-8.63177892391736,-298.327204199347
