time_dn,ecg_projection_ll_ra_mV,ecg_projection_la_ra_mV,ecg_projection_vx_rl_mV
738509.41791955824010074139,-8.32712790307321,-6.79464094973601,-297.163991210669
738509.41791964857839047909,-8.3363597521897,-6.81310464796899,-297.173223059786
738509.41791973903309553862,-8.34559160130619,-6.81310464796899,-297.200918607135
738509.41791982937138527632,-8.3363597521897,-6.81310464796899,-297.219382305368
738509.41791991982609033585,-8.35482345042268,-6.82233649708548,-297.228614154485
738509.41792001028079539537,-8.35482345042268,-6.83156834620197,-297.182454908902
738509.41792010061908513308,-8.35482345042268,-6.83156834620197,-297.237846003601
738509.41792019107379019260,-8.36405529953917,-6.82233649708548,-297.219382305368
738509.41792028141207993031,-8.40098269600513,-6.82233649708548,-297.200918607135
738509.41792037186678498983,-8.511764885403,-6.76694540238655,-297.154759361553
738509.41792046232149004936,-8.26250495925779,-6.7207861568041,-297.173223059786
738509.41792055265977978706,-7.66243476668599,-6.61923581652272,-297.117831965087
738509.41792064311448484659,-7.26546525467696,-6.53614917447432,-297.145527512436
738509.41792073345277458429,-7.1454512161626,-6.57307657094027,-297.043977172155
738509.41792082390747964382,-7.30239265114292,-6.52691732535783,-297.117831965087
738509.41792091436218470335,-8.27173680837428,-6.44383068330943,-297.13629566332
738509.41792100470047444105,-8.52099673451949,-6.6376995147557,-297.191686758019
738509.41792109515517950058,-8.40098269600513,-6.73001800592059,-297.127063814203
738509.41792118549346923828,-8.37328714865566,-6.78540910061953,-297.145527512436
738509.41792127594817429781,-8.37328714865566,-6.8038727988525,-297.154759361553
738509.41792136640287935734,-8.39175084688864,-6.82233649708548,-297.10860011597
738509.41792145674116909504,-8.39175084688864,-6.82233649708548,-297.163991210669
738509.41792154719587415457,-8.38251899777215,-6.82233649708548,-297.200918607135
738509.41792163753416389227,-8.37328714865566,-6.82233649708548,-297.13629566332
738509.41792172798886895180,-8.37328714865566,-6.82233649708548,-297.210150456252
738509.41792181844357401133,-8.36405529953917,-6.82233649708548,-297.071672719504
738509.41792190878186374903,-8.34559160130619,-6.81310464796899,-297.090136417737
738509.41792199923656880856,-8.35482345042268,-6.81310464796899,-297.163991210669
738509.41792208957485854626,-8.34559160130619,-6.8038727988525,-297.191686758019
738509.41792218002956360579,-8.34559160130619,-6.8038727988525,-297.182454908902
738509.41792227036785334349,-8.32712790307321,-6.79464094973601,-297.154759361553
738509.41792236082255840302,-8.31789605395672,-6.78540910061953,-297.210150456252
738509.41792245127726346254,-8.29943235572375,-6.76694540238655,-297.228614154485
738509.41792254161555320024,-8.29020050660726,-6.76694540238655,-297.154759361553
738509.41792263207025825977,-8.28096865749077,-6.75771355327006,-297.191686758019
738509.41792272240854799747,-8.26250495925779,-6.73924985503708,-297.117831965087
738509.41792281286325305700,-8.23480941190832,-6.7207861568041,-297.173223059786
738509.41792290331795811653,-8.22557756279183,-6.70232245857112,-297.145527512436
738509.41792299365624785423,-8.19788201544237,-6.68385876033815,-297.154759361553
738509.41792308411095291376,-8.1701864680929,-6.65616321298868,-297.154759361553
738509.41792317444924265146,-8.14249092074343,-6.6376995147557,-297.191686758019
738509.41792326490394771099,-8.12402722251045,-6.62846766563921,-297.200918607135
738509.41792335535865277052,-8.11479537339396,-6.61923581652272,-297.10860011597
738509.41792344569694250822,-8.10556352427747,-6.62846766563921,-297.163991210669
738509.41792353615164756775,-8.10556352427747,-6.6376995147557,-297.145527512436
738509.41792362648993730545,-8.11479537339396,-6.66539506210517,-297.191686758019
738509.41792371694464236498,-8.12402722251045,-6.69309060945463,-297.099368266854
738509.41792380739934742451,-8.16095461897641,-6.73924985503708,-297.154759361553
738509.41792389773763716221,-8.18865016632588,-6.76694540238655,-297.173223059786
738509.41792398819234222174,-8.21634571367534,-6.78540910061953,-297.210150456252
738509.41792407853063195944,-8.23480941190832,-6.79464094973601,-297.219382305368
738509.41792416898533701897,-8.2532731101413,-6.8038727988525,-297.265541550951
738509.41792425944004207850,-8.26250495925779,-6.8038727988525,-297.173223059786
738509.41792434977833181620,-8.27173680837428,-6.81310464796899,-297.154759361553
738509.41792444023303687572,-8.27173680837428,-6.81310464796899,-297.145527512436
738509.41792453057132661343,-8.27173680837428,-6.81310464796899,-297.145527512436
738509.41792462102603167295,-8.28096865749077,-6.82233649708548,-297.13629566332
738509.41792471136432141066,-8.28096865749077,-6.81310464796899,-297.173223059786
738509.41792480181902647018,-8.28096865749077,-6.81310464796899,-297.247077852718
738509.41792489227373152971,-8.27173680837428,-6.81310464796899,-297.154759361553
738509.41792498261202126741,-8.27173680837428,-6.81310464796899,-297.237846003601
738509.41792507306672632694,-8.26250495925779,-6.81310464796899,-297.219382305368
738509.41792516340501606464,-8.26250495925779,-6.81310464796899,-297.210150456252
738509.41792525385972112417,-8.26250495925779,-6.8038727988525,-297.13629566332
738509.41792534431442618370,-8.26250495925779,-6.81310464796899,-297.099368266854
738509.41792543465271592140,-8.26250495925779,-6.81310464796899,-297.13629566332
738509.41792552510742098093,-8.26250495925779,-6.81310464796899,-297.200918607135
738509.41792561544571071863,-8.2532731101413,-6.81310464796899,-297.237846003601
738509.41792570590041577816,-8.2532731101413,-6.8038727988525,-297.228614154485
738509.41792579635512083769,-8.2532731101413,-6.8038727988525,-297.228614154485
738509.41792588669341057539,-8.2532731101413,-6.81310464796899,-297.191686758019
738509.41792597714811563492,-8.2532731101413,-6.8038727988525,-297.219382305368
738509.41792606748640537262,-8.2532731101413,-6.8038727988525,-297.228614154485
738509.41792615794111043215,-8.26250495925779,-6.81310464796899,-297.154759361553
738509.41792624839581549168,-8.26250495925779,-6.81310464796899,-297.247077852718
738509.41792633873410522938,-8.27173680837428,-6.81310464796899,-297.237846003601
738509.41792642918881028891,-8.27173680837428,-6.81310464796899,-297.145527512436
738509.41792651952710002661,-8.27173680837428,-6.82233649708548,-297.200918607135
738509.41792660998180508614,-8.27173680837428,-6.81310464796899,-297.145527512436
738509.41792670043651014566,-8.27173680837428,-6.81310464796899,-297.228614154485
738509.41792679077479988337,-8.27173680837428,-6.81310464796899,-297.154759361553
738509.41792688122950494289,-8.27173680837428,-6.81310464796899,-297.163991210669
738509.41792697156779468060,-8.24404126102481,-6.8038727988525,-297.191686758019
738509.41792706202249974012,-8.20711386455885,-6.81310464796899,-297.219382305368
738509.41792715236078947783,-8.18865016632588,-6.79464094973601,-297.200918607135
738509.41792724281549453735,-8.15172276985992,-6.78540910061953,-297.182454908902
738509.41792733327019959688,-8.12402722251045,-6.78540910061953,-297.173223059786
738509.41792742360848933458,-8.11479537339396,-6.78540910061953,-297.237846003601
738509.41792751406319439411,-8.10556352427747,-6.77617725150304,-297.154759361553
738509.41792760440148413181,-8.11479537339396,-6.76694540238655,-297.200918607135
738509.41792769485618919134,-8.16095461897641,-6.77617725150304,-297.219382305368
738509.41792778531089425087,-8.22557756279183,-6.8038727988525,-297.200918607135
738509.41792787564918398857,-8.29020050660726,-6.81310464796899,-297.265541550951
738509.41792796610388904810,-8.30866420484024,-6.83156834620197,-297.237846003601
738509.41792805644217878580,-8.32712790307321,-6.84080019531846,-297.191686758019
738509.41792814689688384533,-8.32712790307321,-6.84080019531846,-297.237846003601
738509.41792823735158890486,-8.3363597521897,-6.84080019531846,-297.247077852718
738509.41792832768987864256,-8.32712790307321,-6.84080019531846,-297.237846003601
738509.41792841814458370209,-8.32712790307321,-6.84080019531846,-297.200918607135
738509.41792850848287343979,-8.32712790307321,-6.83156834620197,-297.265541550951
738509.41792859893757849932,-8.34559160130619,-6.84080019531846,-297.265541550951
738509.41792868939228355885,-8.41021454512162,-6.84080019531846,-297.247077852718
738509.41792877973057329655,-8.511764885403,-6.77617725150304,-297.200918607135
738509.41792887018527835608,-8.16095461897641,-6.7207861568041,-297.099368266854
738509.41792896052356809378,-7.60704367198706,-6.61000396740623,-297.071672719504
738509.41792905097827315331,-7.24700155644398,-6.57307657094027,-297.099368266854
738509.41792914143297821283,-7.21930600909452,-6.57307657094027,-297.145527512436
738509.41792923177126795053,-7.95785393841365,-6.36997589037751,-297.127063814203
738509.41792932222597301006,-8.511764885403,-6.61000396740623,-297.173223059786
738509.41792941256426274776,-8.41021454512162,-6.71155430768761,-297.210150456252
738509.41792950301896780729,-8.36405529953917,-6.78540910061953,-297.191686758019
738509.41792959335725754499,-8.36405529953917,-6.82233649708548,-297.13629566332
738509.41792968381196260452,-8.37328714865566,-6.84080019531846,-297.163991210669
738509.41792977426666766405,-8.38251899777215,-6.85003204443495,-297.127063814203
738509.41792986460495740175,-8.36405529953917,-6.84080019531846,-297.10860011597
738509.41792995505966246128,-8.36405529953917,-6.84080019531846,-297.13629566332
738509.41793004539795219898,-8.36405529953917,-6.84080019531846,-297.191686758019
738509.41793013585265725851,-8.35482345042268,-6.83156834620197,-297.210150456252
738509.41793022630736231804,-8.34559160130619,-6.83156834620197,-297.200918607135
738509.41793031664565205574,-8.34559160130619,-6.82233649708548,-297.210150456252
738509.41793040710035711527,-8.34559160130619,-6.82233649708548,-297.228614154485
738509.41793049743864685297,-8.3363597521897,-6.82233649708548,-297.228614154485
738509.41793058789335191250,-8.32712790307321,-6.81310464796899,-297.219382305368
738509.41793067834805697203,-8.30866420484024,-6.8038727988525,-297.182454908902
738509.41793076868634670973,-8.30866420484024,-6.79464094973601,-297.200918607135
738509.41793085914105176926,-8.29943235572375,-6.78540910061953,-297.219382305368
738509.41793094947934150696,-8.27173680837428,-6.76694540238655,-297.163991210669
738509.41793103993404656649,-8.27173680837428,-6.75771355327006,-297.163991210669
738509.41793113038875162601,-8.24404126102481,-6.73924985503708,-297.210150456252
738509.41793122072704136372,-8.22557756279183,-6.7207861568041,-297.182454908902
738509.41793131118174642324,-8.19788201544237,-6.69309060945463,-297.145527512436
738509.41793140152003616095,-8.16095461897641,-6.66539506210517,-297.163991210669
738509.41793149197474122047,-8.14249092074343,-6.64693136387219,-297.182454908902
738509.41793158242944628000,-8.12402722251045,-6.62846766563921,-297.200918607135
738509.41793167276773601770,-8.11479537339396,-6.62846766563921,-297.200918607135
738509.41793176322244107723,-8.09633167516098,-6.61923581652272,-297.163991210669
738509.41793185356073081493,-8.09633167516098,-6.62846766563921,-297.13629566332
738509.41793194401543587446,-8.09633167516098,-6.64693136387219,-297.191686758019
738509.41793203435372561216,-8.11479537339396,-6.68385876033815,-297.163991210669
738509.41793212480843067169,-8.11479537339396,-6.69309060945463,-297.154759361553
738509.41793221526313573122,-8.15172276985992,-6.73924985503708,-297.182454908902
738509.41793230560142546892,-8.18865016632588,-6.76694540238655,-297.145527512436
738509.41793239605613052845,-8.20711386455885,-6.77617725150304,-297.13629566332
738509.41793248639442026615,-8.23480941190832,-6.79464094973601,-297.10860011597
738509.41793257684912532568,-8.2532731101413,-6.81310464796899,-297.200918607135
738509.41793266730383038521,-8.26250495925779,-6.81310464796899,-297.219382305368
738509.41793275764212012291,-8.27173680837428,-6.81310464796899,-297.145527512436
738509.41793284809682518244,-8.28096865749077,-6.81310464796899,-297.154759361553
738509.41793293843511492014,-8.28096865749077,-6.82233649708548,-297.13629566332
738509.41793302888981997967,-8.28096865749077,-6.81310464796899,-297.145527512436
738509.41793311934452503920,-8.28096865749077,-6.81310464796899,-297.163991210669
738509.41793320968281477690,-8.28096865749077,-6.81310464796899,-297.154759361553
738509.41793330013751983643,-8.28096865749077,-6.81310464796899,-297.228614154485
738509.41793339047580957413,-8.29020050660726,-6.82233649708548,-297.210150456252
738509.41793348093051463366,-8.27173680837428,-6.8038727988525,-297.237846003601
738509.41793357138521969318,-8.28096865749077,-6.81310464796899,-297.145527512436
738509.41793366172350943089,-8.28096865749077,-6.81310464796899,-297.210150456252
738509.41793375217821449041,-8.27173680837428,-6.81310464796899,-297.237846003601
738509.41793384251650422812,-8.27173680837428,-6.81310464796899,-297.145527512436
738509.41793393297120928764,-8.27173680837428,-6.81310464796899,-297.173223059786
738509.41793402330949902534,-8.27173680837428,-6.81310464796899,-297.247077852718
738509.41793411376420408487,-8.28096865749077,-6.81310464796899,-297.219382305368
738509.41793420421890914440,-8.28096865749077,-6.81310464796899,-297.173223059786
738509.41793429455719888210,-8.27173680837428,-6.8038727988525,-297.145527512436
738509.41793438501190394163,-8.28096865749077,-6.81310464796899,-297.173223059786
738509.41793447535019367933,-8.28096865749077,-6.81310464796899,-297.182454908902
738509.41793456580489873886,-8.28096865749077,-6.81310464796899,-297.173223059786
738509.41793465625960379839,-8.28096865749077,-6.81310464796899,-297.173223059786
738509.41793474659789353609,-8.29943235572375,-6.81310464796899,-297.173223059786
738509.41793483705259859562,-8.29943235572375,-6.81310464796899,-297.173223059786
738509.41793492739088833332,-8.28096865749077,-6.81310464796899,-297.182454908902
738509.41793501784559339285,-8.29020050660726,-6.81310464796899,-297.163991210669
738509.41793510830029845238,-8.29943235572375,-6.82233649708548,-297.173223059786
738509.41793519863858819008,-8.29020050660726,-6.81310464796899,-297.182454908902
738509.41793528909329324961,-8.27173680837428,-6.8038727988525,-297.247077852718
738509.41793537943158298731,-8.23480941190832,-6.8038727988525,-297.219382305368
738509.41793546988628804684,-8.21634571367534,-6.78540910061953,-297.145527512436
738509.41793556034099310637,-8.18865016632588,-6.77617725150304,-297.219382305368
738509.41793565067928284407,-8.15172276985992,-6.77617725150304,-297.219382305368
738509.41793574113398790359,-8.14249092074343,-6.78540910061953,-297.247077852718
738509.41793583147227764130,-8.15172276985992,-6.78540910061953,-297.145527512436
738509.41793592192698270082,-8.15172276985992,-6.77617725150304,-297.173223059786
738509.41793601238168776035,-8.1701864680929,-6.76694540238655,-297.099368266854
738509.41793610271997749805,-8.23480941190832,-6.78540910061953,-297.163991210669
738509.41793619317468255758,-8.30866420484024,-6.79464094973601,-297.210150456252
738509.41793628351297229528,-8.34559160130619,-6.82233649708548,-297.219382305368
738509.41793637396767735481,-8.36405529953917,-6.83156834620197,-297.117831965087
738509.41793646430596709251,-8.37328714865566,-6.83156834620197,-297.10860011597
738509.41793655476067215204,-8.37328714865566,-6.83156834620197,-297.145527512436
738509.41793664521537721157,-8.38251899777215,-6.83156834620197,-297.13629566332
738509.41793673555366694927,-8.38251899777215,-6.83156834620197,-297.127063814203
738509.41793682600837200880,-8.37328714865566,-6.83156834620197,-297.163991210669
738509.41793691634666174650,-8.38251899777215,-6.82233649708548,-297.219382305368
738509.41793700680136680603,-8.44714194158757,-6.82233649708548,-297.145527512436
738509.41793709725607186556,-8.54869228186895,-6.78540910061953,-297.200918607135
738509.41793718759436160326,-8.16095461897641,-6.73001800592059,-297.200918607135
738509.41793727804906666279,-7.61627552110355,-6.60077211828974,-297.071672719504
738509.41793736838735640049,-7.26546525467696,-6.56384472182379,-297.10860011597
738509.41793745884206146002,-7.20084231086154,-6.56384472182379,-297.13629566332
738509.41793754929676651955,-8.05940427869503,-6.40690328684347,-297.10860011597
738509.41793763963505625725,-8.57638782921842,-6.61923581652272,-297.173223059786
738509.41793773008976131678,-8.49330118717002,-6.67462691122166,-297.219382305368
738509.41793782042805105448,-8.44714194158757,-6.7207861568041,-297.200918607135
738509.41793791088275611401,-8.4194463942381,-6.78540910061953,-297.163991210669
738509.41793800133746117353,-8.42867824335459,-6.81310464796899,-297.200918607135
738509.41793809167575091124,-8.42867824335459,-6.82233649708548,-297.219382305368
738509.41793818213045597076,-8.43791009247108,-6.83156834620197,-297.219382305368
738509.41793827246874570847,-8.42867824335459,-6.82233649708548,-297.191686758019
738509.41793836292345076799,-8.4194463942381,-6.82233649708548,-297.228614154485
738509.41793845337815582752,-8.4194463942381,-6.82233649708548,-297.256309701834
738509.41793854371644556522,-8.41021454512162,-6.81310464796899,-297.145527512436
738509.41793863417115062475,-8.41021454512162,-6.81310464796899,-297.145527512436
738509.41793872450944036245,-8.41021454512162,-6.81310464796899,-297.163991210669
738509.41793881496414542198,-8.39175084688864,-6.8038727988525,-297.191686758019
738509.41793890530243515968,-8.38251899777215,-6.78540910061953,-297.200918607135
738509.41793899575714021921,-8.38251899777215,-6.79464094973601,-297.210150456252
738509.41793908621184527874,-8.36405529953917,-6.77617725150304,-297.200918607135
738509.41793917655013501644,-8.37328714865566,-6.78540910061953,-297.173223059786
738509.41793926700484007597,-8.37328714865566,-6.75771355327006,-297.173223059786
738509.41793935734312981367,-8.34559160130619,-6.73924985503708,-297.145527512436
738509.41793944779783487320,-8.31789605395672,-6.71155430768761,-296.988586077456
738509.41793953825253993273,-8.29943235572375,-6.70232245857112,-297.13629566332
738509.41793962859082967043,-8.28096865749077,-6.68385876033815,-297.191686758019
738509.41793971904553472996,-8.26250495925779,-6.66539506210517,-297.127063814203
738509.41793980938382446766,-8.24404126102481,-6.64693136387219,-297.154759361553
738509.41793989983852952719,-8.21634571367534,-6.6376995147557,-297.127063814203
738509.41793999029323458672,-8.21634571367534,-6.62846766563921,-297.127063814203
738509.41794008063152432442,-8.19788201544237,-6.61923581652272,-297.145527512436
738509.41794017108622938395,-8.18865016632588,-6.61923581652272,-297.173223059786
738509.41794026142451912165,-8.19788201544237,-6.62846766563921,-297.200918607135
738509.41794035187922418118,-8.19788201544237,-6.66539506210517,-297.13629566332
738509.41794044233392924070,-8.22557756279183,-6.69309060945463,-297.182454908902
738509.41794053267221897840,-8.24404126102481,-6.71155430768761,-297.219382305368
738509.41794062312692403793,-8.27173680837428,-6.74848170415357,-297.154759361553
738509.41794071346521377563,-8.30866420484024,-6.76694540238655,-297.127063814203
738509.41794080391991883516,-8.31789605395672,-6.77617725150304,-297.145527512436
738509.41794089437462389469,-8.3363597521897,-6.78540910061953,-297.127063814203
738509.41794098471291363239,-8.35482345042268,-6.79464094973601,-297.145527512436
738509.41794107516761869192,-8.35482345042268,-6.79464094973601,-297.173223059786
738509.41794116550590842962,-8.36405529953917,-6.8038727988525,-297.210150456252
738509.41794125596061348915,-8.35482345042268,-6.8038727988525,-297.210150456252
738509.41794134629890322685,-8.35482345042268,-6.79464094973601,-297.219382305368
738509.41794143675360828638,-8.36405529953917,-6.79464094973601,-297.228614154485
738509.41794152720831334591,-8.34559160130619,-6.79464094973601,-297.237846003601
738509.41794161754660308361,-8.35482345042268,-6.79464094973601,-297.191686758019
738509.41794170800130814314,-8.36405529953917,-6.8038727988525,-297.200918607135
738509.41794179833959788084,-8.35482345042268,-6.78540910061953,-297.237846003601
738509.41794188879430294037,-8.34559160130619,-6.79464094973601,-297.200918607135
738509.41794197924900799990,-8.34559160130619,-6.78540910061953,-297.173223059786
738509.41794206958729773760,-8.3363597521897,-6.78540910061953,-297.210150456252
738509.41794216004200279713,-8.3363597521897,-6.78540910061953,-297.247077852718
738509.41794225038029253483,-8.3363597521897,-6.78540910061953,-297.145527512436
738509.41794234083499759436,-8.3363597521897,-6.78540910061953,-297.237846003601
738509.41794243128970265388,-8.32712790307321,-6.77617725150304,-297.228614154485
738509.41794252162799239159,-8.32712790307321,-6.78540910061953,-297.163991210669
738509.41794261208269745111,-8.32712790307321,-6.78540910061953,-297.210150456252
738509.41794270242098718882,-8.34559160130619,-6.79464094973601,-297.237846003601
738509.41794279287569224834,-8.3363597521897,-6.78540910061953,-297.219382305368
738509.41794288333039730787,-8.3363597521897,-6.79464094973601,-297.200918607135
738509.41794297366868704557,-8.34559160130619,-6.79464094973601,-297.071672719504
738509.41794306412339210510,-8.3363597521897,-6.78540910061953,-297.145527512436
738509.41794315446168184280,-8.32712790307321,-6.77617725150304,-297.163991210669
738509.41794324491638690233,-8.29943235572375,-6.77617725150304,-297.237846003601
738509.41794333537109196186,-8.28096865749077,-6.76694540238655,-297.200918607135
738509.41794342570938169956,-8.2532731101413,-6.75771355327006,-297.173223059786
738509.41794351616408675909,-8.23480941190832,-6.75771355327006,-297.200918607135
738509.41794360650237649679,-8.19788201544237,-6.76694540238655,-297.200918607135
738509.41794369695708155632,-8.19788201544237,-6.75771355327006,-297.173223059786
738509.41794378729537129402,-8.19788201544237,-6.74848170415357,-297.200918607135
738509.41794387775007635355,-8.20711386455885,-6.74848170415357,-297.210150456252
738509.41794396820478141308,-8.24404126102481,-6.74848170415357,-297.173223059786
738509.41794405854307115078,-8.32712790307321,-6.76694540238655,-297.154759361553
738509.41794414899777621031,-8.39175084688864,-6.78540910061953,-297.182454908902
738509.41794423933606594801,-8.40098269600513,-6.81310464796899,-297.200918607135
738509.41794432979077100754,-8.39175084688864,-6.79464094973601,-297.200918607135
738509.41794442024547606707,-8.4194463942381,-6.8038727988525,-297.191686758019
738509.41794451058376580477,-8.4194463942381,-6.8038727988525,-297.191686758019
738509.41794460103847086430,-8.4194463942381,-6.81310464796899,-297.219382305368
738509.41794469137676060200,-8.41021454512162,-6.8038727988525,-297.200918607135
738509.41794478183146566153,-8.41021454512162,-6.81310464796899,-297.145527512436
738509.41794487228617072105,-8.44714194158757,-6.8038727988525,-297.210150456252
738509.41794496262446045876,-8.56715598010193,-6.78540910061953,-297.163991210669
738509.41794505307916551828,-8.40098269600513,-6.75771355327006,-297.200918607135
738509.41794514341745525599,-7.78244880520035,-6.65616321298868,-297.154759361553
738509.41794523387216031551,-7.36701559495834,-6.51768547624134,-297.127063814203
738509.41794532432686537504,-7.08082827234718,-6.58230842005676,-297.034745323038
738509.41794541466515511274,-7.13621936704611,-6.56384472182379,-297.10860011597
738509.41794550511986017227,-8.0870998260445,-6.47152623065889,-297.182454908902
738509.41794559545814990997,-8.57638782921842,-6.62846766563921,-297.219382305368
738509.41794568591285496950,-8.53022858363597,-6.67462691122166,-297.182454908902
738509.41794577636756002903,-8.43791009247108,-6.73001800592059,-297.228614154485
738509.41794586670584976673,-8.4194463942381,-6.77617725150304,-297.237846003601
738509.41794595716055482626,-8.42867824335459,-6.78540910061953,-297.145527512436
738509.41794604749884456396,-8.4194463942381,-6.79464094973601,-297.219382305368
738509.41794613795354962349,-8.42867824335459,-6.79464094973601,-297.237846003601
738509.41794622829183936119,-8.41021454512162,-6.78540910061953,-297.191686758019
738509.41794631874654442072,-8.41021454512162,-6.78540910061953,-297.228614154485
738509.41794640920124948025,-8.41021454512162,-6.78540910061953,-297.200918607135
738509.41794649953953921795,-8.40098269600513,-6.79464094973601,-297.080904568621
738509.41794658999424427748,-8.39175084688864,-6.78540910061953,-297.127063814203
738509.41794668033253401518,-8.39175084688864,-6.77617725150304,-297.163991210669
738509.41794677078723907471,-8.38251899777215,-6.77617725150304,-297.219382305368
738509.41794686124194413424,-8.38251899777215,-6.77617725150304,-297.256309701834
738509.41794695158023387194,-8.36405529953917,-6.76694540238655,-297.210150456252
738509.41794704203493893147,-8.35482345042268,-6.74848170415357,-297.200918607135
738509.41794713237322866917,-8.3363597521897,-6.73924985503708,-297.210150456252
738509.41794722282793372869,-8.31789605395672,-6.73001800592059,-297.228614154485
738509.41794731328263878822,-8.32712790307321,-6.73001800592059,-297.256309701834
738509.41794740362092852592,-8.31789605395672,-6.71155430768761,-297.145527512436
738509.41794749407563358545,-8.28096865749077,-6.68385876033815,-297.13629566332
738509.41794758441392332315,-8.2532731101413,-6.65616321298868,-297.145527512436
738509.41794767486862838268,-8.23480941190832,-6.6376995147557,-297.13629566332
738509.41794776532333344221,-8.21634571367534,-6.62846766563921,-297.13629566332
738509.41794785566162317991,-8.20711386455885,-6.62846766563921,-297.13629566332
738509.41794794611632823944,-8.18865016632588,-6.61923581652272,-297.154759361553
738509.41794803645461797714,-8.17941831720939,-6.61923581652272,-297.13629566332
738509.41794812690932303667,-8.17941831720939,-6.62846766563921,-297.13629566332
738509.41794821736402809620,-8.17941831720939,-6.64693136387219,-297.145527512436
738509.41794830770231783390,-8.18865016632588,-6.67462691122166,-297.182454908902
738509.41794839815702289343,-8.20711386455885,-6.69309060945463,-297.154759361553
738509.41794848849531263113,-8.24404126102481,-6.73001800592059,-297.256309701834
738509.41794857895001769066,-8.26250495925779,-6.74848170415357,-297.237846003601
738509.41794866928830742836,-8.28096865749077,-6.75771355327006,-297.191686758019
738509.41794875974301248789,-8.29943235572375,-6.76694540238655,-297.219382305368
738509.41794885019771754742,-8.29943235572375,-6.77617725150304,-297.191686758019
738509.41794894053600728512,-8.30866420484024,-6.77617725150304,-297.182454908902
738509.41794903099071234465,-8.31789605395672,-6.78540910061953,-297.210150456252
738509.41794912132900208235,-8.31789605395672,-6.77617725150304,-297.228614154485
738509.41794921178370714188,-8.31789605395672,-6.78540910061953,-297.265541550951
738509.41794930223841220140,-8.32712790307321,-6.78540910061953,-297.247077852718
738509.41794939257670193911,-8.31789605395672,-6.77617725150304,-297.163991210669
738509.41794948303140699863,-8.29943235572375,-6.76694540238655,-297.219382305368
738509.41794957336969673634,-8.29943235572375,-6.77617725150304,-297.247077852718
738509.41794966382440179586,-8.29943235572375,-6.77617725150304,-297.237846003601
738509.41794975427910685539,-8.29943235572375,-6.77617725150304,-297.237846003601
738509.41794984461739659309,-8.29943235572375,-6.78540910061953,-297.237846003601
738509.41794993507210165262,-8.29943235572375,-6.76694540238655,-297.219382305368
738509.41795002541039139032,-8.29943235572375,-6.77617725150304,-297.080904568621
738509.41795011586509644985,-8.29020050660726,-6.77617725150304,-297.13629566332
738509.41795020631980150938,-8.29020050660726,-6.77617725150304,-297.247077852718
738509.41795029665809124708,-8.28096865749077,-6.76694540238655,-297.219382305368
738509.41795038711279630661,-8.28096865749077,-6.77617725150304,-297.191686758019
738509.41795047745108604431,-8.27173680837428,-6.76694540238655,-297.191686758019
738509.41795056790579110384,-8.29020050660726,-6.78540910061953,-297.163991210669
738509.41795065824408084154,-8.28096865749077,-6.77617725150304,-297.163991210669
738509.41795074869878590107,-8.27173680837428,-6.76694540238655,-297.219382305368
738509.41795083915349096060,-8.23480941190832,-6.75771355327006,-297.219382305368
738509.41795092949178069830,-8.20711386455885,-6.75771355327006,-297.210150456252
738509.41795101994648575783,-8.19788201544237,-6.74848170415357,-297.191686758019
738509.41795111028477549553,-8.17941831720939,-6.73924985503708,-297.200918607135
738509.41795120073948055506,-8.15172276985992,-6.74848170415357,-297.200918607135
738509.41795129119418561459,-8.14249092074343,-6.75771355327006,-297.191686758019
738509.41795138153247535229,-8.12402722251045,-6.74848170415357,-297.219382305368
738509.41795147198718041182,-8.13325907162694,-6.73924985503708,-297.191686758019
738509.41795156232547014952,-8.17941831720939,-6.73924985503708,-297.247077852718
738509.41795165278017520905,-8.22557756279183,-6.75771355327006,-297.247077852718
738509.41795174323488026857,-8.30866420484024,-6.77617725150304,-297.163991210669
738509.41795183357317000628,-8.31789605395672,-6.78540910061953,-297.173223059786
738509.41795192402787506580,-8.3363597521897,-6.8038727988525,-297.163991210669
738509.41795201436616480350,-8.35482345042268,-6.8038727988525,-297.154759361553
738509.41795210482086986303,-8.36405529953917,-6.81310464796899,-297.173223059786
738509.41795219527557492256,-8.35482345042268,-6.8038727988525,-297.163991210669
738509.41795228561386466026,-8.35482345042268,-6.81310464796899,-297.145527512436
738509.41795237606856971979,-8.35482345042268,-6.81310464796899,-297.182454908902
738509.41795246640685945749,-8.38251899777215,-6.8038727988525,-297.210150456252
738509.41795255686156451702,-8.46560563982055,-6.8038727988525,-297.182454908902
738509.41795264731626957655,-8.47483748893704,-6.74848170415357,-297.200918607135
738509.41795273765455931425,-7.95785393841365,-6.68385876033815,-297.163991210669
738509.41795282810926437378,-7.43163853877377,-6.54538102359081,-297.13629566332
738509.41795291844755411148,-7.10852381969665,-6.5546128727073,-297.145527512436
738509.41795300890225917101,-7.02543717764824,-6.59154026917325,-297.10860011597
738509.41795309924054890871,-7.61627552110355,-6.48998992889187,-297.117831965087
738509.41795318969525396824,-8.44714194158757,-6.56384472182379,-297.163991210669
738509.41795328014995902777,-8.49330118717002,-6.65616321298868,-297.191686758019
738509.41795337048824876547,-8.40098269600513,-6.73001800592059,-297.210150456252
738509.41795346094295382500,-8.38251899777215,-6.78540910061953,-297.247077852718
738509.41795355128124356270,-8.38251899777215,-6.8038727988525,-297.13629566332
738509.41795364173594862223,-8.38251899777215,-6.8038727988525,-297.099368266854
738509.41795373219065368176,-8.38251899777215,-6.81310464796899,-297.284005249184
738509.41795382252894341946,-8.38251899777215,-6.81310464796899,-297.237846003601
738509.41795391298364847898,-8.37328714865566,-6.81310464796899,-297.284005249184
738509.41795400332193821669,-8.36405529953917,-6.81310464796899,-297.247077852718
738509.41795409377664327621,-8.36405529953917,-6.8038727988525,-297.191686758019
738509.41795418423134833574,-8.35482345042268,-6.8038727988525,-297.256309701834
738509.41795427456963807344,-8.35482345042268,-6.8038727988525,-297.284005249184
738509.41795436502434313297,-8.3363597521897,-6.78540910061953,-297.191686758019
738509.41795445536263287067,-8.34559160130619,-6.79464094973601,-297.219382305368
738509.41795454581733793020,-8.3363597521897,-6.79464094973601,-297.247077852718
738509.41795463627204298973,-8.32712790307321,-6.78540910061953,-297.237846003601
738509.41795472661033272743,-8.30866420484024,-6.75771355327006,-297.200918607135
738509.41795481706503778696,-8.29943235572375,-6.75771355327006,-297.237846003601
738509.41795490740332752466,-8.29020050660726,-6.74848170415357,-297.265541550951
738509.41795499785803258419,-8.28096865749077,-6.73001800592059,-297.228614154485
738509.41795508831273764372,-8.24404126102481,-6.71155430768761,-297.145527512436
738509.41795517865102738142,-8.22557756279183,-6.68385876033815,-297.210150456252
738509.41795526910573244095,-8.20711386455885,-6.67462691122166,-297.210150456252
738509.41795535944402217865,-8.17941831720939,-6.64693136387219,-297.182454908902
738509.41795544989872723818,-8.1701864680929,-6.6376995147557,-297.182454908902
738509.41795554023701697588,-8.15172276985992,-6.61923581652272,-297.219382305368
738509.41795563069172203541,-8.15172276985992,-6.6376995147557,-297.200918607135
738509.41795572114642709494,-8.14249092074343,-6.6376995147557,-297.173223059786
738509.41795581148471683264,-8.13325907162694,-6.65616321298868,-297.228614154485
738509.41795590193942189217,-8.13325907162694,-6.66539506210517,-297.13629566332
738509.41795599227771162987,-8.16095461897641,-6.71155430768761,-297.163991210669
738509.41795608273241668940,-8.19788201544237,-6.73924985503708,-297.154759361553
738509.41795617318712174892,-8.22557756279183,-6.76694540238655,-297.163991210669
738509.41795626352541148663,-8.24404126102481,-6.77617725150304,-297.200918607135
738509.41795635398011654615,-8.26250495925779,-6.79464094973601,-297.237846003601
738509.41795644431840628386,-8.27173680837428,-6.8038727988525,-297.173223059786
738509.41795653477311134338,-8.28096865749077,-6.8038727988525,-297.210150456252
738509.41795662522781640291,-8.28096865749077,-6.8038727988525,-297.228614154485
738509.41795671556610614061,-8.28096865749077,-6.8038727988525,-297.210150456252
738509.41795680602081120014,-8.28096865749077,-6.8038727988525,-297.182454908902
738509.41795689635910093784,-8.29020050660726,-6.81310464796899,-297.219382305368
738509.41795698681380599737,-8.28096865749077,-6.8038727988525,-297.219382305368
738509.41795707726851105690,-8.28096865749077,-6.81310464796899,-297.117831965087
738509.41795716760680079460,-8.29020050660726,-6.82233649708548,-297.090136417737
738509.41795725806150585413,-8.28096865749077,-6.81310464796899,-297.182454908902
738509.41795734839979559183,-8.27173680837428,-6.8038727988525,-297.145527512436
738509.41795743885450065136,-8.27173680837428,-6.8038727988525,-297.173223059786
738509.41795752930920571089,-8.26250495925779,-6.8038727988525,-297.228614154485
738509.41795761964749544859,-8.26250495925779,-6.8038727988525,-297.182454908902
738509.41795771010220050812,-8.26250495925779,-6.8038727988525,-297.256309701834
738509.41795780044049024582,-8.26250495925779,-6.8038727988525,-297.219382305368
738509.41795789089519530535,-8.26250495925779,-6.81310464796899,-297.219382305368
738509.41795798123348504305,-8.26250495925779,-6.8038727988525,-297.256309701834
738509.41795807168819010258,-8.26250495925779,-6.81310464796899,-297.247077852718
738509.41795816214289516211,-8.26250495925779,-6.8038727988525,-297.182454908902
738509.41795825248118489981,-8.2532731101413,-6.8038727988525,-297.256309701834
738509.41795834293588995934,-8.27173680837428,-6.81310464796899,-297.274773400067
738509.41795843327417969704,-8.2532731101413,-6.8038727988525,-297.228614154485
738509.41795852372888475657,-8.22557756279183,-6.78540910061953,-297.247077852718
738509.41795861418358981609,-8.19788201544237,-6.79464094973601,-297.256309701834
738509.41795870452187955379,-8.18865016632588,-6.78540910061953,-297.265541550951
738509.41795879497658461332,-8.1701864680929,-6.77617725150304,-297.182454908902
738509.41795888531487435102,-8.13325907162694,-6.76694540238655,-297.284005249184
738509.41795897576957941055,-8.12402722251045,-6.78540910061953,-297.274773400067
738509.41795906622428447008,-8.10556352427747,-6.77617725150304,-297.284005249184
738509.41795915656257420778,-8.12402722251045,-6.77617725150304,-297.200918607135
738509.41795924701727926731,-8.14249092074343,-6.76694540238655,-297.265541550951
738509.41795933735556900501,-8.17941831720939,-6.76694540238655,-297.247077852718
738509.41795942781027406454,-8.26250495925779,-6.79464094973601,-297.200918607135
738509.41795951826497912407,-8.30866420484024,-6.8038727988525,-297.265541550951
738509.41795960860326886177,-8.32712790307321,-6.82233649708548,-297.265541550951
738509.41795969905797392130,-8.32712790307321,-6.82233649708548,-297.237846003601
738509.41795978939626365900,-8.3363597521897,-6.83156834620197,-297.237846003601
738509.41795987985096871853,-8.34559160130619,-6.84080019531846,-297.237846003601
738509.41795997030567377806,-8.3363597521897,-6.83156834620197,-297.182454908902
738509.41796006064396351576,-8.3363597521897,-6.83156834620197,-297.173223059786
738509.41796015109866857529,-8.35482345042268,-6.84080019531846,-297.163991210669
738509.41796024143695831299,-8.41021454512162,-6.84080019531846,-297.191686758019
738509.41796033189166337252,-8.52099673451949,-6.77617725150304,-297.163991210669
738509.41796042222995311022,-8.18865016632588,-6.7207861568041,-297.154759361553
738509.41796051268465816975,-7.59781182287057,-6.61000396740623,-297.117831965087
738509.41796060313936322927,-7.38547929319132,-6.5546128727073,-297.053209021271
738509.41796069347765296698,-7.09929197058016,-6.59154026917325,-297.007049775689
738509.41796078393235802650,-7.36701559495834,-6.51768547624134,-297.099368266854
738509.41796087427064776421,-8.36405529953917,-6.48998992889187,-297.219382305368
738509.41796096472535282373,-8.49330118717002,-6.64693136387219,-297.191686758019
738509.41796105518005788326,-8.38251899777215,-6.74848170415357,-297.228614154485
738509.41796114551834762096,-8.38251899777215,-6.8038727988525,-297.247077852718
738509.41796123597305268049,-8.39175084688864,-6.83156834620197,-297.274773400067
738509.41796132631134241819,-8.39175084688864,-6.83156834620197,-297.274773400067
738509.41796141676604747772,-8.39175084688864,-6.84080019531846,-297.237846003601
738509.41796150722075253725,-8.38251899777215,-6.84080019531846,-297.182454908902
738509.41796159755904227495,-8.36405529953917,-6.83156834620197,-297.237846003601
738509.41796168801374733448,-8.37328714865566,-6.84080019531846,-297.228614154485
738509.41796177835203707218,-8.36405529953917,-6.83156834620197,-297.256309701834
738509.41796186880674213171,-8.36405529953917,-6.82233649708548,-297.237846003601
738509.41796195926144719124,-8.35482345042268,-6.82233649708548,-297.210150456252
738509.41796204959973692894,-8.3363597521897,-6.81310464796899,-297.237846003601
738509.41796214005444198847,-8.34559160130619,-6.81310464796899,-297.256309701834
738509.41796223039273172617,-8.32712790307321,-6.81310464796899,-297.265541550951
738509.41796232084743678570,-8.31789605395672,-6.79464094973601,-297.247077852718
738509.41796241130214184523,-8.30866420484024,-6.78540910061953,-297.256309701834
738509.41796250164043158293,-8.29943235572375,-6.78540910061953,-297.219382305368
738509.41796259209513664246,-8.29020050660726,-6.76694540238655,-297.274773400067
738509.41796268243342638016,-8.26250495925779,-6.74848170415357,-297.247077852718
738509.41796277288813143969,-8.2532731101413,-6.73001800592059,-297.219382305368
738509.41796286322642117739,-8.21634571367534,-6.70232245857112,-297.247077852718
738509.41796295368112623692,-8.19788201544237,-6.68385876033815,-297.237846003601
738509.41796304413583129644,-8.16095461897641,-6.66539506210517,-297.219382305368
738509.41796313447412103415,-8.15172276985992,-6.65616321298868,-297.200918607135
738509.41796322492882609367,-8.13325907162694,-6.64693136387219,-297.247077852718
738509.41796331526711583138,-8.12402722251045,-6.6376995147557,-297.163991210669
738509.41796340572182089090,-8.11479537339396,-6.64693136387219,-297.127063814203
738509.41796349617652595043,-8.11479537339396,-6.66539506210517,-297.163991210669
738509.41796358651481568813,-8.12402722251045,-6.69309060945463,-297.173223059786
738509.41796367696952074766,-8.14249092074343,-6.7207861568041,-297.145527512436
738509.41796376730781048536,-8.16095461897641,-6.73924985503708,-297.247077852718
738509.41796385776251554489,-8.20711386455885,-6.78540910061953,-297.274773400067
738509.41796394821722060442,-8.22557756279183,-6.8038727988525,-297.219382305368
738509.41796403855551034212,-8.24404126102481,-6.81310464796899,-297.256309701834
738509.41796412901021540165,-8.27173680837428,-6.83156834620197,-297.099368266854
738509.41796421934850513935,-8.28096865749077,-6.83156834620197,-297.191686758019
738509.41796430980321019888,-8.28096865749077,-6.83156834620197,-297.228614154485
738509.41796440025791525841,-8.27173680837428,-6.82233649708548,-297.265541550951
738509.41796449059620499611,-8.28096865749077,-6.83156834620197,-297.311700796533
738509.41796458105091005564,-8.29020050660726,-6.83156834620197,-297.200918607135
738509.41796467138919979334,-8.28096865749077,-6.82233649708548,-297.210150456252
738509.41796476184390485287,-8.28096865749077,-6.82233649708548,-297.210150456252
738509.41796485229860991240,-8.27173680837428,-6.82233649708548,-297.228614154485
738509.41796494263689965010,-8.28096865749077,-6.82233649708548,-297.219382305368
738509.41796503309160470963,-8.28096865749077,-6.83156834620197,-297.247077852718
738509.41796512342989444733,-8.28096865749077,-6.82233649708548,-297.200918607135
738509.41796521388459950686,-8.26250495925779,-6.82233649708548,-297.256309701834
738509.41796530422288924456,-8.26250495925779,-6.82233649708548,-297.228614154485
738509.41796539467759430408,-8.27173680837428,-6.82233649708548,-297.219382305368
738509.41796548513229936361,-8.2532731101413,-6.81310464796899,-297.265541550951
738509.41796557547058910131,-8.2532731101413,-6.82233649708548,-297.274773400067
738509.41796566592529416084,-8.26250495925779,-6.82233649708548,-297.256309701834
738509.41796575626358389854,-8.26250495925779,-6.82233649708548,-297.284005249184
738509.41796584671828895807,-8.26250495925779,-6.82233649708548,-297.210150456252
738509.41796593717299401760,-8.28096865749077,-6.83156834620197,-297.256309701834
738509.41796602751128375530,-8.27173680837428,-6.83156834620197,-297.228614154485
738509.41796611796598881483,-8.27173680837428,-6.83156834620197,-297.284005249184
738509.41796620830427855253,-8.28096865749077,-6.83156834620197,-297.210150456252
738509.41796629875898361206,-8.27173680837428,-6.83156834620197,-297.256309701834
738509.41796638921368867159,-8.26250495925779,-6.82233649708548,-297.237846003601
738509.41796647955197840929,-8.23480941190832,-6.81310464796899,-297.237846003601
738509.41796657000668346882,-8.18865016632588,-6.8038727988525,-297.302468947417
738509.41796666034497320652,-8.18865016632588,-6.8038727988525,-297.274773400067
738509.41796675079967826605,-8.14249092074343,-6.79464094973601,-297.228614154485
738509.41796684125438332558,-8.12402722251045,-6.8038727988525,-297.284005249184
738509.41796693159267306328,-8.10556352427747,-6.79464094973601,-297.247077852718
738509.41796702204737812281,-8.12402722251045,-6.8038727988525,-297.191686758019
738509.41796711238566786051,-8.14249092074343,-6.78540910061953,-297.191686758019
738509.41796720284037292004,-8.18865016632588,-6.78540910061953,-297.200918607135
738509.41796729317866265774,-8.26250495925779,-6.81310464796899,-297.200918607135
738509.41796738363336771727,-8.31789605395672,-6.83156834620197,-297.256309701834
738509.41796747408807277679,-8.32712790307321,-6.84080019531846,-297.265541550951
738509.41796756442636251450,-8.34559160130619,-6.85003204443495,-297.311700796533
738509.41796765488106757402,-8.34559160130619,-6.85003204443495,-297.117831965087
738509.41796774521935731173,-8.34559160130619,-6.85003204443495,-297.191686758019
738509.41796783567406237125,-8.34559160130619,-6.85003204443495,-297.265541550951
738509.41796792612876743078,-8.35482345042268,-6.85926389355144,-297.32093264565
738509.41796801646705716848,-8.35482345042268,-6.85003204443495,-297.163991210669
738509.41796810692176222801,-8.41021454512162,-6.85003204443495,-297.284005249184
738509.41796819726005196571,-8.47483748893704,-6.85003204443495,-297.32093264565
738509.41796828771475702524,-8.47483748893704,-6.76694540238655,-297.256309701834
738509.41796837816946208477,-7.94862208929716,-6.69309060945463,-297.145527512436
738509.41796846850775182247,-7.45933408612323,-6.59154026917325,-297.163991210669
738509.41796855896245688200,-7.18237861262856,-6.62846766563921,-297.200918607135
738509.41796864930074661970,-7.35778374584185,-6.52691732535783,-297.182454908902
738509.41796873975545167923,-8.30866420484024,-6.45306253242592,-297.256309701834
738509.41796883021015673876,-8.48406933805353,-6.64693136387219,-297.219382305368
738509.41796892054844647646,-8.39175084688864,-6.76694540238655,-297.247077852718
738509.41796901100315153599,-8.37328714865566,-6.81310464796899,-297.210150456252
738509.41796910134144127369,-8.37328714865566,-6.83156834620197,-297.210150456252
738509.41796919179614633322,-8.39175084688864,-6.84080019531846,-297.265541550951
738509.41796928225085139275,-8.39175084688864,-6.85926389355144,-297.237846003601
738509.41796937258914113045,-8.39175084688864,-6.85926389355144,-297.210150456252
738509.41796946304384618998,-8.38251899777215,-6.86849574266793,-297.237846003601
738509.41796955338213592768,-8.36405529953917,-6.85926389355144,-297.237846003601
738509.41796964383684098721,-8.36405529953917,-6.85003204443495,-297.219382305368
738509.41796973417513072491,-8.34559160130619,-6.82233649708548,-297.219382305368
738509.41796982462983578444,-8.34559160130619,-6.83156834620197,-297.265541550951
738509.41796991508454084396,-8.35482345042268,-6.83156834620197,-297.210150456252
738509.41797000542283058167,-8.32712790307321,-6.82233649708548,-297.191686758019
738509.41797009587753564119,-8.3363597521897,-6.83156834620197,-297.219382305368
738509.41797018621582537889,-8.32712790307321,-6.82233649708548,-297.256309701834
738509.41797027667053043842,-8.30866420484024,-6.8038727988525,-297.237846003601
738509.41797036712523549795,-8.29943235572375,-6.8038727988525,-297.247077852718
738509.41797045746352523565,-8.28096865749077,-6.77617725150304,-297.284005249184
738509.41797054791823029518,-8.26250495925779,-6.75771355327006,-297.274773400067
738509.41797063825652003288,-8.2532731101413,-6.74848170415357,-297.265541550951
738509.41797072871122509241,-8.22557756279183,-6.7207861568041,-297.191686758019
738509.41797081916593015194,-8.20711386455885,-6.69309060945463,-297.182454908902
738509.41797090950421988964,-8.17941831720939,-6.67462691122166,-297.163991210669
738509.41797099995892494917,-8.1701864680929,-6.66539506210517,-297.163991210669
738509.41797109029721468687,-8.14249092074343,-6.64693136387219,-297.145527512436
738509.41797118075191974640,-8.13325907162694,-6.64693136387219,-297.071672719504
738509.41797127120662480593,-8.14249092074343,-6.64693136387219,-297.145527512436
738509.41797136154491454363,-8.13325907162694,-6.66539506210517,-297.163991210669
738509.41797145199961960316,-8.14249092074343,-6.69309060945463,-297.237846003601
738509.41797154233790934086,-8.16095461897641,-6.7207861568041,-297.265541550951
738509.41797163279261440039,-8.18865016632588,-6.75771355327006,-297.237846003601
738509.41797172324731945992,-8.22557756279183,-6.78540910061953,-297.284005249184
738509.41797181358560919762,-8.2532731101413,-6.8038727988525,-297.284005249184
738509.41797190404031425714,-8.27173680837428,-6.82233649708548,-297.284005249184
738509.41797199437860399485,-8.29020050660726,-6.83156834620197,-297.210150456252
738509.41797208483330905437,-8.29943235572375,-6.84080019531846,-297.274773400067
738509.41797217517159879208,-8.30866420484024,-6.85003204443495,-297.274773400067
738509.41797226562630385160,-8.30866420484024,-6.84080019531846,-297.237846003601
738509.41797235608100891113,-8.30866420484024,-6.84080019531846,-297.265541550951
738509.41797244641929864883,-8.31789605395672,-6.85003204443495,-297.311700796533
738509.41797253687400370836,-8.32712790307321,-6.85003204443495,-297.284005249184
738509.41797262721229344606,-8.3363597521897,-6.85003204443495,-297.210150456252
738509.41797271766699850559,-8.31789605395672,-6.85003204443495,-297.265541550951
738509.41797280812170356512,-8.32712790307321,-6.85003204443495,-297.284005249184
738509.41797289845999330282,-8.31789605395672,-6.84080019531846,-297.210150456252
738509.41797298891469836235,-8.30866420484024,-6.84080019531846,-297.284005249184
738509.41797307925298810005,-8.30866420484024,-6.83156834620197,-297.274773400067
738509.41797316970769315958,-8.30866420484024,-6.83156834620197,-297.265541550951
738509.41797326016239821911,-8.29943235572375,-6.82233649708548,-297.256309701834
738509.41797335050068795681,-8.30866420484024,-6.84080019531846,-297.284005249184
738509.41797344095539301634,-8.32712790307321,-6.84080019531846,-297.247077852718
738509.41797353129368275404,-8.32712790307321,-6.84080019531846,-297.210150456252
738509.41797362174838781357,-8.31789605395672,-6.84080019531846,-297.228614154485
738509.41797371220309287310,-8.31789605395672,-6.85003204443495,-297.274773400067
738509.41797380254138261080,-8.31789605395672,-6.83156834620197,-297.256309701834
738509.41797389299608767033,-8.31789605395672,-6.84080019531846,-297.274773400067
738509.41797398333437740803,-8.32712790307321,-6.84080019531846,-297.228614154485
738509.41797407378908246756,-8.32712790307321,-6.84080019531846,-297.237846003601
738509.41797416424378752708,-8.32712790307321,-6.85003204443495,-297.274773400067
738509.41797425458207726479,-8.3363597521897,-6.85003204443495,-297.247077852718
738509.41797434503678232431,-8.31789605395672,-6.83156834620197,-297.265541550951
738509.41797443537507206202,-8.28096865749077,-6.82233649708548,-297.274773400067
738509.41797452582977712154,-8.2532731101413,-6.82233649708548,-297.2932370983
738509.41797461616806685925,-8.23480941190832,-6.8038727988525,-297.284005249184
738509.41797470662277191877,-8.20711386455885,-6.8038727988525,-297.163991210669
738509.41797479707747697830,-8.18865016632588,-6.81310464796899,-297.219382305368
738509.41797488741576671600,-8.19788201544237,-6.8038727988525,-297.237846003601
738509.41797497787047177553,-8.19788201544237,-6.81310464796899,-297.237846003601
738509.41797506820876151323,-8.22557756279183,-6.79464094973601,-297.274773400067
738509.41797515866346657276,-8.26250495925779,-6.8038727988525,-297.284005249184
738509.41797524911817163229,-8.37328714865566,-6.84080019531846,-297.247077852718
738509.41797533945646136999,-8.40098269600513,-6.85926389355144,-297.274773400067
738509.41797542991116642952,-8.41021454512162,-6.86849574266793,-297.311700796533
738509.41797552024945616722,-8.4194463942381,-6.87772759178442,-297.256309701834
738509.41797561070416122675,-8.4194463942381,-6.86849574266793,-297.2932370983
738509.41797570115886628628,-8.4194463942381,-6.86849574266793,-297.2932370983
738509.41797579149715602398,-8.42867824335459,-6.86849574266793,-297.284005249184
738509.41797588195186108351,-8.42867824335459,-6.87772759178442,-297.237846003601
738509.41797597229015082121,-8.42867824335459,-6.86849574266793,-297.311700796533
738509.41797606274485588074,-8.46560563982055,-6.86849574266793,-297.339396343883
738509.41797615319956094027,-8.56715598010193,-6.85003204443495,-297.32093264565
738509.41797624353785067797,-8.46560563982055,-6.81310464796899,-297.219382305368
738509.41797633399255573750,-7.89323099459822,-6.7207861568041,-297.210150456252
738509.41797642433084547520,-7.45933408612323,-6.57307657094027,-297.182454908902
738509.41797651478555053473,-7.17314676351207,-6.61923581652272,-297.228614154485
738509.41797660524025559425,-7.55165257728812,-6.53614917447432,-297.13629566332
738509.41797669557854533195,-8.46560563982055,-6.5546128727073,-297.274773400067
738509.41797678603325039148,-8.60408337656789,-6.66539506210517,-297.2932370983
738509.41797687637154012918,-8.50253303628651,-6.73924985503708,-297.228614154485
738509.41797696682624518871,-8.47483748893704,-6.82233649708548,-297.274773400067
738509.41797705716453492641,-8.48406933805353,-6.85003204443495,-297.32093264565
738509.41797714761923998594,-8.49330118717002,-6.86849574266793,-297.284005249184
738509.41797723807394504547,-8.49330118717002,-6.87772759178442,-297.311700796533
738509.41797732841223478317,-8.49330118717002,-6.86849574266793,-297.311700796533
738509.41797741886693984270,-8.48406933805353,-6.85926389355144,-297.339396343883
738509.41797750920522958040,-8.47483748893704,-6.85926389355144,-297.210150456252
738509.41797759965993463993,-8.47483748893704,-6.86849574266793,-297.302468947417
738509.41797769011463969946,-8.47483748893704,-6.84080019531846,-297.311700796533
738509.41797778045292943716,-8.47483748893704,-6.84080019531846,-297.256309701834
738509.41797787090763449669,-8.48406933805353,-6.85926389355144,-297.274773400067
738509.41797796124592423439,-8.46560563982055,-6.85003204443495,-297.265541550951
738509.41797805170062929392,-8.45637379070406,-6.84080019531846,-297.237846003601
738509.41797814215533435345,-8.44714194158757,-6.83156834620197,-297.247077852718
738509.41797823249362409115,-8.43791009247108,-6.81310464796899,-297.182454908902
738509.41797832294832915068,-8.43791009247108,-6.8038727988525,-297.154759361553
738509.41797841328661888838,-8.42867824335459,-6.79464094973601,-297.256309701834
738509.41797850374132394791,-8.41021454512162,-6.77617725150304,-297.228614154485
738509.41797859419602900743,-8.37328714865566,-6.75771355327006,-297.210150456252
738509.41797868453431874514,-8.36405529953917,-6.73924985503708,-297.2932370983
738509.41797877498902380466,-8.3363597521897,-6.71155430768761,-297.237846003601
738509.41797886532731354237,-8.31789605395672,-6.69309060945463,-297.237846003601
738509.41797895578201860189,-8.29943235572375,-6.69309060945463,-297.256309701834
738509.41797904623672366142,-8.29020050660726,-6.68385876033815,-297.256309701834
738509.41797913657501339912,-8.27173680837428,-6.67462691122166,-297.302468947417
738509.41797922702971845865,-8.29020050660726,-6.68385876033815,-297.274773400067
738509.41797931736800819635,-8.26250495925779,-6.69309060945463,-297.237846003601
738509.41797940782271325588,-8.2532731101413,-6.69309060945463,-297.274773400067
738509.41797949816100299358,-8.29020050660726,-6.73924985503708,-297.32093264565
738509.41797958861570805311,-8.32712790307321,-6.76694540238655,-297.265541550951
738509.41797967907041311264,-8.3363597521897,-6.78540910061953,-297.274773400067
738509.41797976940870285034,-8.35482345042268,-6.8038727988525,-297.348628192999
738509.41797985986340790987,-8.37328714865566,-6.82233649708548,-297.311700796533
738509.41797995020169764757,-8.40098269600513,-6.83156834620197,-297.274773400067
738509.41798004065640270710,-8.4194463942381,-6.84080019531846,-297.2932370983
738509.41798013111110776663,-8.40098269600513,-6.83156834620197,-297.228614154485
738509.41798022144939750433,-8.4194463942381,-6.84080019531846,-297.228614154485
738509.41798031190410256386,-8.41021454512162,-6.82233649708548,-297.210150456252
738509.41798040224239230156,-8.41021454512162,-6.83156834620197,-297.237846003601
738509.41798049269709736109,-8.42867824335459,-6.85003204443495,-297.284005249184
738509.41798058315180242062,-8.4194463942381,-6.84080019531846,-297.2932370983
738509.41798067349009215832,-8.41021454512162,-6.82233649708548,-297.228614154485
738509.41798076394479721785,-8.40098269600513,-6.82233649708548,-297.339396343883
738509.41798085428308695555,-8.4194463942381,-6.85003204443495,-297.330164494766
738509.41798094473779201508,-8.41021454512162,-6.82233649708548,-297.247077852718
738509.41798103519249707460,-8.41021454512162,-6.82233649708548,-297.32093264565
738509.41798112553078681231,-8.41021454512162,-6.82233649708548,-297.330164494766
738509.41798121598549187183,-8.4194463942381,-6.83156834620197,-297.302468947417
738509.41798130632378160954,-8.40098269600513,-6.81310464796899,-297.274773400067
738509.41798139677848666906,-8.40098269600513,-6.82233649708548,-297.32093264565
738509.41798148723319172859,-8.38251899777215,-6.78540910061953,-297.339396343883
738509.41798157757148146629,-8.37328714865566,-6.78540910061953,-297.274773400067
738509.41798166802618652582,-8.37328714865566,-6.79464094973601,-297.284005249184
738509.41798175836447626352,-8.37328714865566,-6.81310464796899,-297.274773400067
738509.41798184881918132305,-8.34559160130619,-6.81310464796899,-297.219382305368
738509.41798193915747106075,-8.32712790307321,-6.78540910061953,-297.265541550951
738509.41798202961217612028,-8.29020050660726,-6.77617725150304,-297.32093264565
738509.41798212006688117981,-8.26250495925779,-6.78540910061953,-297.339396343883
738509.41798221040517091751,-8.2532731101413,-6.78540910061953,-297.247077852718
738509.41798230085987597704,-8.26250495925779,-6.78540910061953,-297.2932370983
738509.41798239119816571474,-8.26250495925779,-6.76694540238655,-297.247077852718
738509.41798248165287077427,-8.27173680837428,-6.76694540238655,-297.247077852718
738509.41798257210757583380,-8.3363597521897,-6.78540910061953,-297.247077852718
738509.41798266244586557150,-8.44714194158757,-6.82233649708548,-297.265541550951
738509.41798275290057063103,-8.45637379070406,-6.84080019531846,-297.284005249184
738509.41798284323886036873,-8.44714194158757,-6.82233649708548,-297.265541550951
738509.41798293369356542826,-8.48406933805353,-6.84080019531846,-297.274773400067
738509.41798302414827048779,-8.45637379070406,-6.83156834620197,-297.228614154485
738509.41798311448656022549,-8.49330118717002,-6.85003204443495,-297.256309701834
738509.41798320494126528502,-8.49330118717002,-6.85926389355144,-297.284005249184
738509.41798329527955502272,-8.48406933805353,-6.85003204443495,-297.2932370983
738509.41798338573426008224,-8.49330118717002,-6.83156834620197,-297.32093264565
738509.41798347618896514177,-8.52099673451949,-6.84080019531846,-297.348628192999
738509.41798356652725487947,-8.66870632038331,-6.84080019531846,-297.302468947417
738509.41798365698195993900,-8.47483748893704,-6.8038727988525,-297.247077852718
738509.41798374732024967670,-7.84707174901578,-6.69309060945463,-297.163991210669
738509.41798383777495473623,-7.44087038789026,-6.54538102359081,-297.117831965087
738509.41798392811324447393,-7.15468306527909,-6.58230842005676,-297.127063814203
738509.41798401856794953346,-7.5701162755211,-6.53614917447432,-297.090136417737
738509.41798410902265459299,-8.48406933805353,-6.58230842005676,-297.237846003601
738509.41798419936094433069,-8.63177892391736,-6.68385876033815,-297.284005249184
738509.41798428981564939022,-8.53946043275246,-6.74848170415357,-297.274773400067
738509.41798438015393912792,-8.48406933805353,-6.78540910061953,-297.302468947417
738509.41798447060864418745,-8.48406933805353,-6.81310464796899,-297.330164494766
738509.41798456106334924698,-8.48406933805353,-6.82233649708548,-297.330164494766
738509.41798465140163898468,-8.49330118717002,-6.83156834620197,-297.284005249184
738509.41798474185634404421,-8.47483748893704,-6.81310464796899,-297.330164494766
738509.41798483219463378191,-8.46560563982055,-6.83156834620197,-297.311700796533
738509.41798492264933884144,-8.45637379070406,-6.82233649708548,-297.256309701834
738509.41798501310404390097,-8.47483748893704,-6.83156834620197,-297.311700796533
738509.41798510344233363867,-8.46560563982055,-6.82233649708548,-297.330164494766
738509.41798519389703869820,-8.44714194158757,-6.81310464796899,-297.302468947417
738509.41798528423532843590,-8.45637379070406,-6.82233649708548,-297.219382305368
738509.41798537469003349543,-8.45637379070406,-6.82233649708548,-297.163991210669
738509.41798546514473855495,-8.44714194158757,-6.8038727988525,-297.2932370983
738509.41798555548302829266,-8.43791009247108,-6.79464094973601,-297.247077852718
738509.41798564593773335218,-8.43791009247108,-6.79464094973601,-297.274773400067
738509.41798573627602308989,-8.41021454512162,-6.76694540238655,-297.237846003601
738509.41798582673072814941,-8.41021454512162,-6.76694540238655,-297.228614154485
738509.41798591718543320894,-8.39175084688864,-6.75771355327006,-297.265541550951
738509.41798600752372294664,-8.39175084688864,-6.73924985503708,-297.210150456252
738509.41798609797842800617,-8.35482345042268,-6.70232245857112,-297.219382305368
738509.41798618831671774387,-8.32712790307321,-6.68385876033815,-297.265541550951
738509.41798627877142280340,-8.32712790307321,-6.68385876033815,-297.200918607135
738509.41798636910971254110,-8.29020050660726,-6.65616321298868,-297.247077852718
738509.41798645956441760063,-8.29943235572375,-6.66539506210517,-297.265541550951
738509.41798655001912266016,-8.29020050660726,-6.65616321298868,-297.237846003601
738509.41798664035741239786,-8.29020050660726,-6.67462691122166,-297.219382305368
738509.41798673081211745739,-8.28096865749077,-6.68385876033815,-297.182454908902
738509.41798682115040719509,-8.26250495925779,-6.69309060945463,-297.256309701834
738509.41798691160511225462,-8.28096865749077,-6.73001800592059,-297.256309701834
738509.41798700205981731415,-8.31789605395672,-6.76694540238655,-297.302468947417
738509.41798709239810705185,-8.34559160130619,-6.78540910061953,-297.265541550951
738509.41798718285281211138,-8.35482345042268,-6.78540910061953,-297.32093264565
738509.41798727319110184908,-8.35482345042268,-6.79464094973601,-297.302468947417
738509.41798736364580690861,-8.39175084688864,-6.81310464796899,-297.302468947417
738509.41798745410051196814,-8.39175084688864,-6.81310464796899,-297.2932370983
738509.41798754443880170584,-8.40098269600513,-6.81310464796899,-297.311700796533
738509.41798763489350676537,-8.40098269600513,-6.81310464796899,-297.284005249184
738509.41798772523179650307,-8.4194463942381,-6.82233649708548,-297.247077852718
738509.41798781568650156260,-8.41021454512162,-6.82233649708548,-297.311700796533
738509.41798790614120662212,-8.40098269600513,-6.82233649708548,-297.302468947417
738509.41798799647949635983,-8.39175084688864,-6.81310464796899,-297.274773400067
738509.41798808693420141935,-8.39175084688864,-6.81310464796899,-297.302468947417
738509.41798817727249115705,-8.37328714865566,-6.8038727988525,-297.2932370983
738509.41798826772719621658,-8.38251899777215,-6.8038727988525,-297.274773400067
738509.41798835818190127611,-8.37328714865566,-6.79464094973601,-297.2932370983
738509.41798844852019101381,-8.39175084688864,-6.83156834620197,-297.330164494766
738509.41798853897489607334,-8.41021454512162,-6.82233649708548,-297.311700796533
738509.41798862931318581104,-8.39175084688864,-6.81310464796899,-297.237846003601
738509.41798871976789087057,-8.39175084688864,-6.81310464796899,-297.210150456252
738509.41798881010618060827,-8.37328714865566,-6.8038727988525,-297.053209021271
738509.41798890056088566780,-8.36405529953917,-6.79464094973601,-297.127063814203
738509.41798899101559072733,-8.32712790307321,-6.8038727988525,-297.228614154485
738509.41798908135388046503,-8.31789605395672,-6.78540910061953,-297.256309701834
738509.41798917180858552456,-8.29020050660726,-6.76694540238655,-297.256309701834
738509.41798926214687526226,-8.20711386455885,-6.73924985503708,-297.274773400067
738509.41798935260158032179,-8.21634571367534,-6.78540910061953,-297.32093264565
738509.41798944305628538132,-8.20711386455885,-6.79464094973601,-297.330164494766
738509.41798953339457511902,-8.22557756279183,-6.78540910061953,-297.247077852718
738509.41798962384928017855,-8.21634571367534,-6.76694540238655,-297.284005249184
738509.41798971418756991625,-8.26250495925779,-6.78540910061953,-297.247077852718
738509.41798980464227497578,-8.3363597521897,-6.79464094973601,-297.237846003601
738509.41798989509698003531,-8.41021454512162,-6.8038727988525,-297.247077852718
738509.41798998543526977301,-8.42867824335459,-6.83156834620197,-297.247077852718
738509.41799007588997483253,-8.43791009247108,-6.82233649708548,-297.256309701834
738509.41799016622826457024,-8.45637379070406,-6.83156834620197,-297.256309701834
738509.41799025668296962976,-8.47483748893704,-6.85003204443495,-297.265541550951
738509.41799034713767468929,-8.46560563982055,-6.83156834620197,-297.210150456252
738509.41799043747596442699,-8.46560563982055,-6.83156834620197,-297.219382305368
738509.41799052793066948652,-8.49330118717002,-6.85003204443495,-297.2932370983
738509.41799061826895922422,-8.50253303628651,-6.84080019531846,-297.274773400067
738509.41799070872366428375,-8.58561967833491,-6.82233649708548,-297.302468947417
738509.41799079917836934328,-8.58561967833491,-6.79464094973601,-297.274773400067
738509.41799088951665908098,-8.01324503311258,-6.71155430768761,-297.127063814203
738509.41799097997136414051,-7.49626148258919,-6.56384472182379,-297.154759361553
738509.41799107030965387821,-7.3208563493759,-6.54538102359081,-297.173223059786
738509.41799116076435893774,-7.11775566881313,-6.56384472182379,-297.163991210669
738509.41799125110264867544,-7.83783989989929,-6.4622943815424,-297.080904568621
738509.41799134155735373497,-8.63177892391736,-6.6376995147557,-297.200918607135
738509.41799143201205879450,-8.60408337656789,-6.70232245857112,-297.210150456252
738509.41799152235034853220,-8.511764885403,-6.76694540238655,-297.200918607135
738509.41799161280505359173,-8.50253303628651,-6.8038727988525,-297.237846003601
738509.41799170314334332943,-8.511764885403,-6.83156834620197,-297.228614154485
738509.41799179359804838896,-8.52099673451949,-6.84080019531846,-297.274773400067
738509.41799188405275344849,-8.511764885403,-6.83156834620197,-297.2932370983
738509.41799197439104318619,-8.511764885403,-6.84080019531846,-297.191686758019
738509.41799206484574824572,-8.50253303628651,-6.85003204443495,-297.265541550951
738509.41799215518403798342,-8.511764885403,-6.84080019531846,-297.265541550951
738509.41799224563874304295,-8.49330118717002,-6.83156834620197,-297.191686758019
738509.41799233609344810247,-8.49330118717002,-6.82233649708548,-297.090136417737
738509.41799242643173784018,-8.48406933805353,-6.83156834620197,-297.182454908902
738509.41799251688644289970,-8.48406933805353,-6.81310464796899,-297.219382305368
738509.41799260722473263741,-8.47483748893704,-6.82233649708548,-297.200918607135
738509.41799269767943769693,-8.46560563982055,-6.81310464796899,-297.247077852718
738509.41799278813414275646,-8.45637379070406,-6.79464094973601,-297.200918607135
738509.41799287847243249416,-8.42867824335459,-6.76694540238655,-297.182454908902
738509.41799296892713755369,-8.42867824335459,-6.77617725150304,-297.13629566332
738509.41799305926542729139,-8.42867824335459,-6.76694540238655,-297.13629566332
738509.41799314972013235092,-8.42867824335459,-6.75771355327006,-297.10860011597
738509.41799324017483741045,-8.39175084688864,-6.73924985503708,-297.10860011597
738509.41799333051312714815,-8.37328714865566,-6.71155430768761,-297.145527512436
738509.41799342096783220768,-8.35482345042268,-6.69309060945463,-297.182454908902
738509.41799351130612194538,-8.3363597521897,-6.68385876033815,-297.10860011597
738509.41799360176082700491,-8.31789605395672,-6.66539506210517,-297.191686758019
738509.41799369209911674261,-8.29020050660726,-6.64693136387219,-297.173223059786
738509.41799378255382180214,-8.29020050660726,-6.65616321298868,-297.145527512436
738509.41799387300852686167,-8.29020050660726,-6.66539506210517,-297.173223059786
738509.41799396334681659937,-8.29943235572375,-6.69309060945463,-297.163991210669
738509.41799405380152165890,-8.29943235572375,-6.7207861568041,-297.182454908902
738509.41799414413981139660,-8.32712790307321,-6.75771355327006,-297.145527512436
738509.41799423459451645613,-8.36405529953917,-6.78540910061953,-297.182454908902
738509.41799432504922151566,-8.38251899777215,-6.8038727988525,-297.145527512436
738509.41799441538751125336,-8.40098269600513,-6.81310464796899,-297.13629566332
738509.41799450584221631289,-8.4194463942381,-6.81310464796899,-297.127063814203
738509.41799459618050605059,-8.43791009247108,-6.82233649708548,-297.145527512436
738509.41799468663521111012,-8.43791009247108,-6.82233649708548,-297.163991210669
738509.41799477708991616964,-8.42867824335459,-6.83156834620197,-297.13629566332
738509.41799486742820590734,-8.43791009247108,-6.83156834620197,-297.182454908902
738509.41799495788291096687,-8.43791009247108,-6.83156834620197,-297.182454908902
738509.41799504822120070457,-8.43791009247108,-6.83156834620197,-297.145527512436
738509.41799513867590576410,-8.43791009247108,-6.83156834620197,-297.210150456252
738509.41799522913061082363,-8.43791009247108,-6.82233649708548,-297.099368266854
738509.41799531946890056133,-8.43791009247108,-6.83156834620197,-297.145527512436
738509.41799540992360562086,-8.44714194158757,-6.83156834620197,-297.163991210669
738509.41799550026189535856,-8.42867824335459,-6.82233649708548,-297.200918607135
738509.41799559071660041809,-8.4194463942381,-6.82233649708548,-297.182454908902
738509.41799568117130547762,-8.42867824335459,-6.82233649708548,-297.10860011597
738509.41799577150959521532,-8.43791009247108,-6.82233649708548,-297.145527512436
738509.41799586196430027485,-8.42867824335459,-6.81310464796899,-297.025513473922
738509.41799595230259001255,-8.41021454512162,-6.81310464796899,-297.053209021271
738509.41799604275729507208,-8.38251899777215,-6.8038727988525,-297.191686758019
738509.41799613309558480978,-8.3363597521897,-6.8038727988525,-297.163991210669
738509.41799622355028986931,-8.32712790307321,-6.77617725150304,-297.117831965087
738509.41799631400499492884,-8.27173680837428,-6.77617725150304,-297.173223059786
738509.41799640434328466654,-8.2532731101413,-6.78540910061953,-297.154759361553
738509.41799649479798972607,-8.22557756279183,-6.78540910061953,-297.191686758019
738509.41799658513627946377,-8.23480941190832,-6.78540910061953,-297.071672719504
738509.41799667559098452330,-8.2532731101413,-6.78540910061953,-297.127063814203
738509.41799676604568958282,-8.26250495925779,-6.79464094973601,-297.173223059786
738509.41799685638397932053,-8.30866420484024,-6.78540910061953,-297.13629566332
738509.41799694683868438005,-8.38251899777215,-6.79464094973601,-297.080904568621
738509.41799703717697411776,-8.45637379070406,-6.81310464796899,-297.127063814203
738509.41799712763167917728,-8.47483748893704,-6.83156834620197,-297.191686758019
738509.41799721808638423681,-8.49330118717002,-6.83156834620197,-297.099368266854
738509.41799730842467397451,-8.49330118717002,-6.82233649708548,-297.145527512436
738509.41799739887937903404,-8.50253303628651,-6.83156834620197,-297.13629566332
738509.41799748921766877174,-8.511764885403,-6.85003204443495,-297.13629566332
738509.41799757967237383127,-8.52099673451949,-6.85003204443495,-297.10860011597
738509.41799767012707889080,-8.511764885403,-6.84080019531846,-297.163991210669
738509.41799776046536862850,-8.54869228186895,-6.84080019531846,-297.13629566332
738509.41799785092007368803,-8.66870632038331,-6.84080019531846,-297.080904568621
738509.41799794125836342573,-8.56715598010193,-6.77617725150304,-297.071672719504
738509.41799803171306848526,-7.94862208929716,-6.68385876033815,-296.988586077456
738509.41799812216777354479,-7.4870296334727,-6.5546128727073,-296.905499435408
738509.41799821250606328249,-7.20084231086154,-6.58230842005676,-296.95165868099
738509.41799830296076834202,-7.53318887905515,-6.49922177800836,-296.923963133641
738509.41799839329905807972,-8.53946043275246,-6.56384472182379,-297.025513473922
738509.41799848375376313925,-8.63177892391736,-6.67462691122166,-297.10860011597
738509.41799857409205287695,-8.53022858363597,-6.74848170415357,-297.10860011597
738509.41799866454675793648,-8.52099673451949,-6.78540910061953,-297.127063814203
738509.41799875500146299601,-8.55792413098544,-6.83156834620197,-297.062440870388
738509.41799884533975273371,-8.55792413098544,-6.85003204443495,-297.090136417737
738509.41799893579445779324,-8.56715598010193,-6.85926389355144,-297.043977172155
738509.41799902613274753094,-8.55792413098544,-6.85003204443495,-297.080904568621
738509.41799911658745259047,-8.55792413098544,-6.84080019531846,-297.034745323038
738509.41799920704215764999,-8.54869228186895,-6.84080019531846,-297.043977172155
738509.41799929738044738770,-8.54869228186895,-6.84080019531846,-297.043977172155
738509.41799938783515244722,-8.52099673451949,-6.82233649708548,-296.942426831873
738509.41799947817344218493,-8.52099673451949,-6.82233649708548,-296.979354228339
738509.41799956862814724445,-8.52099673451949,-6.84080019531846,-297.062440870388
738509.41799965908285230398,-8.52099673451949,-6.82233649708548,-297.099368266854
738509.41799974942114204168,-8.53022858363597,-6.84080019531846,-297.099368266854
738509.41799983987584710121,-8.50253303628651,-6.81310464796899,-297.043977172155
738509.41799993021413683891,-8.49330118717002,-6.8038727988525,-297.062440870388
738509.41800002066884189844,-8.47483748893704,-6.79464094973601,-297.025513473922
738509.41800011112354695797,-8.46560563982055,-6.77617725150304,-297.025513473922
738509.41800020146183669567,-8.44714194158757,-6.76694540238655,-297.071672719504
738509.41800029191654175520,-8.44714194158757,-6.73924985503708,-296.988586077456
738509.41800038225483149290,-8.4194463942381,-6.7207861568041,-297.025513473922
738509.41800047270953655243,-8.39175084688864,-6.70232245857112,-297.016281624805
738509.41800056304782629013,-8.37328714865566,-6.69309060945463,-297.062440870388
738509.41800065350253134966,-8.34559160130619,-6.67462691122166,-297.053209021271
738509.41800074395723640919,-8.36405529953917,-6.67462691122166,-297.053209021271
738509.41800083429552614689,-8.3363597521897,-6.66539506210517,-297.043977172155
738509.41800092475023120642,-8.3363597521897,-6.67462691122166,-297.016281624805
738509.41800101508852094412,-8.3363597521897,-6.68385876033815,-297.053209021271
738509.41800110554322600365,-8.32712790307321,-6.71155430768761,-297.043977172155
738509.41800119599793106318,-8.34559160130619,-6.73924985503708,-296.979354228339
738509.41800128633622080088,-8.39175084688864,-6.78540910061953,-296.979354228339
738509.41800137679092586040,-8.40098269600513,-6.79464094973601,-296.979354228339
738509.41800146712921559811,-8.42867824335459,-6.81310464796899,-296.970122379223
738509.41800155758392065763,-8.43791009247108,-6.83156834620197,-296.988586077456
738509.41800164803862571716,-8.47483748893704,-6.84080019531846,-297.007049775689
738509.41800173837691545486,-8.45637379070406,-6.84080019531846,-297.053209021271
738509.41800182883162051439,-8.48406933805353,-6.84080019531846,-297.007049775689
738509.41800191916991025209,-8.47483748893704,-6.84080019531846,-297.062440870388
738509.41800200962461531162,-8.49330118717002,-6.85003204443495,-297.053209021271
738509.41800210007932037115,-8.48406933805353,-6.85003204443495,-296.997817926572
738509.41800219041761010885,-8.49330118717002,-6.85926389355144,-297.043977172155
738509.41800228087231516838,-8.47483748893704,-6.84080019531846,-297.080904568621
738509.41800237121060490608,-8.47483748893704,-6.85003204443495,-296.997817926572
738509.41800246166530996561,-8.47483748893704,-6.85003204443495,-297.034745323038
738509.41800255212001502514,-8.48406933805353,-6.85003204443495,-297.025513473922
738509.41800264245830476284,-8.48406933805353,-6.84080019531846,-296.988586077456
738509.41800273291300982237,-8.45637379070406,-6.83156834620197,-296.979354228339
738509.41800282325129956007,-8.47483748893704,-6.85003204443495,-296.997817926572
738509.41800291370600461960,-8.48406933805353,-6.85003204443495,-296.960890530106
738509.41800300404429435730,-8.48406933805353,-6.84080019531846,-296.923963133641
738509.41800309449899941683,-8.46560563982055,-6.84080019531846,-297.007049775689
738509.41800318495370447636,-8.47483748893704,-6.84080019531846,-297.007049775689
738509.41800327529199421406,-8.47483748893704,-6.85003204443495,-297.007049775689
738509.41800336574669927359,-8.47483748893704,-6.84080019531846,-297.053209021271
738509.41800345608498901129,-8.47483748893704,-6.84080019531846,-297.080904568621
738509.41800354653969407082,-8.47483748893704,-6.84080019531846,-296.970122379223
738509.41800363699439913034,-8.49330118717002,-6.85926389355144,-297.043977172155
738509.41800372733268886805,-8.46560563982055,-6.84080019531846,-296.997817926572
738509.41800381778739392757,-8.4194463942381,-6.85003204443495,-297.016281624805
738509.41800390812568366528,-8.4194463942381,-6.85003204443495,-297.034745323038
738509.41800399858038872480,-8.39175084688864,-6.83156834620197,-297.053209021271
738509.41800408903509378433,-8.32712790307321,-6.81310464796899,-297.007049775689
738509.41800417937338352203,-8.32712790307321,-6.83156834620197,-297.025513473922
738509.41800426982808858156,-8.30866420484024,-6.82233649708548,-297.007049775689
738509.41800436016637831926,-8.31789605395672,-6.82233649708548,-297.016281624805
738509.41800445062108337879,-8.3363597521897,-6.82233649708548,-297.043977172155
738509.41800454107578843832,-8.38251899777215,-6.82233649708548,-296.997817926572
738509.41800463141407817602,-8.43791009247108,-6.82233649708548,-297.025513473922
738509.41800472186878323555,-8.511764885403,-6.84080019531846,-297.071672719504
738509.41800481220707297325,-8.55792413098544,-6.86849574266793,-297.034745323038
738509.41800490266177803278,-8.58561967833491,-6.88695944090091,-296.960890530106
738509.41800499311648309231,-8.57638782921842,-6.87772759178442,-297.034745323038
738509.41800508345477283001,-8.57638782921842,-6.85926389355144,-297.043977172155
738509.41800517390947788954,-8.57638782921842,-6.87772759178442,-297.043977172155
738509.41800526424776762724,-8.58561967833491,-6.87772759178442,-297.007049775689
738509.41800535470247268677,-8.57638782921842,-6.86849574266793,-297.034745323038
738509.41800544504076242447,-8.58561967833491,-6.84080019531846,-297.016281624805
738509.41800553549546748400,-8.72409741508225,-6.86849574266793,-296.997817926572
738509.41800562595017254353,-8.66870632038331,-6.83156834620197,-297.016281624805
738509.41800571628846228123,-8.09633167516098,-6.75771355327006,-296.942426831873
738509.41800580674316734076,-7.60704367198706,-6.60077211828974,-296.850108340709
738509.41800589708145707846,-7.31162450025941,-6.62846766563921,-296.896267586291
738509.41800598753616213799,-7.57934812463759,-6.5546128727073,-296.923963133641
738509.41800607799086719751,-8.5948515274514,-6.56384472182379,-296.923963133641
738509.41800616832915693521,-8.74256111331523,-6.7207861568041,-296.988586077456
738509.41800625878386199474,-8.6779381694998,-6.74848170415357,-297.016281624805
738509.41800634912215173244,-8.5948515274514,-6.8038727988525,-297.025513473922
738509.41800643957685679197,-8.60408337656789,-6.84080019531846,-296.970122379223
738509.41800653003156185150,-8.61331522568438,-6.85926389355144,-296.859340189825
738509.41800662036985158920,-8.58561967833491,-6.82233649708548,-297.025513473922
738509.41800671082455664873,-8.62254707480087,-6.88695944090091,-296.997817926572
738509.41800680116284638643,-8.63177892391736,-6.90542313913388,-296.933194982757
738509.41800689161755144596,-8.63177892391736,-6.88695944090091,-297.007049775689
738509.41800698207225650549,-8.64101077303384,-6.89619129001739,-297.007049775689
738509.41800707241054624319,-8.62254707480087,-6.89619129001739,-296.942426831873
738509.41800716286525130272,-8.60408337656789,-6.88695944090091,-296.970122379223
738509.41800725320354104042,-8.58561967833491,-6.85926389355144,-296.95165868099
738509.41800734365824609995,-8.57638782921842,-6.85926389355144,-296.933194982757
738509.41800743411295115948,-8.57638782921842,-6.85003204443495,-296.942426831873
738509.41800752445124089718,-8.55792413098544,-6.83156834620197,-296.923963133641
738509.41800761490594595671,-8.56715598010193,-6.83156834620197,-297.007049775689
738509.41800770524423569441,-8.54869228186895,-6.83156834620197,-296.942426831873
738509.41800779569894075394,-8.54869228186895,-6.83156834620197,-296.960890530106
738509.41800788603723049164,-8.50253303628651,-6.78540910061953,-296.960890530106
738509.41800797649193555117,-8.49330118717002,-6.76694540238655,-296.960890530106
738509.41800806694664061069,-8.46560563982055,-6.75771355327006,-297.016281624805
738509.41800815728493034840,-8.45637379070406,-6.74848170415357,-296.960890530106
738509.41800824773963540792,-8.44714194158757,-6.73001800592059,-296.942426831873
738509.41800833807792514563,-8.4194463942381,-6.71155430768761,-296.923963133641
738509.41800842853263020515,-8.41021454512162,-6.70232245857112,-296.905499435408
738509.41800851898733526468,-8.39175084688864,-6.69309060945463,-296.95165868099
738509.41800860932562500238,-8.39175084688864,-6.69309060945463,-296.95165868099
738509.41800869978033006191,-8.37328714865566,-6.70232245857112,-296.933194982757
738509.41800879011861979961,-8.38251899777215,-6.73001800592059,-296.942426831873
738509.41800888057332485914,-8.37328714865566,-6.74848170415357,-296.942426831873
738509.41800897102802991867,-8.41021454512162,-6.78540910061953,-296.905499435408
738509.41800906136631965637,-8.44714194158757,-6.83156834620197,-296.970122379223
738509.41800915182102471590,-8.45637379070406,-6.83156834620197,-296.997817926572
738509.41800924215931445360,-8.47483748893704,-6.85003204443495,-296.979354228339
738509.41800933261401951313,-8.50253303628651,-6.85926389355144,-296.970122379223
738509.41800942306872457266,-8.52099673451949,-6.86849574266793,-296.942426831873
738509.41800951340701431036,-8.53946043275246,-6.88695944090091,-296.933194982757
738509.41800960386171936989,-8.53022858363597,-6.88695944090091,-296.923963133641
738509.41800969420000910759,-8.511764885403,-6.86849574266793,-296.914731284524
738509.41800978465471416712,-8.50253303628651,-6.86849574266793,-296.979354228339
738509.41800987510941922665,-8.53946043275246,-6.89619129001739,-296.95165868099
738509.41800996544770896435,-8.52099673451949,-6.88695944090091,-296.813180944243
738509.41801005590241402388,-8.52099673451949,-6.88695944090091,-296.887035737175
738509.41801014624070376158,-8.53022858363597,-6.88695944090091,-296.979354228339
738509.41801023669540882111,-8.49330118717002,-6.86849574266793,-296.960890530106
738509.41801032703369855881,-8.511764885403,-6.87772759178442,-296.960890530106
738509.41801041748840361834,-8.511764885403,-6.88695944090091,-297.007049775689
738509.41801050794310867786,-8.50253303628651,-6.87772759178442,-296.997817926572
738509.41801059828139841557,-8.48406933805353,-6.85003204443495,-296.933194982757
738509.41801068873610347509,-8.511764885403,-6.87772759178442,-296.905499435408
738509.41801077907439321280,-8.50253303628651,-6.87772759178442,-296.905499435408
738509.41801086952909827232,-8.48406933805353,-6.85926389355144,-296.970122379223
738509.41801095998380333185,-8.50253303628651,-6.88695944090091,-296.988586077456
738509.41801105032209306955,-8.511764885403,-6.89619129001739,-296.914731284524
738509.41801114077679812908,-8.50253303628651,-6.87772759178442,-296.979354228339
738509.41801123111508786678,-8.48406933805353,-6.85926389355144,-296.997817926572
738509.41801132156979292631,-8.50253303628651,-6.88695944090091,-296.960890530106
738509.41801141202449798584,-8.50253303628651,-6.88695944090091,-296.960890530106
738509.41801150236278772354,-8.50253303628651,-6.87772759178442,-296.988586077456
738509.41801159281749278307,-8.50253303628651,-6.86849574266793,-296.988586077456
738509.41801168315578252077,-8.48406933805353,-6.87772759178442,-296.933194982757
738509.41801177361048758030,-8.45637379070406,-6.89619129001739,-297.025513473922
738509.41801186406519263983,-8.44714194158757,-6.88695944090091,-297.007049775689
738509.41801195440348237753,-8.42867824335459,-6.87772759178442,-296.997817926572
738509.41801204485818743706,-8.36405529953917,-6.85926389355144,-296.960890530106
738509.41801213519647717476,-8.31789605395672,-6.85003204443495,-296.960890530106
738509.41801222565118223429,-8.3363597521897,-6.87772759178442,-296.970122379223
738509.41801231610588729382,-8.32712790307321,-6.85926389355144,-296.914731284524
738509.41801240644417703152,-8.34559160130619,-6.85003204443495,-296.960890530106
738509.41801249689888209105,-8.40098269600513,-6.85926389355144,-296.905499435408
738509.41801258723717182875,-8.46560563982055,-6.85926389355144,-296.942426831873
738509.41801267769187688828,-8.53022858363597,-6.89619129001739,-296.970122379223
738509.41801276803016662598,-8.53022858363597,-6.89619129001739,-296.979354228339
738509.41801285848487168550,-8.54869228186895,-6.89619129001739,-296.979354228339
738509.41801294893957674503,-8.57638782921842,-6.91465498825037,-297.025513473922
738509.41801303927786648273,-8.57638782921842,-6.92388683736686,-297.016281624805
738509.41801312973257154226,-8.57638782921842,-6.91465498825037,-296.95165868099
738509.41801322007086127996,-8.58561967833491,-6.92388683736686,-297.007049775689
738509.41801331052556633949,-8.57638782921842,-6.91465498825037,-297.007049775689
738509.41801340098027139902,-8.62254707480087,-6.91465498825037,-296.997817926572
738509.41801349131856113672,-8.73332926419874,-6.91465498825037,-296.803949095126
738509.41801358177326619625,-8.65024262215033,-6.85003204443495,-296.905499435408
738509.41801367211155593395,-8.05017242957854,-6.73924985503708,-296.933194982757
738509.41801376256626099348,-7.60704367198706,-6.60077211828974,-296.831644642476
738509.41801385302096605301,-7.45010223700674,-6.61000396740623,-296.877803888058
738509.41801394335925579071,-7.43163853877377,-6.57307657094027,-296.877803888058
738509.41801403381396085024,-8.23480941190832,-6.42536698507645,-296.887035737175
738509.41801412415225058794,-8.73332926419874,-6.67462691122166,-296.95165868099
738509.41801421460695564747,-8.64101077303384,-6.79464094973601,-297.016281624805
738509.41801430506166070700,-8.60408337656789,-6.86849574266793,-296.988586077456
738509.41801439539995044470,-8.62254707480087,-6.92388683736686,-296.933194982757
738509.41801448585465550423,-8.62254707480087,-6.91465498825037,-296.997817926572
738509.41801457619294524193,-8.63177892391736,-6.92388683736686,-296.988586077456
738509.41801466664765030146,-8.62254707480087,-6.93311868648335,-296.970122379223
738509.41801475710235536098,-8.62254707480087,-6.93311868648335,-296.95165868099
738509.41801484744064509869,-8.60408337656789,-6.92388683736686,-296.933194982757
738509.41801493789535015821,-8.5948515274514,-6.91465498825037,-296.914731284524
738509.41801502823363989592,-8.56715598010193,-6.89619129001739,-296.905499435408
738509.41801511868834495544,-8.56715598010193,-6.88695944090091,-296.923963133641
738509.41801520902663469315,-8.55792413098544,-6.88695944090091,-296.988586077456
738509.41801529948133975267,-8.58561967833491,-6.91465498825037,-296.942426831873
738509.41801538993604481220,-8.57638782921842,-6.90542313913388,-296.914731284524
738509.41801548027433454990,-8.57638782921842,-6.89619129001739,-296.896267586291
738509.41801557072903960943,-8.56715598010193,-6.90542313913388,-296.979354228339
738509.41801566106732934713,-8.53946043275246,-6.87772759178442,-296.905499435408
738509.41801575152203440666,-8.53946043275246,-6.86849574266793,-296.896267586291
738509.41801584197673946619,-8.50253303628651,-6.85003204443495,-296.942426831873
738509.41801593231502920389,-8.47483748893704,-6.81310464796899,-296.923963133641
738509.41801602276973426342,-8.44714194158757,-6.79464094973601,-296.979354228339
738509.41801611310802400112,-8.43791009247108,-6.77617725150304,-296.896267586291
738509.41801620356272906065,-8.4194463942381,-6.75771355327006,-296.923963133641
738509.41801629401743412018,-8.41021454512162,-6.76694540238655,-296.914731284524
738509.41801638435572385788,-8.38251899777215,-6.73924985503708,-296.933194982757
738509.41801647481042891741,-8.37328714865566,-6.73001800592059,-296.933194982757
738509.41801656514871865511,-8.34559160130619,-6.7207861568041,-296.979354228339
738509.41801665560342371464,-8.34559160130619,-6.73001800592059,-296.960890530106
738509.41801674605812877417,-8.3363597521897,-6.73924985503708,-296.914731284524
738509.41801683639641851187,-8.35482345042268,-6.77617725150304,-296.970122379223
738509.41801692685112357140,-8.40098269600513,-6.84080019531846,-296.970122379223
738509.41801701718941330910,-8.4194463942381,-6.85926389355144,-296.776253547777
738509.41801710764411836863,-8.44714194158757,-6.88695944090091,-296.850108340709
738509.41801719798240810633,-8.45637379070406,-6.88695944090091,-296.942426831873
738509.41801728843711316586,-8.48406933805353,-6.90542313913388,-296.960890530106
738509.41801737889181822538,-8.48406933805353,-6.90542313913388,-296.979354228339
738509.41801746923010796309,-8.50253303628651,-6.91465498825037,-296.988586077456
738509.41801755968481302261,-8.49330118717002,-6.91465498825037,-297.016281624805
738509.41801765002310276031,-8.50253303628651,-6.91465498825037,-296.979354228339
738509.41801774047780781984,-8.50253303628651,-6.91465498825037,-296.960890530106
738509.41801783093251287937,-8.48406933805353,-6.89619129001739,-297.007049775689
738509.41801792127080261707,-8.46560563982055,-6.88695944090091,-296.997817926572
738509.41801801172550767660,-8.49330118717002,-6.91465498825037,-296.942426831873
738509.41801810206379741430,-8.49330118717002,-6.91465498825037,-297.007049775689
738509.41801819251850247383,-8.49330118717002,-6.90542313913388,-297.007049775689
738509.41801828297320753336,-8.47483748893704,-6.90542313913388,-296.960890530106
738509.41801837331149727106,-8.48406933805353,-6.90542313913388,-297.016281624805
738509.41801846376620233059,-8.48406933805353,-6.90542313913388,-296.997817926572
738509.41801855410449206829,-8.49330118717002,-6.91465498825037,-296.979354228339
738509.41801864455919712782,-8.49330118717002,-6.91465498825037,-297.007049775689
738509.41801873501390218735,-8.47483748893704,-6.90542313913388,-297.025513473922
738509.41801882535219192505,-8.46560563982055,-6.89619129001739,-296.979354228339
738509.41801891580689698458,-8.47483748893704,-6.90542313913388,-296.997817926572
738509.41801900614518672228,-8.47483748893704,-6.90542313913388,-296.933194982757
738509.41801909659989178181,-8.46560563982055,-6.90542313913388,-296.979354228339
738509.41801918705459684134,-8.46560563982055,-6.88695944090091,-297.016281624805
738509.41801927739288657904,-8.47483748893704,-6.90542313913388,-296.923963133641
738509.41801936784759163857,-8.48406933805353,-6.91465498825037,-296.914731284524
738509.41801945818588137627,-8.46560563982055,-6.89619129001739,-296.914731284524
738509.41801954864058643579,-8.48406933805353,-6.91465498825037,-296.896267586291
738509.41801963897887617350,-8.52099673451949,-6.94235053559984,-296.905499435408
738509.41801972943358123302,-8.49330118717002,-6.92388683736686,-296.914731284524
738509.41801981988828629255,-8.44714194158757,-6.89619129001739,-296.923963133641
738509.41801991022657603025,-8.41021454512162,-6.90542313913388,-296.95165868099
738509.41802000068128108978,-8.40098269600513,-6.88695944090091,-296.979354228339
738509.41802009101957082748,-8.34559160130619,-6.86849574266793,-296.923963133641
738509.41802018147427588701,-8.32712790307321,-6.86849574266793,-296.960890530106
738509.41802027192898094654,-8.30866420484024,-6.87772759178442,-297.007049775689
738509.41802036226727068424,-8.32712790307321,-6.87772759178442,-297.007049775689
738509.41802045272197574377,-8.3363597521897,-6.85926389355144,-297.016281624805
738509.41802054306026548147,-8.37328714865566,-6.86849574266793,-296.840876491592
738509.41802063351497054100,-8.45637379070406,-6.88695944090091,-296.896267586291
738509.41802072396967560053,-8.511764885403,-6.89619129001739,-296.942426831873
738509.41802081430796533823,-8.53022858363597,-6.93311868648335,-296.988586077456
738509.41802090476267039776,-8.55792413098544,-6.93311868648335,-296.960890530106
738509.41802099510096013546,-8.54869228186895,-6.93311868648335,-296.979354228339
738509.41802108555566519499,-8.55792413098544,-6.93311868648335,-296.979354228339
738509.41802117601037025452,-8.55792413098544,-6.93311868648335,-296.988586077456
738509.41802126634865999222,-8.55792413098544,-6.94235053559984,-296.979354228339
738509.41802135680336505175,-8.55792413098544,-6.94235053559984,-296.923963133641
738509.41802144714165478945,-8.56715598010193,-6.93311868648335,-296.997817926572
738509.41802153759635984898,-8.63177892391736,-6.94235053559984,-297.034745323038
738509.41802162805106490850,-8.71486556596576,-6.86849574266793,-297.025513473922
738509.41802171838935464621,-8.39175084688864,-6.81310464796899,-296.905499435408
738509.41802180884405970573,-7.83783989989929,-6.67462691122166,-296.914731284524
738509.41802189918234944344,-7.4870296334727,-6.61000396740623,-296.896267586291
738509.41802198963705450296,-7.45933408612323,-6.59154026917325,-296.877803888058
738509.41802207997534424067,-8.23480941190832,-6.43459883419294,-296.896267586291
738509.41802217043004930019,-8.74256111331523,-6.68385876033815,-296.997817926572
738509.41802226088475435972,-8.64101077303384,-6.79464094973601,-296.988586077456
738509.41802235122304409742,-8.57638782921842,-6.86849574266793,-296.960890530106
738509.41802244167774915695,-8.58561967833491,-6.90542313913388,-297.016281624805
738509.41802253201603889465,-8.5948515274514,-6.93311868648335,-297.007049775689
738509.41802262247074395418,-8.60408337656789,-6.94235053559984,-296.970122379223
738509.41802271292544901371,-8.58561967833491,-6.93311868648335,-296.988586077456
738509.41802280326373875141,-8.58561967833491,-6.94235053559984,-297.016281624805
738509.41802289371844381094,-8.58561967833491,-6.93311868648335,-296.988586077456
738509.41802298405673354864,-8.56715598010193,-6.92388683736686,-296.988586077456
738509.41802307451143860817,-8.58561967833491,-6.94235053559984,-296.997817926572
738509.41802316496614366770,-8.57638782921842,-6.93311868648335,-297.016281624805
738509.41802325530443340540,-8.56715598010193,-6.93311868648335,-296.95165868099
738509.41802334575913846493,-8.56715598010193,-6.93311868648335,-297.007049775689
738509.41802343609742820263,-8.56715598010193,-6.92388683736686,-297.007049775689
738509.41802352655213326216,-8.53946043275246,-6.91465498825037,-297.007049775689
738509.41802361700683832169,-8.53022858363597,-6.89619129001739,-296.970122379223
738509.41802370734512805939,-8.53022858363597,-6.89619129001739,-296.988586077456
738509.41802379779983311892,-8.52099673451949,-6.87772759178442,-296.95165868099
738509.41802388813812285662,-8.50253303628651,-6.86849574266793,-296.896267586291
738509.41802397859282791615,-8.48406933805353,-6.84080019531846,-296.905499435408
738509.41802406904753297567,-8.46560563982055,-6.82233649708548,-296.813180944243
738509.41802415938582271338,-8.44714194158757,-6.8038727988525,-296.76702169866
738509.41802424984052777290,-8.4194463942381,-6.77617725150304,-296.896267586291
738509.41802434017881751060,-8.37328714865566,-6.73924985503708,-296.933194982757
738509.41802443063352257013,-8.36405529953917,-6.73001800592059,-296.923963133641
738509.41802452097181230783,-8.36405529953917,-6.74848170415357,-296.95165868099
738509.41802461142651736736,-8.35482345042268,-6.73924985503708,-296.979354228339
738509.41802470188122242689,-8.34559160130619,-6.73924985503708,-296.960890530106
738509.41802479221951216459,-8.35482345042268,-6.76694540238655,-296.923963133641
738509.41802488267421722412,-8.34559160130619,-6.78540910061953,-296.942426831873
738509.41802497301250696182,-8.38251899777215,-6.82233649708548,-296.923963133641
738509.41802506346721202135,-8.41021454512162,-6.85003204443495,-296.970122379223
738509.41802515392191708088,-8.44714194158757,-6.88695944090091,-296.970122379223
738509.41802524426020681858,-8.47483748893704,-6.91465498825037,-296.95165868099
738509.41802533471491187811,-8.48406933805353,-6.90542313913388,-296.95165868099
738509.41802542505320161581,-8.48406933805353,-6.90542313913388,-296.960890530106
738509.41802551550790667534,-8.49330118717002,-6.91465498825037,-296.979354228339
738509.41802560596261173487,-8.49330118717002,-6.91465498825037,-296.960890530106
738509.41802569630090147257,-8.50253303628651,-6.91465498825037,-297.007049775689
738509.41802578675560653210,-8.52099673451949,-6.92388683736686,-296.95165868099
738509.41802587709389626980,-8.511764885403,-6.92388683736686,-296.988586077456
738509.41802596754860132933,-8.511764885403,-6.92388683736686,-296.988586077456
738509.41802605800330638885,-8.49330118717002,-6.90542313913388,-297.007049775689
738509.41802614834159612656,-8.511764885403,-6.91465498825037,-296.988586077456
738509.41802623879630118608,-8.50253303628651,-6.91465498825037,-297.043977172155
738509.41802632913459092379,-8.511764885403,-6.91465498825037,-296.960890530106
738509.41802641958929598331,-8.49330118717002,-6.91465498825037,-297.016281624805
738509.41802651004400104284,-8.50253303628651,-6.91465498825037,-297.025513473922
738509.41802660038229078054,-8.511764885403,-6.92388683736686,-296.95165868099
738509.41802669083699584007,-8.511764885403,-6.91465498825037,-296.997817926572
738509.41802678117528557777,-8.50253303628651,-6.91465498825037,-297.025513473922
738509.41802687162999063730,-8.511764885403,-6.91465498825037,-296.997817926572
738509.41802696196828037500,-8.48406933805353,-6.91465498825037,-297.007049775689
738509.41802705242298543453,-8.48406933805353,-6.89619129001739,-297.053209021271
738509.41802714287769049406,-8.49330118717002,-6.91465498825037,-297.016281624805
738509.41802723321598023176,-8.50253303628651,-6.92388683736686,-296.970122379223
738509.41802732367068529129,-8.52099673451949,-6.93311868648335,-297.007049775689
738509.41802741400897502899,-8.50253303628651,-6.92388683736686,-297.025513473922
738509.41802750446368008852,-8.511764885403,-6.91465498825037,-297.007049775689
738509.41802759491838514805,-8.46560563982055,-6.92388683736686,-296.905499435408
738509.41802768525667488575,-8.44714194158757,-6.92388683736686,-296.887035737175
738509.41802777571137994528,-8.41021454512162,-6.89619129001739,-297.025513473922
738509.41802786604966968298,-8.35482345042268,-6.87772759178442,-297.062440870388
738509.41802795650437474251,-8.32712790307321,-6.87772759178442,-297.016281624805
738509.41802804695907980204,-8.32712790307321,-6.87772759178442,-297.016281624805
738509.41802813729736953974,-8.35482345042268,-6.88695944090091,-296.997817926572
738509.41802822775207459927,-8.36405529953917,-6.87772759178442,-296.970122379223
738509.41802831809036433697,-8.4194463942381,-6.88695944090091,-296.970122379223
738509.41802840854506939650,-8.49330118717002,-6.88695944090091,-296.933194982757
738509.41802849899977445602,-8.56715598010193,-6.93311868648335,-296.960890530106
738509.41802858933806419373,-8.57638782921842,-6.94235053559984,-296.95165868099
738509.41802867979276925325,-8.5948515274514,-6.95158238471633,-296.960890530106
738509.41802877013105899096,-8.5948515274514,-6.94235053559984,-296.988586077456
738509.41802886058576405048,-8.60408337656789,-6.95158238471633,-296.942426831873
738509.41802895104046911001,-8.5948515274514,-6.94235053559984,-296.960890530106
738509.41802904137875884771,-8.60408337656789,-6.94235053559984,-296.979354228339
738509.41802913183346390724,-8.5948515274514,-6.95158238471633,-296.95165868099
738509.41802922217175364494,-8.61331522568438,-6.94235053559984,-297.007049775689
738509.41802931262645870447,-8.72409741508225,-6.95158238471633,-297.016281624805
738509.41802940296474844217,-8.73332926419874,-6.86849574266793,-296.997817926572
738509.41802949341945350170,-8.23480941190832,-6.78540910061953,-296.914731284524
738509.41802958387415856123,-7.76398510696738,-6.65616321298868,-296.923963133641
738509.41802967421244829893,-7.45010223700674,-6.66539506210517,-296.905499435408
738509.41802976466715335846,-7.65320291756951,-6.52691732535783,-296.896267586291
738509.41802985500544309616,-8.5948515274514,-6.49922177800836,-296.960890530106
738509.41802994546014815569,-8.75179296243171,-6.69309060945463,-297.034745323038
738509.41803003591485321522,-8.63177892391736,-6.82233649708548,-296.970122379223
738509.41803012625314295292,-8.62254707480087,-6.89619129001739,-297.034745323038
738509.41803021670784801245,-8.64101077303384,-6.93311868648335,-297.053209021271
738509.41803030704613775015,-8.65947447126682,-6.95158238471633,-297.053209021271
738509.41803039750084280968,-8.65024262215033,-6.95158238471633,-297.034745323038
738509.41803048795554786921,-8.65947447126682,-6.95158238471633,-297.025513473922
738509.41803057829383760691,-8.65947447126682,-6.95158238471633,-297.034745323038
738509.41803066874854266644,-8.64101077303384,-6.94235053559984,-297.043977172155
738509.41803075908683240414,-8.65024262215033,-6.96081423383282,-297.080904568621
738509.41803084954153746367,-8.63177892391736,-6.95158238471633,-297.034745323038
738509.41803093999624252319,-8.61331522568438,-6.93311868648335,-297.053209021271
738509.41803103033453226089,-8.60408337656789,-6.92388683736686,-297.071672719504
738509.41803112078923732042,-8.61331522568438,-6.92388683736686,-296.988586077456
738509.41803121112752705812,-8.60408337656789,-6.91465498825037,-296.923963133641
738509.41803130158223211765,-8.58561967833491,-6.90542313913388,-297.025513473922
738509.41803139203693717718,-8.58561967833491,-6.90542313913388,-297.034745323038
738509.41803148237522691488,-8.55792413098544,-6.88695944090091,-296.970122379223
738509.41803157282993197441,-8.55792413098544,-6.89619129001739,-297.053209021271
738509.41803166316822171211,-8.55792413098544,-6.88695944090091,-297.034745323038
738509.41803175362292677164,-8.53946043275246,-6.85003204443495,-296.960890530106
738509.41803184396121650934,-8.50253303628651,-6.82233649708548,-297.043977172155
738509.41803193441592156887,-8.49330118717002,-6.8038727988525,-297.043977172155
738509.41803202487062662840,-8.46560563982055,-6.78540910061953,-297.016281624805
738509.41803211520891636610,-8.44714194158757,-6.74848170415357,-296.997817926572
738509.41803220566362142563,-8.4194463942381,-6.73924985503708,-297.025513473922
738509.41803229600191116333,-8.43791009247108,-6.74848170415357,-296.960890530106
738509.41803238645661622286,-8.42867824335459,-6.74848170415357,-296.979354228339
738509.41803247691132128239,-8.42867824335459,-6.76694540238655,-296.960890530106
738509.41803256724961102009,-8.43791009247108,-6.79464094973601,-296.942426831873
738509.41803265770431607962,-8.46560563982055,-6.84080019531846,-296.933194982757
738509.41803274804260581732,-8.47483748893704,-6.86849574266793,-296.95165868099
738509.41803283849731087685,-8.511764885403,-6.88695944090091,-296.933194982757
738509.41803292895201593637,-8.52099673451949,-6.90542313913388,-296.95165868099
738509.41803301929030567408,-8.53946043275246,-6.91465498825037,-296.979354228339
738509.41803310974501073360,-8.55792413098544,-6.92388683736686,-297.016281624805
738509.41803320008330047131,-8.55792413098544,-6.92388683736686,-296.997817926572
738509.41803329053800553083,-8.5948515274514,-6.95158238471633,-297.062440870388
738509.41803338099271059036,-8.58561967833491,-6.95158238471633,-297.071672719504
738509.41803347133100032806,-8.58561967833491,-6.95158238471633,-297.016281624805
738509.41803356178570538759,-8.5948515274514,-6.95158238471633,-297.071672719504
738509.41803365212399512529,-8.57638782921842,-6.93311868648335,-296.970122379223
738509.41803374257870018482,-8.58561967833491,-6.94235053559984,-297.034745323038
738509.41803383291698992252,-8.61331522568438,-6.96081423383282,-297.034745323038
738509.41803392337169498205,-8.58561967833491,-6.94235053559984,-297.090136417737
738509.41803401382640004158,-8.56715598010193,-6.92388683736686,-297.053209021271
738509.41803410416468977928,-8.58561967833491,-6.94235053559984,-296.988586077456
738509.41803419461939483881,-8.57638782921842,-6.93311868648335,-297.053209021271
738509.41803428495768457651,-8.57638782921842,-6.93311868648335,-297.043977172155
738509.41803437541238963604,-8.54869228186895,-6.89619129001739,-296.997817926572
738509.41803446586709469557,-8.58561967833491,-6.94235053559984,-297.053209021271
738509.41803455620538443327,-8.58561967833491,-6.95158238471633,-297.062440870388
738509.41803464666008949280,-8.5948515274514,-6.94235053559984,-296.850108340709
738509.41803473699837923050,-8.5948515274514,-6.94235053559984,-296.868572038942
738509.41803482745308429003,-8.5948515274514,-6.94235053559984,-297.053209021271
738509.41803491790778934956,-8.58561967833491,-6.92388683736686,-297.090136417737
738509.41803500824607908726,-8.5948515274514,-6.92388683736686,-297.007049775689
738509.41803509870078414679,-8.58561967833491,-6.93311868648335,-297.080904568621
738509.41803518903907388449,-8.54869228186895,-6.90542313913388,-297.099368266854
738509.41803527949377894402,-8.511764885403,-6.91465498825037,-297.071672719504
738509.41803536994848400354,-8.53022858363597,-6.93311868648335,-297.053209021271
738509.41803546028677374125,-8.48406933805353,-6.91465498825037,-297.062440870388
738509.41803555074147880077,-8.44714194158757,-6.90542313913388,-297.10860011597
738509.41803564107976853848,-8.42867824335459,-6.91465498825037,-297.016281624805
738509.41803573153447359800,-8.45637379070406,-6.90542313913388,-297.099368266854
738509.41803582198917865753,-8.45637379070406,-6.89619129001739,-297.099368266854
738509.41803591232746839523,-8.49330118717002,-6.88695944090091,-297.007049775689
738509.41803600278217345476,-8.55792413098544,-6.88695944090091,-297.080904568621
738509.41803609312046319246,-8.64101077303384,-6.90542313913388,-297.090136417737
738509.41803618357516825199,-8.65947447126682,-6.92388683736686,-297.080904568621
738509.41803627391345798969,-8.68717001861629,-6.93311868648335,-297.053209021271
738509.41803636436816304922,-8.71486556596576,-6.96081423383282,-297.10860011597
738509.41803645482286810875,-8.71486556596576,-6.95158238471633,-297.099368266854
738509.41803654516115784645,-8.73332926419874,-6.97004608294931,-297.034745323038
738509.41803663561586290598,-8.70563371684927,-6.96081423383282,-297.080904568621
738509.41803672595415264368,-8.71486556596576,-6.95158238471633,-297.099368266854
738509.41803681640885770321,-8.72409741508225,-6.95158238471633,-297.127063814203
738509.41803690686356276274,-8.77948850978118,-6.94235053559984,-296.997817926572
738509.41803699720185250044,-8.90873439741203,-6.92388683736686,-297.080904568621
738509.41803708765655755997,-8.52099673451949,-6.85003204443495,-297.043977172155
738509.41803717799484729767,-7.94862208929716,-6.68385876033815,-296.95165868099
738509.41803726844955235720,-7.56088442640461,-6.60077211828974,-296.970122379223
738509.41803735890425741673,-7.47779778435621,-6.56384472182379,-297.025513473922
738509.41803744924254715443,-8.42867824335459,-6.52691732535783,-297.025513473922
738509.41803753969725221395,-8.94566179387799,-6.75771355327006,-297.062440870388
738509.41803763003554195166,-8.84411145359661,-6.8038727988525,-297.090136417737
738509.41803772049024701118,-8.77948850978118,-6.86849574266793,-297.10860011597
738509.41803781094495207071,-8.77025666066469,-6.91465498825037,-297.034745323038
738509.41803790128324180841,-8.77948850978118,-6.92388683736686,-297.053209021271
738509.41803799173794686794,-8.78872035889767,-6.94235053559984,-297.062440870388
738509.41803808207623660564,-8.77948850978118,-6.93311868648335,-296.997817926572
738509.41803817253094166517,-8.75179296243171,-6.91465498825037,-296.896267586291
738509.41803826298564672470,-8.75179296243171,-6.91465498825037,-296.979354228339
738509.41803835332393646240,-8.80718405713065,-6.96081423383282,-297.090136417737
738509.41803844377864152193,-8.78872035889767,-6.95158238471633,-297.080904568621
738509.41803853411693125963,-8.7610248115482,-6.93311868648335,-297.071672719504
738509.41803862457163631916,-8.77025666066469,-6.93311868648335,-297.053209021271
738509.41803871490992605686,-8.7610248115482,-6.90542313913388,-297.080904568621
738509.41803880536463111639,-8.77025666066469,-6.92388683736686,-297.062440870388
738509.41803889581933617592,-8.75179296243171,-6.89619129001739,-297.127063814203
738509.41803898615762591362,-8.74256111331523,-6.89619129001739,-297.10860011597
738509.41803907661233097315,-8.72409741508225,-6.87772759178442,-297.062440870388
738509.41803916695062071085,-8.69640186773278,-6.85003204443495,-297.090136417737
738509.41803925740532577038,-8.71486556596576,-6.85003204443495,-297.099368266854
738509.41803934786003082991,-8.71486556596576,-6.87772759178442,-297.080904568621
738509.41803943819832056761,-8.69640186773278,-6.83156834620197,-297.090136417737
738509.41803952865302562714,-8.65947447126682,-6.8038727988525,-297.090136417737
738509.41803961899131536484,-8.65024262215033,-6.79464094973601,-297.090136417737
738509.41803970944602042437,-8.63177892391736,-6.78540910061953,-297.007049775689
738509.41803979990072548389,-8.61331522568438,-6.77617725150304,-297.053209021271
738509.41803989023901522160,-8.58561967833491,-6.75771355327006,-297.117831965087
738509.41803998069372028112,-8.56715598010193,-6.74848170415357,-297.10860011597
738509.41804007103201001883,-8.55792413098544,-6.73924985503708,-297.016281624805
738509.41804016148671507835,-8.54869228186895,-6.73924985503708,-297.080904568621
738509.41804025194142013788,-8.56715598010193,-6.78540910061953,-297.127063814203
738509.41804034227970987558,-8.60408337656789,-6.83156834620197,-297.016281624805
738509.41804043273441493511,-8.65947447126682,-6.87772759178442,-297.053209021271
738509.41804052307270467281,-8.65947447126682,-6.89619129001739,-297.062440870388
738509.41804061352740973234,-8.69640186773278,-6.92388683736686,-297.043977172155
738509.41804070398211479187,-8.70563371684927,-6.94235053559984,-297.016281624805
738509.41804079432040452957,-8.71486556596576,-6.91465498825037,-297.016281624805
738509.41804088477510958910,-8.71486556596576,-6.92388683736686,-297.025513473922
738509.41804097511339932680,-8.71486556596576,-6.91465498825037,-297.007049775689
738509.41804106556810438633,-8.69640186773278,-6.88695944090091,-297.016281624805
738509.41804115590639412403,-8.65947447126682,-6.85003204443495,-297.007049775689
738509.41804124636109918356,-8.71486556596576,-6.90542313913388,-297.071672719504
738509.41804133681580424309,-8.75179296243171,-6.94235053559984,-297.099368266854
738509.41804142715409398079,-8.71486556596576,-6.90542313913388,-297.099368266854
738509.41804151760879904032,-8.70563371684927,-6.91465498825037,-297.007049775689
738509.41804160794708877802,-8.73332926419874,-6.93311868648335,-297.090136417737
738509.41804169840179383755,-8.71486556596576,-6.91465498825037,-296.942426831873
738509.41804178885649889708,-8.70563371684927,-6.90542313913388,-296.979354228339
738509.41804187919478863478,-8.70563371684927,-6.88695944090091,-297.127063814203
738509.41804196964949369431,-8.6779381694998,-6.85926389355144,-297.090136417737
738509.41804205998778343201,-8.66870632038331,-6.86849574266793,-297.053209021271
738509.41804215044248849154,-8.68717001861629,-6.88695944090091,-297.053209021271
738509.41804224089719355106,-8.69640186773278,-6.91465498825037,-297.080904568621
738509.41804233123548328876,-8.64101077303384,-6.89619129001739,-297.080904568621
738509.41804242169018834829,-8.62254707480087,-6.88695944090091,-297.090136417737
738509.41804251202847808599,-8.60408337656789,-6.86849574266793,-297.062440870388
738509.41804260248318314552,-8.54869228186895,-6.86849574266793,-297.13629566332
738509.41804269293788820505,-8.53022858363597,-6.86849574266793,-297.099368266854
738509.41804278327617794275,-8.49330118717002,-6.86849574266793,-297.10860011597
738509.41804287373088300228,-8.50253303628651,-6.85926389355144,-297.099368266854
738509.41804296406917273998,-8.48406933805353,-6.82233649708548,-297.025513473922
738509.41804305452387779951,-8.54869228186895,-6.83156834620197,-297.034745323038
738509.41804314497858285904,-8.65947447126682,-6.86849574266793,-297.090136417737
738509.41804323531687259674,-8.72409741508225,-6.91465498825037,-297.099368266854
738509.41804332577157765627,-8.77025666066469,-6.93311868648335,-296.997817926572
738509.41804341610986739397,-8.77948850978118,-6.93311868648335,-297.071672719504
738509.41804350656457245350,-8.77948850978118,-6.92388683736686,-297.099368266854
738509.41804359690286219120,-8.77948850978118,-6.92388683736686,-297.053209021271
738509.41804368735756725073,-8.7610248115482,-6.90542313913388,-297.080904568621
738509.41804377781227231026,-8.74256111331523,-6.88695944090091,-297.080904568621
738509.41804386815056204796,-8.77948850978118,-6.92388683736686,-297.071672719504
738509.41804395860526710749,-8.77025666066469,-6.87772759178442,-297.043977172155
738509.41804404894355684519,-8.94566179387799,-6.90542313913388,-297.090136417737
738509.41804413939826190472,-8.87180700094607,-6.91465498825037,-297.071672719504
738509.41804422985296696424,-8.27173680837428,-6.83156834620197,-297.043977172155
738509.41804432019125670195,-8.00401318399609,-6.73001800592059,-296.979354228339
738509.41804441064596176147,-7.62550737022004,-6.66539506210517,-296.997817926572
738509.41804450098425149918,-7.47779778435621,-6.65616321298868,-296.942426831873
738509.41804459143895655870,-8.39175084688864,-6.56384472182379,-296.942426831873
738509.41804468189366161823,-8.9364299447615,-6.71155430768761,-297.062440870388
738509.41804477223195135593,-8.88103885006256,-6.77617725150304,-297.053209021271
738509.41804486268665641546,-8.81641590624714,-6.84080019531846,-296.970122379223
738509.41804495302494615316,-8.78872035889767,-6.87772759178442,-297.053209021271
738509.41804504347965121269,-8.79795220801416,-6.89619129001739,-297.062440870388
738509.41804513393435627222,-8.80718405713065,-6.91465498825037,-297.007049775689
738509.41804522427264600992,-8.83487960448012,-6.94235053559984,-296.850108340709
738509.41804531472735106945,-8.81641590624714,-6.93311868648335,-296.868572038942
738509.41804540506564080715,-8.80718405713065,-6.92388683736686,-296.942426831873
738509.41804549552034586668,-8.81641590624714,-6.93311868648335,-296.942426831873
738509.41804558597505092621,-8.79795220801416,-6.91465498825037,-296.95165868099
738509.41804567631334066391,-8.77948850978118,-6.91465498825037,-296.979354228339
738509.41804576676804572344,-8.73332926419874,-6.85926389355144,-296.988586077456
738509.41804585710633546114,-8.73332926419874,-6.82233649708548,-296.970122379223
738509.41804594756104052067,-8.74256111331523,-6.83156834620197,-296.933194982757
738509.41804603789933025837,-8.80718405713065,-6.93311868648335,-297.016281624805
738509.41804612835403531790,-8.83487960448012,-6.96081423383282,-297.016281624805
738509.41804621880874037743,-8.80718405713065,-6.94235053559984,-297.034745323038
738509.41804630914703011513,-8.77025666066469,-6.89619129001739,-296.95165868099
738509.41804639960173517466,-8.75179296243171,-6.86849574266793,-296.997817926572
738509.41804648994002491236,-8.73332926419874,-6.84080019531846,-297.025513473922
738509.41804658039472997189,-8.71486556596576,-6.82233649708548,-296.933194982757
738509.41804667084943503141,-8.68717001861629,-6.8038727988525,-296.95165868099
738509.41804676118772476912,-8.66870632038331,-6.76694540238655,-296.933194982757
738509.41804685164242982864,-8.65024262215033,-6.78540910061953,-296.914731284524
738509.41804694198071956635,-8.63177892391736,-6.78540910061953,-296.887035737175
738509.41804703243542462587,-8.57638782921842,-6.7207861568041,-296.923963133641
738509.41804712289012968540,-8.58561967833491,-6.73001800592059,-296.95165868099
738509.41804721322841942310,-8.62254707480087,-6.76694540238655,-296.942426831873
738509.41804730368312448263,-8.62254707480087,-6.78540910061953,-296.942426831873
738509.41804739402141422033,-8.66870632038331,-6.84080019531846,-296.988586077456
738509.41804748447611927986,-8.66870632038331,-6.86849574266793,-296.979354228339
738509.41804757493082433939,-8.6779381694998,-6.87772759178442,-296.95165868099
738509.41804766526911407709,-8.69640186773278,-6.88695944090091,-296.997817926572
738509.41804775572381913662,-8.69640186773278,-6.88695944090091,-297.007049775689
738509.41804784606210887432,-8.68717001861629,-6.90542313913388,-296.923963133641
738509.41804793651681393385,-8.72409741508225,-6.95158238471633,-296.988586077456
738509.41804802697151899338,-8.75179296243171,-7.01620532853175,-297.007049775689
738509.41804811730980873108,-8.75179296243171,-6.99774163029878,-297.007049775689
738509.41804820776451379061,-8.70563371684927,-6.87772759178442,-296.933194982757
738509.41804829810280352831,-8.7610248115482,-6.90542313913388,-296.960890530106
738509.41804838855750858784,-8.7610248115482,-6.89619129001739,-297.007049775689
738509.41804847889579832554,-8.74256111331523,-6.91465498825037,-296.960890530106
738509.41804856935050338507,-8.75179296243171,-6.91465498825037,-296.979354228339
738509.41804865980520844460,-8.69640186773278,-6.86849574266793,-296.979354228339
738509.41804875014349818230,-8.72409741508225,-6.91465498825037,-296.877803888058
738509.41804884059820324183,-8.71486556596576,-6.90542313913388,-296.785485396893
738509.41804893093649297953,-8.70563371684927,-6.89619129001739,-296.896267586291
738509.41804902139119803905,-8.71486556596576,-6.91465498825037,-296.868572038942
738509.41804911184590309858,-8.70563371684927,-6.93311868648335,-296.859340189825
738509.41804920218419283628,-8.74256111331523,-6.99774163029878,-296.877803888058
738509.41804929263889789581,-8.75179296243171,-6.98850978118229,-296.905499435408
738509.41804938297718763351,-8.72409741508225,-6.88695944090091,-296.896267586291
738509.41804947343189269304,-8.68717001861629,-6.85926389355144,-296.905499435408
738509.41804956388659775257,-8.65947447126682,-6.88695944090091,-296.905499435408
738509.41804965422488749027,-8.63177892391736,-6.86849574266793,-296.905499435408
738509.41804974467959254980,-8.56715598010193,-6.85926389355144,-296.933194982757
738509.41804983501788228750,-8.55792413098544,-6.89619129001739,-296.896267586291
738509.41804992547258734703,-8.511764885403,-6.87772759178442,-296.960890530106
738509.41805001592729240656,-8.50253303628651,-6.84080019531846,-296.970122379223
738509.41805010626558214426,-8.52099673451949,-6.86849574266793,-296.942426831873
738509.41805019672028720379,-8.53946043275246,-6.87772759178442,-296.896267586291
738509.41805028705857694149,-8.63177892391736,-6.89619129001739,-296.923963133641
738509.41805037751328200102,-8.71486556596576,-6.91465498825037,-296.933194982757
738509.41805046785157173872,-8.79795220801416,-6.95158238471633,-296.905499435408
738509.41805055830627679825,-8.79795220801416,-6.95158238471633,-296.877803888058
738509.41805064876098185778,-8.79795220801416,-6.95158238471633,-296.896267586291
738509.41805073909927159548,-8.77948850978118,-6.93311868648335,-296.887035737175
738509.41805082955397665501,-8.79795220801416,-6.93311868648335,-296.942426831873
738509.41805091989226639271,-8.77025666066469,-6.91465498825037,-296.933194982757
738509.41805101034697145224,-8.78872035889767,-6.92388683736686,-296.914731284524
738509.41805110080167651176,-8.81641590624714,-6.94235053559984,-296.868572038942
738509.41805119113996624947,-8.88103885006256,-6.97004608294931,-296.923963133641
738509.41805128159467130899,-9.01028473769341,-6.96081423383282,-296.923963133641
738509.41805137193296104670,-8.77948850978118,-6.91465498825037,-296.859340189825
738509.41805146238766610622,-8.16095461897641,-6.77617725150304,-296.831644642476
738509.41805155284237116575,-7.71782586138493,-6.6376995147557,-296.822412793359
738509.41805164318066090345,-7.4870296334727,-6.6376995147557,-296.822412793359
738509.41805173363536596298,-8.12402722251045,-6.52691732535783,-296.748558000427
738509.41805182397365570068,-8.90873439741203,-6.68385876033815,-296.831644642476
738509.41805191442836076021,-8.92719809564501,-6.7207861568041,-296.896267586291
738509.41805200488306581974,-8.89027069917905,-6.86849574266793,-296.914731284524
738509.41805209522135555744,-8.83487960448012,-6.92388683736686,-296.850108340709
