time_dn,ecg_projection_ll_ra_mV,ecg_projection_la_ra_mV,ecg_projection_vx_rl_mV
738509.45213807129766792059,-12.5183874019593,-11.0043641468551,-298.114871669668
738509.45213816175237298012,-12.4906918546098,-10.9766685995056,-298.068712424085
738509.45213825220707803965,-12.5091555528428,-11.0135959959716,-298.133335367901
738509.45213834266178309917,-12.5183874019593,-11.022827845088,-298.142567217017
738509.45213843300007283688,-12.5091555528428,-11.0043641468551,-298.041016876736
738509.45213852345477789640,-12.4629963072604,-11.0043641468551,-298.114871669668
738509.45213861390948295593,-12.4168370616779,-10.9859004486221,-298.133335367901
738509.45213870436418801546,-12.4168370616779,-10.9951322977386,-298.133335367901
738509.45213879470247775316,-12.3522141178625,-10.9766685995056,-298.114871669668
738509.45213888515718281269,-12.3522141178625,-10.9859004486221,-298.142567217017
738509.45213897561188787222,-12.324518570513,-10.9582049012726,-298.133335367901
738509.45213906606659293175,-12.342982268746,-10.9489730521561,-298.096407971435
738509.45213915652129799128,-12.379909665212,-10.9489730521561,-298.124103518784
738509.45213924685958772898,-12.4445326090274,-10.9951322977386,-298.1887264626
738509.45213933731429278851,-12.5276192510758,-10.9859004486221,-298.059480574969
738509.45213942776899784803,-12.5645466475417,-11.059755241554,-298.114871669668
738509.45213951822370290756,-12.5460829493088,-11.0320596942045,-298.142567217017
738509.45213960867840796709,-12.5553147984252,-11.0043641468551,-298.068712424085
738509.45213969901669770479,-12.5553147984252,-11.0043641468551,-298.068712424085
738509.45213978947140276432,-12.5737784966582,-11.0320596942045,-298.050248725852
738509.45213987992610782385,-12.5645466475417,-11.0043641468551,-297.911770989105
738509.45213997038081288338,-12.5645466475417,-11.0135959959716,-297.939466536454
738509.45214006071910262108,-12.5922421948912,-11.022827845088,-298.087176122318
738509.45214015117380768061,-12.721488082522,-10.9859004486221,-298.077944273202
738509.45214024162851274014,-12.6014740440077,-10.9489730521561,-298.068712424085
738509.45214033208321779966,-12.0290993987854,-10.8658864101077,-298.022553178503
738509.45214042253792285919,-11.5952024903104,-10.7551042207099,-298.00408948027
738509.45214051287621259689,-11.3736381115146,-10.7735679189428,-298.013321329386
738509.45214060333091765642,-11.7798394726402,-10.644322031312,-297.97639393292
738509.45214069378562271595,-12.6568651387066,-10.6997131260109,-298.114871669668
738509.45214078424032777548,-12.6753288369396,-10.8474227118748,-298.124103518784
738509.45214087457861751318,-12.6014740440077,-10.9674367503891,-298.068712424085
738509.45214096503332257271,-12.6107058931242,-11.041291543321,-298.151799066134
738509.45214105548802763224,-12.6014740440077,-11.022827845088,-298.151799066134
738509.45214114594273269176,-12.5922421948912,-11.0320596942045,-298.114871669668
738509.45214123639743775129,-12.5645466475417,-11.022827845088,-298.142567217017
738509.45214132673572748899,-12.6199377422407,-11.0320596942045,-298.16103091525
738509.45214141719043254852,-12.5922421948912,-11.022827845088,-298.087176122318
738509.45214150764513760805,-12.5553147984252,-11.0043641468551,-298.151799066134
738509.45214159809984266758,-12.5460829493088,-11.0043641468551,-298.151799066134
738509.45214168855454772711,-12.5922421948912,-11.0505233924375,-298.142567217017
738509.45214177889283746481,-12.5830103457747,-11.041291543321,-298.096407971435
738509.45214186934754252434,-12.5645466475417,-11.022827845088,-298.114871669668
738509.45214195980224758387,-12.5460829493088,-11.0135959959716,-298.16103091525
738509.45214205025695264339,-12.5553147984252,-11.0043641468551,-298.179494613483
738509.45214214059524238110,-12.5368511001923,-11.0043641468551,-298.068712424085
738509.45214223104994744062,-12.5183874019593,-10.9766685995056,-298.151799066134
738509.45214232150465250015,-12.5091555528428,-10.9674367503891,-298.142567217017
738509.45214241195935755968,-12.4906918546098,-10.9397412030396,-298.114871669668
738509.45214250241406261921,-12.4814600054933,-10.9397412030396,-298.114871669668
738509.45214259275235235691,-12.4629963072604,-10.9305093539232,-298.124103518784
738509.45214268320705741644,-12.4445326090274,-10.9212775048067,-298.114871669668
738509.45214277366176247597,-12.3891415143284,-10.8843501083407,-298.096407971435
738509.45214286411646753550,-12.379909665212,-10.8751182592242,-298.096407971435
738509.45214295457117259502,-12.324518570513,-10.8104953154088,-298.151799066134
738509.45214304490946233273,-12.324518570513,-10.8381908627583,-298.031785027619
738509.45214313536416739225,-12.342982268746,-10.8566545609912,-298.059480574969
738509.45214322581887245178,-12.342982268746,-10.8381908627583,-298.022553178503
738509.45214331627357751131,-12.30605487228,-10.8474227118748,-298.041016876736
738509.45214340661186724901,-12.342982268746,-10.8935819574572,-297.893307290872
738509.45214349706657230854,-12.324518570513,-10.9120456556902,-297.97639393292
738509.45214358752127736807,-12.324518570513,-10.9120456556902,-298.050248725852
738509.45214367797598242760,-12.324518570513,-10.9305093539232,-298.050248725852
738509.45214376843068748713,-12.342982268746,-10.9397412030396,-298.077944273202
738509.45214385876897722483,-12.3891415143284,-11.0043641468551,-298.087176122318
738509.45214394922368228436,-12.379909665212,-10.9859004486221,-298.142567217017
738509.45214403967838734388,-12.4260689107944,-11.022827845088,-298.096407971435
738509.45214413013309240341,-12.4076052125614,-11.0135959959716,-298.105639820551
738509.45214422058779746294,-12.4076052125614,-11.0043641468551,-298.114871669668
738509.45214431092608720064,-12.3983733634449,-11.0135959959716,-298.124103518784
738509.45214440138079226017,-12.3891415143284,-10.9951322977386,-298.096407971435
738509.45214449183549731970,-12.379909665212,-10.9951322977386,-298.142567217017
738509.45214458229020237923,-12.3706778160955,-10.9951322977386,-298.068712424085
738509.45214467262849211693,-12.3706778160955,-10.9951322977386,-298.059480574969
738509.45214476308319717646,-12.342982268746,-10.9766685995056,-298.022553178503
738509.45214485353790223598,-12.3337504196295,-10.9766685995056,-298.050248725852
738509.45214494399260729551,-12.342982268746,-10.9674367503891,-298.041016876736
738509.45214503444731235504,-12.3337504196295,-10.9859004486221,-298.077944273202
738509.45214512478560209274,-12.324518570513,-10.9674367503891,-298.022553178503
738509.45214521524030715227,-12.3152867213965,-10.9951322977386,-298.041016876736
738509.45214530569501221180,-12.324518570513,-10.9859004486221,-298.096407971435
738509.45214539614971727133,-12.3152867213965,-10.9766685995056,-298.050248725852
738509.45214548660442233086,-12.30605487228,-10.9582049012726,-298.114871669668
738509.45214557694271206856,-12.3337504196295,-10.9859004486221,-298.142567217017
738509.45214566739741712809,-12.3337504196295,-10.9766685995056,-298.133335367901
738509.45214575785212218761,-12.324518570513,-10.9766685995056,-298.022553178503
738509.45214584830682724714,-12.3152867213965,-10.9674367503891,-298.124103518784
738509.45214593864511698484,-12.3337504196295,-10.9674367503891,-298.114871669668
738509.45214602909982204437,-12.324518570513,-10.9674367503891,-298.124103518784
738509.45214611955452710390,-12.2691274758141,-10.9582049012726,-298.041016876736
738509.45214621000923216343,-12.3522141178625,-10.9674367503891,-298.133335367901
738509.45214630046393722296,-12.30605487228,-10.9674367503891,-298.105639820551
738509.45214639080222696066,-12.3152867213965,-10.9766685995056,-298.077944273202
738509.45214648125693202019,-12.2783593249306,-10.9582049012726,-298.096407971435
738509.45214657171163707972,-12.2598956266976,-10.9489730521561,-298.114871669668
738509.45214666216634213924,-12.2229682302316,-10.9305093539232,-298.133335367901
738509.45214675250463187695,-12.2137363811151,-10.9489730521561,-298.068712424085
738509.45214684295933693647,-12.1952726828822,-10.9120456556902,-298.114871669668
738509.45214693341404199600,-12.2229682302316,-10.9120456556902,-297.985625782037
738509.45214702386874705553,-12.1398815881832,-10.9028138065737,-297.994857631153
738509.45214711432345211506,-12.0660267952513,-10.8751182592242,-298.105639820551
738509.45214720466174185276,-12.0844904934843,-10.8658864101077,-298.124103518784
738509.45214729511644691229,-12.1398815881832,-10.8566545609912,-298.059480574969
738509.45214738557115197182,-12.1491134372997,-10.8566545609912,-298.087176122318
738509.45214747602585703135,-12.2414319284646,-10.8843501083407,-298.105639820551
738509.45214756648056209087,-12.2691274758141,-10.9028138065737,-298.096407971435
738509.45214765681885182858,-12.2506637775811,-10.9120456556902,-298.050248725852
738509.45214774727355688810,-12.2875911740471,-10.9212775048067,-298.087176122318
738509.45214783772826194763,-12.2691274758141,-10.9120456556902,-298.105639820551
738509.45214792818296700716,-12.2598956266976,-10.9028138065737,-298.068712424085
738509.45214801852125674486,-12.2506637775811,-10.8935819574572,-298.077944273202
738509.45214810897596180439,-12.2598956266976,-10.9120456556902,-298.114871669668
738509.45214819943066686392,-12.2875911740471,-10.8935819574572,-298.105639820551
738509.45214828988537192345,-12.324518570513,-10.9028138065737,-298.013321329386
738509.45214838034007698298,-12.4076052125614,-10.8104953154088,-298.00408948027
738509.45214847067836672068,-11.890621662038,-10.7366405224769,-297.948698385571
738509.45214856113307178020,-11.2720877712333,-10.5520035401471,-297.930234687338
738509.45214865158777683973,-11.059755241554,-10.5520035401471,-297.939466536454
738509.45214874204248189926,-11.2074648274178,-10.4504531998657,-297.865611743522
738509.45214883249718695879,-12.0660267952513,-10.3581347087008,-297.874843592639
738509.45214892283547669649,-12.2968230231635,-10.5704672383801,-298.00408948027
738509.45214901329018175602,-12.2045045319987,-10.7366405224769,-297.994857631153
738509.45214910374488681555,-12.1768089846492,-10.8381908627583,-297.939466536454
738509.45214919419959187508,-12.1675771355327,-10.8843501083407,-297.930234687338
738509.45214928453788161278,-12.1398815881832,-10.8843501083407,-297.957930234687
738509.45214937499258667231,-12.1491134372997,-10.8751182592242,-297.97639393292
738509.45214946544729173183,-12.1675771355327,-10.8843501083407,-297.957930234687
738509.45214955590199679136,-12.1306497390667,-10.8658864101077,-297.921002838221
738509.45214964635670185089,-12.1398815881832,-10.8935819574572,-297.994857631153
738509.45214973669499158859,-12.0567949461348,-10.8566545609912,-298.013321329386
738509.45214982714969664812,-12.1398815881832,-10.8935819574572,-298.022553178503
738509.45214991760440170765,-12.0752586443678,-10.8658864101077,-297.994857631153
738509.45215000805910676718,-12.0290993987854,-10.8566545609912,-298.00408948027
738509.45215009851381182671,-12.0014038514359,-10.8474227118748,-298.00408948027
738509.45215018885210156441,-11.9921720023194,-10.8474227118748,-297.939466536454
738509.45215027930680662394,-11.909085360271,-10.8289590136418,-297.994857631153
738509.45215036976151168346,-11.909085360271,-10.8289590136418,-297.967162083804
738509.45215046021621674299,-11.946012756737,-10.8197271645253,-297.81945249794
738509.45215055055450648069,-11.890621662038,-10.7827997680593,-297.893307290872
738509.45215064100921154022,-11.8629261146886,-10.7827997680593,-297.97639393292
738509.45215073146391659975,-11.7890713217566,-10.7274086733604,-297.921002838221
738509.45215082191862165928,-11.7890713217566,-10.6904812768944,-297.957930234687
738509.45215091237332671881,-11.7521439252907,-10.662785729545,-297.911770989105
738509.45215100271161645651,-11.7152165288247,-10.6812494277779,-297.884075441755
738509.45215109316632151604,-11.6875209814753,-10.6166264839625,-297.856379894406
738509.45215118362102657557,-11.6967528305918,-10.625858333079,-297.865611743522
738509.45215127407573163509,-11.6598254341258,-10.625858333079,-297.81945249794
738509.45215136441402137280,-11.6782891323588,-10.625858333079,-297.800988799707
738509.45215145486872643232,-11.6413617358928,-10.6350901821955,-297.902539139988
738509.45215154532343149185,-11.6321298867763,-10.6720175786615,-297.837916196173
738509.45215163577813655138,-11.6413617358928,-10.6812494277779,-297.810220648823
738509.45215172623284161091,-11.6690572832423,-10.7089449751274,-297.81945249794
738509.45215181657113134861,-11.6413617358928,-10.7366405224769,-297.847148045289
738509.45215190702583640814,-11.6413617358928,-10.7735679189428,-297.874843592639
738509.45215199748054146767,-11.6598254341258,-10.8012634662923,-297.874843592639
738509.45215208793524652719,-11.6413617358928,-10.7920316171758,-297.847148045289
738509.45215217838995158672,-11.6875209814753,-10.8289590136418,-297.865611743522
738509.45215226872824132442,-11.6690572832423,-10.8104953154088,-297.81945249794
738509.45215235918294638395,-11.7059846797082,-10.8197271645253,-297.810220648823
738509.45215244963765144348,-11.6505935850093,-10.8012634662923,-297.874843592639
738509.45215254009235650301,-11.6782891323588,-10.8197271645253,-297.837916196173
738509.45215263043064624071,-11.6321298867763,-10.8104953154088,-297.81945249794
738509.45215272088535130024,-11.6505935850093,-10.8289590136418,-297.782525101474
738509.45215281134005635977,-11.6136661885434,-10.7920316171758,-297.782525101474
738509.45215290179476141930,-11.6228980376598,-10.8104953154088,-297.773293252358
738509.45215299224946647882,-11.6044343394269,-10.7920316171758,-297.782525101474
738509.45215308258775621653,-11.6136661885434,-10.8104953154088,-297.754829554125
738509.45215317304246127605,-11.6044343394269,-10.8197271645253,-297.754829554125
738509.45215326349716633558,-11.5767387920774,-10.8012634662923,-297.81945249794
738509.45215335395187139511,-11.6228980376598,-10.8197271645253,-297.800988799707
738509.45215344440657645464,-11.5490432447279,-10.8104953154088,-297.828684347056
738509.45215353474486619234,-11.6044343394269,-10.8197271645253,-297.81945249794
738509.45215362519957125187,-11.5952024903104,-10.8289590136418,-297.782525101474
738509.45215371565427631140,-11.5859706411939,-10.8197271645253,-297.847148045289
738509.45215380610898137093,-11.5582750938444,-10.8197271645253,-297.81945249794
738509.45215389644727110863,-11.5767387920774,-10.8289590136418,-297.81945249794
738509.45215398690197616816,-11.5398113956114,-10.8104953154088,-297.708670308542
738509.45215407735668122768,-11.512115848262,-10.8012634662923,-297.736365855892
738509.45215416781138628721,-11.4382610553301,-10.7827997680593,-297.828684347056
738509.45215425826609134674,-11.4474929044465,-10.7643360698263,-297.754829554125
738509.45215434860438108444,-11.3459425641652,-10.7274086733604,-297.810220648823
738509.45215443905908614397,-11.3459425641652,-10.7551042207099,-297.810220648823
738509.45215452951379120350,-11.3182470168157,-10.7458723715934,-297.764061403241
738509.45215461996849626303,-11.3367107150487,-10.7458723715934,-297.810220648823
738509.45215471042320132256,-11.4105655079806,-10.7643360698263,-297.828684347056
738509.45215480076149106026,-11.4290292062136,-10.7458723715934,-297.791756950591
738509.45215489121619611979,-11.4290292062136,-10.7920316171758,-297.773293252358
738509.45215498167090117931,-11.5213476973785,-10.8012634662923,-297.828684347056
738509.45215507212560623884,-11.5398113956114,-10.8381908627583,-297.828684347056
738509.45215516246389597654,-11.4844203009125,-10.8381908627583,-297.773293252358
738509.45215525291860103607,-11.5398113956114,-10.8474227118748,-297.773293252358
738509.45215534337330609560,-11.512115848262,-10.8474227118748,-297.81945249794
738509.45215543382801115513,-11.512115848262,-10.8474227118748,-297.791756950591
738509.45215552428271621466,-11.5028839991455,-10.8751182592242,-297.745597705008
738509.45215561462100595236,-11.493652150029,-10.8658864101077,-297.745597705008
738509.45215570507571101189,-11.5490432447279,-10.8474227118748,-297.727134006775
738509.45215579553041607141,-11.6875209814753,-10.8104953154088,-297.727134006775
738509.45215588598512113094,-11.4105655079806,-10.7274086733604,-297.690206610309
738509.45215597632341086864,-10.8381908627583,-10.5520035401471,-297.625583666494
738509.45215606677811592817,-10.4042939542833,-10.4504531998657,-297.63481551561
738509.45215615723282098770,-10.2842799157689,-10.4781487472152,-297.653279213843
738509.45215624768752604723,-11.059755241554,-10.22888882107,-297.607119968261
738509.45215633814223110676,-11.5952024903104,-10.4135258033998,-297.671742912076
738509.45215642848052084446,-11.5490432447279,-10.5335398419141,-297.66251106296
738509.45215651893522590399,-11.456724753563,-10.7274086733604,-297.680974761193
738509.45215660938993096352,-11.475188451796,-10.8289590136418,-297.754829554125
738509.45215669984463602304,-11.4844203009125,-10.8566545609912,-297.699438459426
738509.45215679029934108257,-11.5028839991455,-10.8843501083407,-297.736365855892
738509.45215688063763082027,-11.4105655079806,-10.8658864101077,-297.680974761193
738509.45215697109233587980,-11.4197973570971,-10.8658864101077,-297.690206610309
738509.45215706154704093933,-11.4382610553301,-10.8751182592242,-297.680974761193
738509.45215715200174599886,-11.4197973570971,-10.8658864101077,-297.653279213843
738509.45215724234003573656,-11.3736381115146,-10.8658864101077,-297.671742912076
738509.45215733279474079609,-11.3551744132817,-10.8566545609912,-297.66251106296
738509.45215742324944585562,-11.4382610553301,-10.8474227118748,-297.671742912076
738509.45215751370415091515,-11.3459425641652,-10.8289590136418,-297.63481551561
738509.45215760415885597467,-11.3090151676992,-10.8197271645253,-297.607119968261
738509.45215769449714571238,-11.3182470168157,-10.8012634662923,-297.708670308542
738509.45215778495185077190,-11.2813196203497,-10.7920316171758,-297.717902157659
738509.45215787540655583143,-11.2443922238838,-10.7827997680593,-297.708670308542
738509.45215796586126089096,-11.2351603747673,-10.7551042207099,-297.708670308542
738509.45215805631596595049,-11.2166966765343,-10.7366405224769,-297.66251106296
738509.45215814665425568819,-11.2074648274178,-10.6997131260109,-297.680974761193
738509.45215823710896074772,-11.1428418836024,-10.6720175786615,-297.699438459426
738509.45215832756366580725,-11.1336100344859,-10.644322031312,-297.597888119144
738509.45215841801837086678,-11.0689870906705,-10.607394634846,-297.66251106296
738509.45215850835666060448,-11.0689870906705,-10.5981627857295,-297.66251106296
738509.45215859881136566401,-11.041291543321,-10.5796990874966,-297.616351817377
738509.45215868926607072353,-11.041291543321,-10.5889309366131,-297.671742912076
738509.45215877972077578306,-10.9859004486221,-10.5704672383801,-297.63481551561
738509.45215887017548084259,-10.9859004486221,-10.5796990874966,-297.644047364727
738509.45215896051377058029,-10.9951322977386,-10.6166264839625,-297.570192571795
738509.45215905096847563982,-10.9951322977386,-10.644322031312,-297.63481551561
738509.45215914142318069935,-11.0320596942045,-10.6904812768944,-297.644047364727
738509.45215923187788575888,-11.0505233924375,-10.7181768242439,-297.63481551561
738509.45215932233259081841,-11.078218939787,-10.7643360698263,-297.671742912076
738509.45215941267088055611,-11.078218939787,-10.7643360698263,-297.644047364727
738509.45215950312558561563,-11.1243781853694,-10.8012634662923,-297.680974761193
738509.45215959358029067516,-11.1059144871364,-10.7920316171758,-297.616351817377
738509.45215968403499573469,-11.1336100344859,-10.8197271645253,-297.625583666494
738509.45215977437328547239,-11.1243781853694,-10.8104953154088,-297.690206610309
738509.45215986482799053192,-11.1336100344859,-10.8104953154088,-297.680974761193
738509.45215995528269559145,-11.1243781853694,-10.8012634662923,-297.588656270028
738509.45216004573740065098,-11.1243781853694,-10.8104953154088,-297.644047364727
738509.45216013619210571051,-11.1059144871364,-10.8104953154088,-297.579424420911
738509.45216022653039544821,-11.1059144871364,-10.8104953154088,-297.579424420911
738509.45216031698510050774,-11.0874507889035,-10.8012634662923,-297.671742912076
738509.45216040743980556726,-11.09668263802,-10.8197271645253,-297.616351817377
738509.45216049789451062679,-11.0874507889035,-10.8197271645253,-297.653279213843
738509.45216058823280036449,-11.1059144871364,-10.8289590136418,-297.63481551561
738509.45216067868750542402,-11.09668263802,-10.8289590136418,-297.644047364727
738509.45216076914221048355,-11.09668263802,-10.8289590136418,-297.66251106296
738509.45216085959691554308,-11.1059144871364,-10.8381908627583,-297.597888119144
738509.45216095005162060261,-11.1059144871364,-10.8289590136418,-297.579424420911
738509.45216104038991034031,-11.1151463362529,-10.8566545609912,-297.542497024445
738509.45216113084461539984,-11.09668263802,-10.8474227118748,-297.542497024445
738509.45216122129932045937,-11.0874507889035,-10.8289590136418,-297.588656270028
738509.45216131175402551889,-11.041291543321,-10.8012634662923,-297.607119968261
738509.45216140220873057842,-10.9859004486221,-10.7827997680593,-297.588656270028
738509.45216149254702031612,-10.9305093539232,-10.7366405224769,-297.607119968261
738509.45216158300172537565,-10.8843501083407,-10.7366405224769,-297.644047364727
738509.45216167345643043518,-10.8935819574572,-10.7458723715934,-297.607119968261
738509.45216176391113549471,-10.9120456556902,-10.7643360698263,-297.607119968261
738509.45216185424942523241,-10.9305093539232,-10.7827997680593,-297.607119968261
738509.45216194470413029194,-10.9951322977386,-10.7827997680593,-297.597888119144
738509.45216203515883535147,-11.041291543321,-10.8197271645253,-297.616351817377
738509.45216212561354041100,-11.1243781853694,-10.8474227118748,-297.63481551561
738509.45216221606824547052,-11.2074648274178,-10.8843501083407,-297.680974761193
738509.45216230640653520823,-11.1982329783013,-10.8935819574572,-297.671742912076
738509.45216239686124026775,-11.2074648274178,-10.9120456556902,-297.680974761193
738509.45216248731594532728,-11.1982329783013,-10.8935819574572,-297.644047364727
738509.45216257777065038681,-11.2074648274178,-10.9120456556902,-297.625583666494
738509.45216266822535544634,-11.1890011291849,-10.9120456556902,-297.597888119144
738509.45216275856364518404,-11.1982329783013,-10.9120456556902,-297.560960722678
738509.45216284901835024357,-11.2443922238838,-10.9212775048067,-297.597888119144
738509.45216293947305530310,-11.3274788659322,-10.9120456556902,-297.588656270028
738509.45216302992776036263,-11.3921018097476,-10.8289590136418,-297.63481551561
738509.45216312026605010033,-10.9766685995056,-10.7274086733604,-297.560960722678
738509.45216321072075515985,-10.4689168980987,-10.607394634846,-297.597888119144
738509.45216330117546021938,-10.1642658772546,-10.6350901821955,-297.588656270028
738509.45216339163016527891,-10.2935117648854,-10.5150761436811,-297.533265175329
738509.45216348208487033844,-11.1151463362529,-10.2658162175359,-297.579424420911
738509.45216357242316007614,-11.3828699606311,-10.4781487472152,-297.66251106296
738509.45216366287786513567,-11.2720877712333,-10.662785729545,-297.625583666494
738509.45216375333257019520,-11.2443922238838,-10.8104953154088,-297.625583666494
738509.45216384378727525473,-11.2443922238838,-10.8751182592242,-297.690206610309
738509.45216393424198031425,-11.2720877712333,-10.9120456556902,-297.671742912076
738509.45216402458027005196,-11.2720877712333,-10.9120456556902,-297.607119968261
738509.45216411503497511148,-11.2813196203497,-10.9212775048067,-297.690206610309
738509.45216420548968017101,-11.2536240730003,-10.9120456556902,-297.699438459426
738509.45216429594438523054,-11.2628559221168,-10.9212775048067,-297.616351817377
738509.45216438628267496824,-11.2443922238838,-10.9120456556902,-297.616351817377
738509.45216447673738002777,-11.2536240730003,-10.9120456556902,-297.625583666494
738509.45216456719208508730,-11.2443922238838,-10.9028138065737,-297.597888119144
738509.45216465764679014683,-11.2443922238838,-10.8935819574572,-297.514801477096
738509.45216474810149520636,-11.2536240730003,-10.9028138065737,-297.66251106296
738509.45216483843978494406,-11.2351603747673,-10.8751182592242,-297.653279213843
738509.45216492889449000359,-11.2536240730003,-10.8843501083407,-297.653279213843
738509.45216501934919506311,-11.2259285256508,-10.8751182592242,-297.63481551561
738509.45216510980390012264,-11.2351603747673,-10.8658864101077,-297.63481551561
738509.45216520014218986034,-11.2166966765343,-10.8381908627583,-297.671742912076
738509.45216529059689491987,-11.2166966765343,-10.8289590136418,-297.690206610309
738509.45216538105159997940,-11.1890011291849,-10.7920316171758,-297.63481551561
738509.45216547150630503893,-11.1890011291849,-10.7827997680593,-297.653279213843
738509.45216556196101009846,-11.1613055818354,-10.7366405224769,-297.690206610309
738509.45216565229929983616,-11.1520737327189,-10.7274086733604,-297.588656270028
738509.45216574275400489569,-11.1151463362529,-10.7089449751274,-297.63481551561
738509.45216583320870995522,-11.1428418836024,-10.7089449751274,-297.671742912076
738509.45216592366341501474,-11.1059144871364,-10.6904812768944,-297.680974761193
738509.45216601411812007427,-11.1336100344859,-10.6997131260109,-297.653279213843
738509.45216610445640981197,-11.09668263802,-10.7089449751274,-297.644047364727
738509.45216619491111487150,-11.1151463362529,-10.7551042207099,-297.680974761193
738509.45216628536581993103,-11.1243781853694,-10.7643360698263,-297.653279213843
738509.45216637582052499056,-11.1428418836024,-10.8012634662923,-297.644047364727
738509.45216646615881472826,-11.1613055818354,-10.8104953154088,-297.708670308542
738509.45216655661351978779,-11.1613055818354,-10.8289590136418,-297.699438459426
738509.45216664706822484732,-11.1982329783013,-10.8474227118748,-297.66251106296
738509.45216673752292990685,-11.2074648274178,-10.8474227118748,-297.708670308542
738509.45216682797763496637,-11.2259285256508,-10.8751182592242,-297.717902157659
738509.45216691831592470407,-11.1982329783013,-10.8566545609912,-297.727134006775
738509.45216700877062976360,-11.2166966765343,-10.8474227118748,-297.644047364727
738509.45216709922533482313,-11.1797692800684,-10.8381908627583,-297.708670308542
738509.45216718968003988266,-11.1982329783013,-10.8381908627583,-297.727134006775
738509.45216728013474494219,-11.1797692800684,-10.8381908627583,-297.616351817377
738509.45216737047303467989,-11.1890011291849,-10.8381908627583,-297.717902157659
738509.45216746092773973942,-11.1705374309519,-10.8289590136418,-297.699438459426
738509.45216755138244479895,-11.1613055818354,-10.8289590136418,-297.644047364727
738509.45216764183714985847,-11.1705374309519,-10.8289590136418,-297.717902157659
738509.45216773217543959618,-11.1705374309519,-10.8289590136418,-297.727134006775
738509.45216782263014465570,-11.1613055818354,-10.8289590136418,-297.680974761193
738509.45216791308484971523,-11.1151463362529,-10.8012634662923,-297.66251106296
738509.45216800353955477476,-11.041291543321,-10.7827997680593,-297.708670308542
738509.45216809399425983429,-10.9859004486221,-10.7827997680593,-297.524033326212
738509.45216818433254957199,-10.9397412030396,-10.7366405224769,-297.597888119144
738509.45216827478725463152,-10.9028138065737,-10.7089449751274,-297.597888119144
738509.45216836524195969105,-10.8935819574572,-10.7274086733604,-297.607119968261
738509.45216845569666475058,-10.8843501083407,-10.7458723715934,-297.625583666494
738509.45216854615136981010,-10.9397412030396,-10.7643360698263,-297.616351817377
738509.45216863648965954781,-10.9859004486221,-10.7735679189428,-297.607119968261
738509.45216872694436460733,-11.0505233924375,-10.7735679189428,-297.607119968261
738509.45216881739906966686,-11.1151463362529,-10.8012634662923,-297.63481551561
738509.45216890785377472639,-11.2166966765343,-10.8197271645253,-297.616351817377
738509.45216899819206446409,-11.2628559221168,-10.8474227118748,-297.625583666494
738509.45216908864676952362,-11.3090151676992,-10.8751182592242,-297.644047364727
738509.45216917910147458315,-11.3551744132817,-10.8935819574572,-297.66251106296
738509.45216926955617964268,-11.3828699606311,-10.8935819574572,-297.680974761193
738509.45216936001088470221,-11.4105655079806,-10.9028138065737,-297.745597705008
738509.45216945034917443991,-11.4382610553301,-10.9120456556902,-297.671742912076
738509.45216954080387949944,-11.4659566026795,-10.9212775048067,-297.717902157659
738509.45216963125858455896,-11.475188451796,-10.9120456556902,-297.717902157659
738509.45216972171328961849,-11.6413617358928,-10.9120456556902,-297.699438459426
738509.45216981205157935619,-11.5398113956114,-10.8289590136418,-297.690206610309
738509.45216990250628441572,-10.9582049012726,-10.7181768242439,-297.680974761193
738509.45216999296098947525,-10.5150761436811,-10.5520035401471,-297.653279213843
738509.45217008341569453478,-10.3304391613514,-10.5981627857295,-297.699438459426
738509.45217017387039959431,-10.4689168980987,-10.5150761436811,-297.680974761193
738509.45217026420868933201,-11.3274788659322,-10.3489028595843,-297.708670308542
738509.45217035466339439154,-11.6690572832423,-10.625858333079,-297.727134006775
738509.45217044511809945107,-11.5675069429609,-10.7458723715934,-297.791756950591
738509.45217053557280451059,-11.5213476973785,-10.8658864101077,-297.81945249794
738509.45217062602750957012,-11.5213476973785,-10.9212775048067,-297.736365855892
738509.45217071636579930782,-11.5675069429609,-10.9489730521561,-297.828684347056
738509.45217080682050436735,-11.5490432447279,-10.9397412030396,-297.828684347056
738509.45217089727520942688,-11.5398113956114,-10.9582049012726,-297.856379894406
738509.45217098772991448641,-11.5490432447279,-10.9489730521561,-297.764061403241
738509.45217107806820422411,-11.5582750938444,-10.9582049012726,-297.865611743522
738509.45217116852290928364,-11.5675069429609,-10.9397412030396,-297.865611743522
738509.45217125897761434317,-11.5675069429609,-10.9489730521561,-297.800988799707
738509.45217134943231940269,-11.5490432447279,-10.9212775048067,-297.865611743522
738509.45217143988702446222,-11.5675069429609,-10.9305093539232,-297.893307290872
738509.45217153022531419992,-11.5582750938444,-10.9120456556902,-297.856379894406
738509.45217162068001925945,-11.5675069429609,-10.9212775048067,-297.66251106296
738509.45217171113472431898,-11.5767387920774,-10.9120456556902,-297.81945249794
738509.45217180158942937851,-11.5952024903104,-10.9120456556902,-297.865611743522
738509.45217189204413443804,-11.5675069429609,-10.8751182592242,-297.828684347056
738509.45217198238242417574,-11.5490432447279,-10.8751182592242,-297.874843592639
738509.45217207283712923527,-11.5490432447279,-10.8658864101077,-297.902539139988
738509.45217216329183429480,-11.5490432447279,-10.8474227118748,-297.874843592639
738509.45217225374653935432,-11.5398113956114,-10.8381908627583,-297.810220648823
738509.45217234408482909203,-11.5213476973785,-10.8104953154088,-297.884075441755
738509.45217243453953415155,-11.512115848262,-10.7920316171758,-297.884075441755
738509.45217252499423921108,-11.5028839991455,-10.7827997680593,-297.847148045289
738509.45217261544894427061,-11.5213476973785,-10.8012634662923,-297.856379894406
738509.45217270590364933014,-11.5028839991455,-10.7735679189428,-297.884075441755
738509.45217279624193906784,-11.5213476973785,-10.7920316171758,-297.865611743522
738509.45217288669664412737,-11.5213476973785,-10.8012634662923,-297.884075441755
738509.45217297715134918690,-11.5213476973785,-10.8289590136418,-297.921002838221
738509.45217306760605424643,-11.5305795464949,-10.8381908627583,-297.884075441755
738509.45217315806075930595,-11.5490432447279,-10.8658864101077,-297.865611743522
738509.45217324839904904366,-11.5767387920774,-10.8751182592242,-297.893307290872
738509.45217333885375410318,-11.6044343394269,-10.9028138065737,-297.865611743522
738509.45217342930845916271,-11.6228980376598,-10.9028138065737,-297.893307290872
738509.45217351976316422224,-11.6228980376598,-10.9120456556902,-297.874843592639
738509.45217361010145395994,-11.6228980376598,-10.9120456556902,-297.893307290872
738509.45217370055615901947,-11.6321298867763,-10.9028138065737,-297.884075441755
738509.45217379101086407900,-11.6505935850093,-10.9120456556902,-297.893307290872
738509.45217388146556913853,-11.6413617358928,-10.8935819574572,-297.893307290872
738509.45217397192027419806,-11.6321298867763,-10.9120456556902,-297.930234687338
738509.45217406225856393576,-11.6228980376598,-10.8935819574572,-297.884075441755
738509.45217415271326899529,-11.6228980376598,-10.8935819574572,-297.865611743522
738509.45217424316797405481,-11.6228980376598,-10.8935819574572,-297.939466536454
738509.45217433362267911434,-11.6228980376598,-10.8935819574572,-297.902539139988
738509.45217442396096885204,-11.6136661885434,-10.8658864101077,-297.911770989105
738509.45217451441567391157,-11.5859706411939,-10.8751182592242,-297.921002838221
738509.45217460487037897110,-11.5490432447279,-10.8658864101077,-297.97639393292
738509.45217469532508403063,-11.512115848262,-10.8289590136418,-297.948698385571
738509.45217478577978909016,-11.4659566026795,-10.8289590136418,-297.921002838221
738509.45217487611807882786,-11.456724753563,-10.8566545609912,-297.911770989105
738509.45217496657278388739,-11.4382610553301,-10.8658864101077,-297.948698385571
738509.45217505702748894691,-11.4474929044465,-10.8474227118748,-297.948698385571
738509.45217514748219400644,-11.456724753563,-10.8566545609912,-297.791756950591
738509.45217523793689906597,-11.512115848262,-10.8658864101077,-297.856379894406
738509.45217532827518880367,-11.5952024903104,-10.8843501083407,-297.948698385571
738509.45217541872989386320,-11.6598254341258,-10.8935819574572,-297.967162083804
738509.45217550918459892273,-11.6967528305918,-10.9212775048067,-297.902539139988
738509.45217559963930398226,-11.7152165288247,-10.9212775048067,-298.00408948027
738509.45217568997759371996,-11.7429120761742,-10.9397412030396,-297.957930234687
738509.45217578043229877949,-11.7336802270577,-10.9305093539232,-297.967162083804
738509.45217587088700383902,-11.7429120761742,-10.9212775048067,-297.930234687338
738509.45217596134170889854,-11.7521439252907,-10.9305093539232,-297.994857631153
738509.45217605179641395807,-11.7613757744072,-10.9305093539232,-297.985625782037
738509.45217614213470369577,-11.8075350199896,-10.9305093539232,-297.902539139988
738509.45217623258940875530,-11.9552446058534,-10.9212775048067,-297.967162083804
738509.45217632304411381483,-11.7798394726402,-10.8843501083407,-297.957930234687
738509.45217641349881887436,-11.1797692800684,-10.7827997680593,-297.884075441755
738509.45217650395352393389,-10.7827997680593,-10.6720175786615,-297.791756950591
738509.45217659429181367159,-10.5243079927976,-10.7274086733604,-297.884075441755
738509.45217668474651873112,-11.0689870906705,-10.6166264839625,-297.902539139988
738509.45217677520122379065,-11.890621662038,-10.6904812768944,-297.921002838221
738509.45217686565592885017,-11.946012756737,-10.7827997680593,-297.884075441755
738509.45217695599421858788,-11.8629261146886,-10.8566545609912,-297.902539139988
738509.45217704644892364740,-11.8536942655721,-10.9120456556902,-297.884075441755
738509.45217713690362870693,-11.8536942655721,-10.9305093539232,-297.884075441755
738509.45217722735833376646,-11.8629261146886,-10.9489730521561,-297.893307290872
738509.45217731781303882599,-11.8629261146886,-10.9397412030396,-297.930234687338
738509.45217740815132856369,-11.872157963805,-10.9489730521561,-297.957930234687
738509.45217749860603362322,-11.8536942655721,-10.9305093539232,-297.930234687338
738509.45217758906073868275,-11.8536942655721,-10.9397412030396,-297.911770989105
738509.45217767951544374228,-11.8444624164556,-10.9212775048067,-297.967162083804
738509.45217776997014880180,-11.8444624164556,-10.9212775048067,-297.930234687338
738509.45217786030843853951,-11.8536942655721,-10.9305093539232,-297.930234687338
738509.45217795076314359903,-11.8444624164556,-10.9212775048067,-298.022553178503
738509.45217804121784865856,-11.8629261146886,-10.9397412030396,-297.930234687338
738509.45217813167255371809,-11.8444624164556,-10.9212775048067,-297.985625782037
738509.45217822201084345579,-11.8536942655721,-10.9212775048067,-297.957930234687
738509.45217831246554851532,-11.8352305673391,-10.8935819574572,-297.994857631153
738509.45217840292025357485,-11.8259987182226,-10.8935819574572,-297.994857631153
738509.45217849337495863438,-11.8075350199896,-10.8658864101077,-298.031785027619
738509.45217858382966369390,-11.8075350199896,-10.8566545609912,-297.957930234687
738509.45217867416795343161,-11.7798394726402,-10.8289590136418,-297.856379894406
738509.45217876462265849113,-11.7706076235237,-10.8104953154088,-297.847148045289
738509.45217885507736355066,-11.7521439252907,-10.7827997680593,-297.957930234687
738509.45217894553206861019,-11.7521439252907,-10.7920316171758,-297.939466536454
738509.45217903598677366972,-11.7244483779412,-10.7735679189428,-298.00408948027
738509.45217912632506340742,-11.7336802270577,-10.7735679189428,-297.948698385571
738509.45217921677976846695,-11.7336802270577,-10.7920316171758,-297.985625782037
738509.45217930723447352648,-11.7336802270577,-10.8104953154088,-297.967162083804
738509.45217939768917858601,-11.7244483779412,-10.8381908627583,-297.967162083804
738509.45217948802746832371,-11.7336802270577,-10.8474227118748,-298.00408948027
738509.45217957848217338324,-11.7521439252907,-10.8751182592242,-298.041016876736
738509.45217966893687844276,-11.7521439252907,-10.8751182592242,-298.013321329386
738509.45217975939158350229,-11.7706076235237,-10.8935819574572,-297.994857631153
738509.45217984984628856182,-11.7798394726402,-10.8935819574572,-298.013321329386
738509.45217994018457829952,-11.7983031708731,-10.9120456556902,-298.022553178503
738509.45218003063928335905,-11.7890713217566,-10.8935819574572,-297.994857631153
738509.45218012109398841858,-11.7890713217566,-10.9028138065737,-297.97639393292
738509.45218021154869347811,-11.7890713217566,-10.9120456556902,-298.022553178503
738509.45218030188698321581,-11.8075350199896,-10.9120456556902,-298.031785027619
738509.45218039234168827534,-11.8075350199896,-10.9120456556902,-297.957930234687
738509.45218048279639333487,-11.8075350199896,-10.9120456556902,-298.00408948027
738509.45218057325109839439,-11.7983031708731,-10.9120456556902,-298.041016876736
738509.45218066370580345392,-11.7890713217566,-10.8843501083407,-297.957930234687
738509.45218075404409319162,-11.7613757744072,-10.8751182592242,-298.013321329386
738509.45218084449879825115,-11.7336802270577,-10.8658864101077,-298.031785027619
738509.45218093495350331068,-11.6967528305918,-10.8381908627583,-298.041016876736
738509.45218102540820837021,-11.6413617358928,-10.8104953154088,-297.97639393292
738509.45218111586291342974,-11.6228980376598,-10.8381908627583,-297.930234687338
738509.45218120620120316744,-11.6136661885434,-10.8474227118748,-297.957930234687
738509.45218129665590822697,-11.6044343394269,-10.8474227118748,-297.97639393292
738509.45218138711061328650,-11.6136661885434,-10.8474227118748,-297.985625782037
738509.45218147756531834602,-11.6413617358928,-10.8474227118748,-297.97639393292
738509.45218156790360808372,-11.6505935850093,-10.8566545609912,-297.967162083804
738509.45218165835831314325,-11.7336802270577,-10.8658864101077,-297.97639393292
738509.45218174881301820278,-11.8075350199896,-10.8751182592242,-297.948698385571
738509.45218183926772326231,-11.8536942655721,-10.9120456556902,-297.957930234687
738509.45218192972242832184,-11.8629261146886,-10.9028138065737,-297.948698385571
738509.45218202006071805954,-11.890621662038,-10.9120456556902,-297.957930234687
738509.45218211051542311907,-11.890621662038,-10.9212775048067,-297.967162083804
738509.45218220097012817860,-11.890621662038,-10.9120456556902,-297.893307290872
738509.45218229142483323812,-11.9183172093875,-10.9305093539232,-297.921002838221
738509.45218238187953829765,-11.927549058504,-10.9212775048067,-298.022553178503
738509.45218247221782803535,-12.0106357005524,-10.9397412030396,-298.059480574969
738509.45218256267253309488,-12.1398815881832,-10.9028138065737,-298.059480574969
738509.45218265312723815441,-11.7706076235237,-10.8658864101077,-297.948698385571
738509.45218274358194321394,-11.1890011291849,-10.7181768242439,-297.97639393292
738509.45218283392023295164,-10.8012634662923,-10.6812494277779,-297.957930234687
738509.45218292437493801117,-10.7274086733604,-10.6904812768944,-297.921002838221
738509.45218301482964307070,-11.6136661885434,-10.5427716910306,-297.939466536454
738509.45218310528434813023,-12.1121860408338,-10.7274086733604,-298.050248725852
738509.45218319573905318975,-12.0383312479019,-10.8104953154088,-298.022553178503
738509.45218328607734292746,-11.9829401532029,-10.8658864101077,-298.013321329386
738509.45218337653204798698,-11.9921720023194,-10.8935819574572,-298.059480574969
738509.45218346698675304651,-12.0014038514359,-10.9305093539232,-298.077944273202
738509.45218355744145810604,-12.0106357005524,-10.9212775048067,-298.041016876736
738509.45218364789616316557,-12.0106357005524,-10.9397412030396,-298.059480574969
738509.45218373823445290327,-11.9921720023194,-10.9305093539232,-298.087176122318
738509.45218382868915796280,-12.0014038514359,-10.9397412030396,-298.096407971435
738509.45218391914386302233,-12.0014038514359,-10.9305093539232,-297.97639393292
738509.45218400959856808186,-12.0106357005524,-10.9305093539232,-298.059480574969
738509.45218409993685781956,-12.0106357005524,-10.9212775048067,-298.096407971435
738509.45218419039156287909,-12.0106357005524,-10.9305093539232,-298.031785027619
738509.45218428084626793861,-11.9829401532029,-10.9120456556902,-298.059480574969
738509.45218437130097299814,-11.9829401532029,-10.9120456556902,-298.077944273202
738509.45218446175567805767,-11.9737083040864,-10.8935819574572,-298.068712424085
738509.45218455209396779537,-11.9737083040864,-10.9028138065737,-298.022553178503
738509.45218464254867285490,-11.9644764549699,-10.8751182592242,-298.077944273202
738509.45218473300337791443,-11.9552446058534,-10.8751182592242,-298.096407971435
738509.45218482345808297396,-11.9367809076205,-10.8474227118748,-298.00408948027
738509.45218491379637271166,-11.9367809076205,-10.8381908627583,-298.050248725852
738509.45218500425107777119,-11.909085360271,-10.8197271645253,-298.050248725852
738509.45218509470578283072,-11.8998535111545,-10.8012634662923,-297.985625782037
738509.45218518516048789024,-11.8813898129215,-10.7827997680593,-298.022553178503
738509.45218527561519294977,-11.8813898129215,-10.7827997680593,-297.985625782037
738509.45218536595348268747,-11.8813898129215,-10.7827997680593,-298.00408948027
738509.45218545640818774700,-11.8629261146886,-10.7735679189428,-298.00408948027
738509.45218554686289280653,-11.8629261146886,-10.7827997680593,-297.985625782037
738509.45218563731759786606,-11.8536942655721,-10.7827997680593,-298.00408948027
738509.45218572777230292559,-11.8629261146886,-10.8012634662923,-297.97639393292
738509.45218581811059266329,-11.8629261146886,-10.8289590136418,-297.874843592639
738509.45218590856529772282,-11.8629261146886,-10.8474227118748,-297.985625782037
738509.45218599902000278234,-11.872157963805,-10.8658864101077,-297.97639393292
738509.45218608947470784187,-11.8998535111545,-10.8935819574572,-297.97639393292
738509.45218617981299757957,-11.909085360271,-10.9028138065737,-298.022553178503
738509.45218627026770263910,-11.927549058504,-10.9028138065737,-298.022553178503
738509.45218636072240769863,-11.9367809076205,-10.9120456556902,-298.059480574969
738509.45218645117711275816,-11.927549058504,-10.9028138065737,-298.077944273202
738509.45218654163181781769,-11.9183172093875,-10.8935819574572,-298.022553178503
738509.45218663197010755539,-11.927549058504,-10.9028138065737,-298.00408948027
738509.45218672242481261492,-11.909085360271,-10.9028138065737,-298.050248725852
738509.45218681287951767445,-11.909085360271,-10.8935819574572,-298.068712424085
738509.45218690333422273397,-11.890621662038,-10.8843501083407,-298.068712424085
738509.45218699378892779350,-11.8536942655721,-10.8658864101077,-298.059480574969
738509.45218708412721753120,-11.8259987182226,-10.8658864101077,-298.068712424085
738509.45218717458192259073,-11.8075350199896,-10.8381908627583,-298.105639820551
738509.45218726503662765026,-11.7613757744072,-10.8197271645253,-298.050248725852
738509.45218735549133270979,-11.7336802270577,-10.8289590136418,-298.068712424085
738509.45218744582962244749,-11.7244483779412,-10.8381908627583,-297.994857631153
738509.45218753628432750702,-11.7152165288247,-10.8381908627583,-298.059480574969
738509.45218762673903256655,-11.7336802270577,-10.8474227118748,-298.050248725852
738509.45218771719373762608,-11.7613757744072,-10.8474227118748,-298.087176122318
738509.45218780764844268560,-11.8075350199896,-10.8566545609912,-298.068712424085
738509.45218789798673242331,-11.8813898129215,-10.8658864101077,-298.087176122318
738509.45218798844143748283,-11.946012756737,-10.8843501083407,-298.068712424085
738509.45218807889614254236,-11.9644764549699,-10.9120456556902,-298.087176122318
738509.45218816935084760189,-11.9737083040864,-10.9028138065737,-298.087176122318
738509.45218825980555266142,-12.0014038514359,-10.9212775048067,-298.077944273202
738509.45218835014384239912,-12.0106357005524,-10.9212775048067,-298.105639820551
738509.45218844059854745865,-12.0106357005524,-10.9305093539232,-298.133335367901
738509.45218853105325251818,-12.0290993987854,-10.9212775048067,-298.050248725852
738509.45218862150795757771,-12.0660267952513,-10.9305093539232,-298.077944273202
738509.45218871184624731541,-12.1952726828822,-10.9212775048067,-298.114871669668
738509.45218880230095237494,-12.1768089846492,-10.8935819574572,-298.013321329386
738509.45218889275565743446,-11.5675069429609,-10.7920316171758,-298.059480574969
738509.45218898321036249399,-11.078218939787,-10.662785729545,-298.031785027619
738509.45218907366506755352,-10.8843501083407,-10.6720175786615,-298.050248725852
738509.45218916400335729122,-10.8104953154088,-10.6720175786615,-297.939466536454
738509.45218925445806235075,-11.6413617358928,-10.5243079927976,-297.97639393292
738509.45218934491276741028,-12.1860408337657,-10.7366405224769,-297.985625782037
738509.45218943536747246981,-12.1306497390667,-10.8289590136418,-298.041016876736
738509.45218952570576220751,-12.0937223426008,-10.8751182592242,-298.105639820551
738509.45218961616046726704,-12.0937223426008,-10.9305093539232,-298.124103518784
738509.45218970661517232656,-12.0937223426008,-10.9212775048067,-298.124103518784
738509.45218979706987738609,-12.1121860408338,-10.9397412030396,-298.087176122318
738509.45218988752458244562,-12.1121860408338,-10.9305093539232,-298.142567217017
738509.45218997786287218332,-12.1029541917173,-10.9397412030396,-298.059480574969
738509.45219006831757724285,-12.1029541917173,-10.9305093539232,-298.041016876736
738509.45219015877228230238,-12.1121860408338,-10.9397412030396,-298.114871669668
738509.45219024922698736191,-12.1029541917173,-10.9212775048067,-298.124103518784
738509.45219033968169242144,-12.0937223426008,-10.9305093539232,-298.105639820551
738509.45219043001998215914,-12.0844904934843,-10.9212775048067,-298.114871669668
738509.45219052047468721867,-12.0844904934843,-10.9305093539232,-298.124103518784
738509.45219061092939227819,-12.0660267952513,-10.9120456556902,-297.994857631153
738509.45219070138409733772,-12.0660267952513,-10.9120456556902,-297.994857631153
738509.45219079172238707542,-12.0567949461348,-10.8935819574572,-298.013321329386
738509.45219088217709213495,-12.0475630970183,-10.8843501083407,-298.031785027619
738509.45219097263179719448,-12.0383312479019,-10.8843501083407,-298.00408948027
738509.45219106308650225401,-12.0290993987854,-10.8566545609912,-298.013321329386
738509.45219115354120731354,-12.0106357005524,-10.8474227118748,-298.077944273202
738509.45219124387949705124,-11.9829401532029,-10.8104953154088,-298.059480574969
738509.45219133433420211077,-11.9829401532029,-10.8012634662923,-298.059480574969
738509.45219142478890717030,-11.9552446058534,-10.7827997680593,-298.077944273202
738509.45219151524361222982,-11.9552446058534,-10.7827997680593,-298.114871669668
738509.45219160569831728935,-11.9367809076205,-10.7735679189428,-298.050248725852
738509.45219169603660702705,-11.946012756737,-10.7827997680593,-298.059480574969
738509.45219178649131208658,-11.9183172093875,-10.7920316171758,-298.068712424085
738509.45219187694601714611,-11.9183172093875,-10.8104953154088,-298.068712424085
738509.45219196740072220564,-11.9183172093875,-10.8289590136418,-298.142567217017
738509.45219205773901194334,-11.927549058504,-10.8474227118748,-298.114871669668
738509.45219214819371700287,-11.9367809076205,-10.8658864101077,-298.041016876736
738509.45219223864842206240,-11.946012756737,-10.8843501083407,-298.124103518784
738509.45219232910312712193,-11.946012756737,-10.8935819574572,-298.105639820551
738509.45219241955783218145,-11.9644764549699,-10.9028138065737,-298.096407971435
738509.45219250989612191916,-11.9644764549699,-10.9120456556902,-298.151799066134
738509.45219260035082697868,-11.9737083040864,-10.9120456556902,-298.133335367901
738509.45219269080553203821,-11.9737083040864,-10.9120456556902,-298.105639820551
738509.45219278126023709774,-11.9737083040864,-10.9120456556902,-298.077944273202
738509.45219287171494215727,-11.9644764549699,-10.9120456556902,-297.994857631153
738509.45219296205323189497,-11.9552446058534,-10.9028138065737,-298.105639820551
738509.45219305250793695450,-11.9552446058534,-10.9120456556902,-298.105639820551
738509.45219314296264201403,-11.946012756737,-10.9028138065737,-298.059480574969
738509.45219323341734707355,-11.9552446058534,-10.9028138065737,-298.105639820551
738509.45219332375563681126,-11.927549058504,-10.8935819574572,-298.114871669668
738509.45219341421034187078,-11.9183172093875,-10.8751182592242,-298.077944273202
738509.45219350466504693031,-11.8813898129215,-10.8751182592242,-298.105639820551
738509.45219359511975198984,-11.8629261146886,-10.8843501083407,-298.114871669668
738509.45219368557445704937,-11.8352305673391,-10.8566545609912,-298.124103518784
738509.45219377591274678707,-11.7706076235237,-10.8474227118748,-298.077944273202
738509.45219386636745184660,-11.7429120761742,-10.8566545609912,-298.133335367901
738509.45219395682215690613,-11.7336802270577,-10.8658864101077,-298.124103518784
738509.45219404727686196566,-11.7429120761742,-10.8843501083407,-298.068712424085
738509.45219413761515170336,-11.7429120761742,-10.8566545609912,-298.114871669668
738509.45219422806985676289,-11.7798394726402,-10.8658864101077,-298.16103091525
738509.45219431852456182241,-11.8444624164556,-10.8658864101077,-298.041016876736
738509.45219440897926688194,-11.927549058504,-10.8935819574572,-298.041016876736
738509.45219449943397194147,-11.9552446058534,-10.9028138065737,-298.031785027619
738509.45219458977226167917,-11.9921720023194,-10.9305093539232,-298.013321329386
738509.45219468022696673870,-11.9921720023194,-10.9212775048067,-298.022553178503
738509.45219477068167179823,-12.0014038514359,-10.9212775048067,-298.041016876736
738509.45219486113637685776,-12.0198675496689,-10.9212775048067,-298.050248725852
738509.45219495159108191729,-12.0198675496689,-10.9212775048067,-298.105639820551
738509.45219504192937165499,-12.0198675496689,-10.9212775048067,-298.068712424085
738509.45219513238407671452,-12.0752586443678,-10.9305093539232,-298.077944273202
738509.45219522283878177404,-12.1952726828822,-10.9397412030396,-298.087176122318
738509.45219531329348683357,-12.1398815881832,-10.8751182592242,-298.041016876736
738509.45219540363177657127,-11.5305795464949,-10.7735679189428,-298.013321329386
738509.45219549408648163080,-11.0320596942045,-10.6350901821955,-297.97639393292
738509.45219558454118669033,-10.7551042207099,-10.6904812768944,-298.013321329386
738509.45219567499589174986,-11.0689870906705,-10.5981627857295,-298.031785027619
738509.45219576545059680939,-12.0567949461348,-10.6350901821955,-298.041016876736
738509.45219585578888654709,-12.1675771355327,-10.7735679189428,-298.142567217017
738509.45219594624359160662,-12.0752586443678,-10.8751182592242,-298.114871669668
738509.45219603669829666615,-12.0844904934843,-10.9028138065737,-298.077944273202
738509.45219612715300172567,-12.1029541917173,-10.9305093539232,-298.087176122318
738509.45219621760770678520,-12.0937223426008,-10.9305093539232,-298.133335367901
738509.45219630794599652290,-12.1029541917173,-10.9397412030396,-297.985625782037
738509.45219639840070158243,-12.0937223426008,-10.9397412030396,-298.105639820551
738509.45219648885540664196,-12.1029541917173,-10.9397412030396,-298.059480574969
738509.45219657931011170149,-12.0844904934843,-10.9305093539232,-298.105639820551
738509.45219666964840143919,-12.0844904934843,-10.9305093539232,-298.142567217017
738509.45219676010310649872,-12.0844904934843,-10.9397412030396,-298.142567217017
738509.45219685055781155825,-12.0752586443678,-10.9305093539232,-298.087176122318
738509.45219694101251661777,-12.0752586443678,-10.9305093539232,-298.179494613483
738509.45219703146722167730,-12.0567949461348,-10.9212775048067,-298.16103091525
738509.45219712180551141500,-12.0567949461348,-10.9305093539232,-298.087176122318
738509.45219721226021647453,-12.0383312479019,-10.9028138065737,-298.124103518784
738509.45219730271492153406,-12.0383312479019,-10.9028138065737,-298.142567217017
738509.45219739316962659359,-12.0198675496689,-10.8843501083407,-298.151799066134
738509.45219748362433165312,-12.0106357005524,-10.8751182592242,-298.068712424085
738509.45219757396262139082,-11.9829401532029,-10.8566545609912,-298.050248725852
738509.45219766441732645035,-11.9644764549699,-10.8381908627583,-298.041016876736
738509.45219775487203150988,-11.927549058504,-10.8104953154088,-298.022553178503
738509.45219784532673656940,-11.927549058504,-10.8012634662923,-298.031785027619
738509.45219793566502630711,-11.909085360271,-10.7827997680593,-298.096407971435
738509.45219802611973136663,-11.8998535111545,-10.7735679189428,-298.022553178503
738509.45219811657443642616,-11.8998535111545,-10.7827997680593,-298.114871669668
738509.45219820702914148569,-11.8998535111545,-10.7827997680593,-298.041016876736
738509.45219829748384654522,-11.8813898129215,-10.8012634662923,-298.031785027619
738509.45219838782213628292,-11.872157963805,-10.8197271645253,-298.022553178503
738509.45219847827684134245,-11.8813898129215,-10.8381908627583,-298.068712424085
738509.45219856873154640198,-11.872157963805,-10.8474227118748,-298.105639820551
738509.45219865918625146151,-11.890621662038,-10.8751182592242,-298.114871669668
738509.45219874952454119921,-11.8998535111545,-10.8843501083407,-298.16103091525
738509.45219883997924625874,-11.9183172093875,-10.9028138065737,-298.059480574969
738509.45219893043395131826,-11.9183172093875,-10.9028138065737,-298.124103518784
738509.45219902088865637779,-11.9367809076205,-10.9120456556902,-298.124103518784
738509.45219911134336143732,-11.927549058504,-10.9120456556902,-298.105639820551
738509.45219920168165117502,-11.9367809076205,-10.9120456556902,-298.096407971435
738509.45219929213635623455,-11.927549058504,-10.9028138065737,-298.114871669668
738509.45219938259106129408,-11.9367809076205,-10.9120456556902,-298.133335367901
738509.45219947304576635361,-11.927549058504,-10.9120456556902,-298.16103091525
738509.45219956350047141314,-11.927549058504,-10.9120456556902,-298.050248725852
738509.45219965383876115084,-11.909085360271,-10.9028138065737,-298.096407971435
738509.45219974429346621037,-11.8998535111545,-10.9028138065737,-298.068712424085
738509.45219983474817126989,-11.8998535111545,-10.9120456556902,-297.967162083804
738509.45219992520287632942,-11.8813898129215,-10.8935819574572,-298.031785027619
738509.45220001554116606712,-11.890621662038,-10.9028138065737,-298.142567217017
738509.45220010599587112665,-11.890621662038,-10.8935819574572,-298.096407971435
738509.45220019645057618618,-11.8813898129215,-10.9028138065737,-298.068712424085
738509.45220028690528124571,-11.872157963805,-10.8935819574572,-298.114871669668
738509.45220037735998630524,-11.872157963805,-10.8935819574572,-298.077944273202
738509.45220046769827604294,-11.8629261146886,-10.8935819574572,-298.124103518784
738509.45220055815298110247,-11.8813898129215,-10.9028138065737,-298.151799066134
738509.45220064860768616199,-11.872157963805,-10.9028138065737,-298.170262764367
738509.45220073906239122152,-11.8813898129215,-10.8935819574572,-298.105639820551
738509.45220082951709628105,-11.890621662038,-10.9120456556902,-298.16103091525
738509.45220091985538601875,-11.890621662038,-10.9028138065737,-298.133335367901
738509.45220101031009107828,-11.8998535111545,-10.9120456556902,-298.087176122318
738509.45220110076479613781,-11.8998535111545,-10.9120456556902,-298.170262764367
738509.45220119121950119734,-11.872157963805,-10.9028138065737,-298.170262764367
738509.45220128155779093504,-11.8444624164556,-10.9028138065737,-298.096407971435
738509.45220137201249599457,-11.8444624164556,-10.9212775048067,-298.142567217017
738509.45220146246720105410,-11.8167668691061,-10.9028138065737,-298.16103091525
738509.45220155292190611362,-11.7706076235237,-10.9028138065737,-298.087176122318
738509.45220164337661117315,-11.7336802270577,-10.9028138065737,-298.16103091525
738509.45220173371490091085,-11.7429120761742,-10.9028138065737,-298.179494613483
738509.45220182416960597038,-11.7336802270577,-10.8843501083407,-298.142567217017
738509.45220191462431102991,-11.7521439252907,-10.8843501083407,-298.114871669668
738509.45220200507901608944,-11.8167668691061,-10.8751182592242,-298.151799066134
738509.45220209553372114897,-11.909085360271,-10.9028138065737,-298.096407971435
738509.45220218587201088667,-11.9367809076205,-10.9120456556902,-298.059480574969
738509.45220227632671594620,-11.9552446058534,-10.9212775048067,-298.096407971435
738509.45220236678142100573,-11.9737083040864,-10.9305093539232,-298.133335367901
738509.45220245723612606525,-12.0014038514359,-10.9397412030396,-298.133335367901
738509.45220254757441580296,-11.9921720023194,-10.9489730521561,-298.142567217017
738509.45220263802912086248,-12.0014038514359,-10.9305093539232,-298.1887264626
738509.45220272848382592201,-12.0106357005524,-10.9397412030396,-298.124103518784
738509.45220281893853098154,-12.0198675496689,-10.9212775048067,-298.124103518784
738509.45220290939323604107,-12.1306497390667,-10.9305093539232,-298.114871669668
738509.45220299973152577877,-12.1306497390667,-10.8658864101077,-298.096407971435
738509.45220309018623083830,-11.5859706411939,-10.7920316171758,-298.059480574969
738509.45220318064093589783,-11.0689870906705,-10.662785729545,-298.041016876736
738509.45220327109564095736,-10.7920316171758,-10.7089449751274,-298.022553178503
738509.45220336143393069506,-11.0135959959716,-10.6350901821955,-297.930234687338
738509.45220345188863575459,-11.9921720023194,-10.607394634846,-298.013321329386
738509.45220354234334081411,-12.1583452864162,-10.7827997680593,-298.170262764367
738509.45220363279804587364,-12.0660267952513,-10.8751182592242,-298.142567217017
738509.45220372325275093317,-12.0475630970183,-10.9120456556902,-298.207190160833
738509.45220381359104067087,-12.0660267952513,-10.9305093539232,-298.1887264626
738509.45220390404574573040,-12.0475630970183,-10.9305093539232,-298.114871669668
738509.45220399450045078993,-12.0567949461348,-10.9305093539232,-298.151799066134
738509.45220408495515584946,-12.0475630970183,-10.9397412030396,-298.170262764367
738509.45220417540986090899,-12.0383312479019,-10.9305093539232,-298.151799066134
738509.45220426574815064669,-12.0475630970183,-10.9397412030396,-298.142567217017
738509.45220435620285570621,-12.0475630970183,-10.9397412030396,-298.216422009949
738509.45220444665756076574,-12.0567949461348,-10.9489730521561,-298.077944273202
738509.45220453711226582527,-12.0383312479019,-10.9397412030396,-298.142567217017
738509.45220462745055556297,-12.0475630970183,-10.9397412030396,-298.133335367901
738509.45220471790526062250,-12.0290993987854,-10.9305093539232,-298.179494613483
738509.45220480835996568203,-12.0198675496689,-10.9212775048067,-298.197958311716
738509.45220489881467074156,-11.9921720023194,-10.9120456556902,-298.16103091525
738509.45220498926937580109,-11.9829401532029,-10.8935819574572,-298.1887264626
738509.45220507960766553879,-11.9644764549699,-10.8935819574572,-298.170262764367
738509.45220517006237059832,-11.9552446058534,-10.8751182592242,-298.170262764367
738509.45220526051707565784,-11.927549058504,-10.8566545609912,-298.1887264626
738509.45220535097178071737,-11.8998535111545,-10.8289590136418,-298.087176122318
738509.45220544142648577690,-11.8813898129215,-10.8104953154088,-298.179494613483
738509.45220553176477551460,-11.872157963805,-10.8012634662923,-298.133335367901
738509.45220562221948057413,-11.8352305673391,-10.7827997680593,-298.133335367901
738509.45220571267418563366,-11.8167668691061,-10.7643360698263,-298.105639820551
738509.45220580312889069319,-11.8167668691061,-10.7643360698263,-298.142567217017
738509.45220589346718043089,-11.7890713217566,-10.7551042207099,-298.170262764367
738509.45220598392188549042,-11.7983031708731,-10.7735679189428,-298.124103518784
738509.45220607437659054995,-11.7890713217566,-10.7827997680593,-298.151799066134
738509.45220616483129560947,-11.7983031708731,-10.8012634662923,-298.133335367901
738509.45220625528600066900,-11.7983031708731,-10.8289590136418,-298.151799066134
738509.45220634562429040670,-11.8167668691061,-10.8566545609912,-298.105639820551
738509.45220643607899546623,-11.8352305673391,-10.8751182592242,-298.105639820551
738509.45220652653370052576,-11.8444624164556,-10.8935819574572,-298.087176122318
738509.45220661698840558529,-11.872157963805,-10.9120456556902,-298.059480574969
738509.45220670744311064482,-11.872157963805,-10.9120456556902,-298.096407971435
738509.45220679778140038252,-11.8813898129215,-10.9212775048067,-298.096407971435
738509.45220688823610544205,-11.872157963805,-10.9120456556902,-298.031785027619
738509.45220697869081050158,-11.872157963805,-10.9212775048067,-298.022553178503
738509.45220706914551556110,-11.872157963805,-10.9028138065737,-298.077944273202
738509.45220715948380529881,-11.872157963805,-10.9212775048067,-298.124103518784
738509.45220724993851035833,-11.8629261146886,-10.9120456556902,-298.142567217017
738509.45220734039321541786,-11.872157963805,-10.9212775048067,-298.105639820551
738509.45220743084792047739,-11.8536942655721,-10.9120456556902,-298.151799066134
738509.45220752130262553692,-11.8536942655721,-10.9120456556902,-298.096407971435
738509.45220761164091527462,-11.8352305673391,-10.8935819574572,-298.151799066134
738509.45220770209562033415,-11.8444624164556,-10.9120456556902,-298.142567217017
738509.45220779255032539368,-11.8444624164556,-10.9120456556902,-298.170262764367
738509.45220788300503045321,-11.8536942655721,-10.9120456556902,-298.170262764367
738509.45220797334332019091,-11.8352305673391,-10.9120456556902,-298.151799066134
738509.45220806379802525043,-11.8259987182226,-10.9028138065737,-298.105639820551
738509.45220815425273030996,-11.8352305673391,-10.9120456556902,-298.124103518784
738509.45220824470743536949,-11.8259987182226,-10.9028138065737,-298.142567217017
738509.45220833516214042902,-11.8259987182226,-10.9028138065737,-298.124103518784
738509.45220842550043016672,-11.8352305673391,-10.9028138065737,-298.179494613483
738509.45220851595513522625,-11.8444624164556,-10.9120456556902,-298.197958311716
738509.45220860640984028578,-11.8352305673391,-10.9028138065737,-298.114871669668
738509.45220869686454534531,-11.8536942655721,-10.9120456556902,-298.179494613483
738509.45220878731925040483,-11.8536942655721,-10.9212775048067,-298.151799066134
738509.45220887765754014254,-11.8629261146886,-10.9305093539232,-298.124103518784
738509.45220896811224520206,-11.8536942655721,-10.9212775048067,-298.1887264626
738509.45220905856695026159,-11.8536942655721,-10.9305093539232,-298.207190160833
738509.45220914902165532112,-11.8536942655721,-10.9212775048067,-298.133335367901
738509.45220923935994505882,-11.872157963805,-10.9212775048067,-298.170262764367
738509.45220932981465011835,-11.8629261146886,-10.9212775048067,-298.197958311716
738509.45220942026935517788,-11.8629261146886,-10.9212775048067,-298.151799066134
738509.45220951072406023741,-11.8444624164556,-10.9120456556902,-298.216422009949
738509.45220960117876529694,-11.8167668691061,-10.9212775048067,-298.197958311716
738509.45220969151705503464,-11.7890713217566,-10.9120456556902,-298.197958311716
738509.45220978197176009417,-11.7983031708731,-10.9120456556902,-298.225653859066
738509.45220987242646515369,-11.7798394726402,-10.9120456556902,-298.114871669668
738509.45220996288117021322,-11.7429120761742,-10.9028138065737,-298.1887264626
738509.45221005333587527275,-11.7244483779412,-10.9028138065737,-298.179494613483
738509.45221014367416501045,-11.7336802270577,-10.9028138065737,-298.16103091525
738509.45221023412887006998,-11.7429120761742,-10.8935819574572,-298.151799066134
738509.45221032458357512951,-11.7798394726402,-10.8843501083407,-298.207190160833
738509.45221041503828018904,-11.8536942655721,-10.9120456556902,-298.077944273202
738509.45221050537656992674,-11.8998535111545,-10.9212775048067,-298.068712424085
738509.45221059583127498627,-11.927549058504,-10.9489730521561,-298.179494613483
738509.45221068628598004580,-11.9367809076205,-10.9397412030396,-298.207190160833
738509.45221077674068510532,-11.9552446058534,-10.9489730521561,-298.133335367901
738509.45221086719539016485,-11.946012756737,-10.9489730521561,-298.197958311716
738509.45221095753367990255,-11.9552446058534,-10.9489730521561,-298.207190160833
738509.45221104798838496208,-11.946012756737,-10.9397412030396,-298.133335367901
738509.45221113844309002161,-11.9737083040864,-10.9489730521561,-298.179494613483
738509.45221122889779508114,-12.0567949461348,-10.9305093539232,-298.124103518784
738509.45221131935250014067,-12.0290993987854,-10.8658864101077,-298.077944273202
738509.45221140969078987837,-11.493652150029,-10.8104953154088,-298.096407971435
738509.45221150014549493790,-11.022827845088,-10.6997131260109,-298.050248725852
738509.45221159060019999743,-10.7181768242439,-10.7274086733604,-298.059480574969
738509.45221168105490505695,-10.9766685995056,-10.644322031312,-298.068712424085
738509.45221177139319479465,-11.4659566026795,-10.5520035401471,-297.985625782037
738509.45221186184789985418,-12.1398815881832,-10.7735679189428,-298.087176122318
738509.45221195230260491371,-12.0475630970183,-10.8566545609912,-298.105639820551
738509.45221204275730997324,-11.9644764549699,-10.9028138065737,-298.142567217017
738509.45221213321201503277,-11.9737083040864,-10.9397412030396,-298.124103518784
738509.45221222355030477047,-11.9829401532029,-10.9397412030396,-298.124103518784
738509.45221231400500983000,-11.9829401532029,-10.9489730521561,-298.151799066134
738509.45221240445971488953,-11.9829401532029,-10.9582049012726,-298.207190160833
738509.45221249491441994905,-11.9921720023194,-10.9674367503891,-298.197958311716
738509.45221258536912500858,-11.9737083040864,-10.9582049012726,-298.179494613483
738509.45221267570741474628,-11.9737083040864,-10.9582049012726,-298.197958311716
738509.45221276616211980581,-11.9737083040864,-10.9674367503891,-298.244117557298
738509.45221285661682486534,-11.9737083040864,-10.9489730521561,-298.124103518784
738509.45221294707152992487,-11.9552446058534,-10.9397412030396,-298.133335367901
738509.45221303740981966257,-11.9552446058534,-10.9489730521561,-298.197958311716
738509.45221312786452472210,-11.9552446058534,-10.9489730521561,-298.170262764367
738509.45221321831922978163,-11.9367809076205,-10.9212775048067,-298.197958311716
738509.45221330877393484116,-11.927549058504,-10.9212775048067,-298.207190160833
738509.45221339922863990068,-11.8998535111545,-10.9120456556902,-298.1887264626
738509.45221348956692963839,-11.8813898129215,-10.8935819574572,-298.197958311716
738509.45221358002163469791,-11.8629261146886,-10.8658864101077,-298.197958311716
738509.45221367047633975744,-11.8629261146886,-10.8751182592242,-298.151799066134
738509.45221376093104481697,-11.8629261146886,-10.8566545609912,-298.179494613483
738509.45221385126933455467,-11.8259987182226,-10.8197271645253,-298.170262764367
738509.45221394172403961420,-11.7983031708731,-10.8104953154088,-298.133335367901
738509.45221403217874467373,-11.7798394726402,-10.8012634662923,-298.041016876736
738509.45221412263344973326,-11.7890713217566,-10.8012634662923,-298.151799066134
738509.45221421308815479279,-11.7429120761742,-10.7735679189428,-298.16103091525
738509.45221430342644453049,-11.7521439252907,-10.7920316171758,-298.105639820551
738509.45221439388114959002,-11.7429120761742,-10.7920316171758,-298.170262764367
738509.45221448433585464954,-11.7521439252907,-10.8289590136418,-298.207190160833
738509.45221457479055970907,-11.7521439252907,-10.8381908627583,-298.133335367901
738509.45221466524526476860,-11.7613757744072,-10.8658864101077,-298.179494613483
738509.45221475558355450630,-11.7798394726402,-10.9028138065737,-298.207190160833
738509.45221484603825956583,-11.8352305673391,-10.9305093539232,-298.16103091525
738509.45221493649296462536,-11.8167668691061,-10.9212775048067,-298.179494613483
738509.45221502694766968489,-11.8352305673391,-10.9397412030396,-298.197958311716
738509.45221511728595942259,-11.8167668691061,-10.9397412030396,-298.216422009949
738509.45221520774066448212,-11.8352305673391,-10.9397412030396,-298.16103091525
738509.45221529819536954165,-11.8167668691061,-10.9305093539232,-298.216422009949
738509.45221538865007460117,-11.8167668691061,-10.9489730521561,-298.124103518784
738509.45221547910477966070,-11.8259987182226,-10.9489730521561,-298.124103518784
738509.45221556944306939840,-11.8444624164556,-10.9489730521561,-298.114871669668
738509.45221565989777445793,-11.8444624164556,-10.9489730521561,-298.114871669668
738509.45221575035247951746,-11.8167668691061,-10.9397412030396,-298.133335367901
738509.45221584080718457699,-11.8167668691061,-10.9489730521561,-298.133335367901
738509.45221593126188963652,-11.7983031708731,-10.9212775048067,-298.142567217017
738509.45221602160017937422,-11.7983031708731,-10.9397412030396,-298.1887264626
738509.45221611205488443375,-11.7983031708731,-10.9305093539232,-298.151799066134
738509.45221620250958949327,-11.8075350199896,-10.9397412030396,-298.151799066134
738509.45221629296429455280,-11.7890713217566,-10.9212775048067,-298.124103518784
738509.45221638330258429050,-11.7706076235237,-10.9212775048067,-298.105639820551
738509.45221647375728935003,-11.7983031708731,-10.9397412030396,-298.124103518784
738509.45221656421199440956,-11.7983031708731,-10.9305093539232,-298.142567217017
738509.45221665466669946909,-11.7983031708731,-10.9305093539232,-298.151799066134
738509.45221674512140452862,-11.7890713217566,-10.9305093539232,-298.133335367901
738509.45221683545969426632,-11.7890713217566,-10.9397412030396,-298.151799066134
738509.45221692591439932585,-11.7983031708731,-10.9397412030396,-298.1887264626
738509.45221701636910438538,-11.8167668691061,-10.9397412030396,-298.179494613483
738509.45221710682380944490,-11.8259987182226,-10.9489730521561,-298.179494613483
738509.45221719727851450443,-11.8167668691061,-10.9489730521561,-298.207190160833
738509.45221728761680424213,-11.8075350199896,-10.9489730521561,-298.124103518784
738509.45221737807150930166,-11.8259987182226,-10.9582049012726,-298.142567217017
738509.45221746852621436119,-11.8167668691061,-10.9489730521561,-298.096407971435
738509.45221755898091942072,-11.8167668691061,-10.9397412030396,-297.994857631153
738509.45221764931920915842,-11.8075350199896,-10.9489730521561,-298.105639820551
738509.45221773977391421795,-11.8075350199896,-10.9305093539232,-298.124103518784
738509.45221783022861927748,-11.8444624164556,-10.9766685995056,-298.1887264626
738509.45221792068332433701,-11.8259987182226,-10.9674367503891,-298.124103518784
738509.45221801113802939653,-11.8167668691061,-10.9582049012726,-298.216422009949
738509.45221810147631913424,-11.8352305673391,-10.9674367503891,-298.197958311716
738509.45221819193102419376,-11.8259987182226,-10.9582049012726,-298.244117557298
738509.45221828238572925329,-11.7983031708731,-10.9489730521561,-298.142567217017
738509.45221837284043431282,-11.7613757744072,-10.9397412030396,-298.207190160833
738509.45221846317872405052,-11.7521439252907,-10.9397412030396,-298.207190160833
738509.45221855363342911005,-11.7336802270577,-10.9305093539232,-298.1887264626
738509.45221864408813416958,-11.7059846797082,-10.9212775048067,-298.225653859066
738509.45221873454283922911,-11.6598254341258,-10.9028138065737,-298.216422009949
738509.45221882499754428864,-11.6598254341258,-10.9028138065737,-298.225653859066
738509.45221891533583402634,-11.7244483779412,-10.9305093539232,-298.151799066134
738509.45221900579053908587,-11.7521439252907,-10.9212775048067,-298.216422009949
738509.45221909624524414539,-11.7983031708731,-10.9305093539232,-298.216422009949
738509.45221918669994920492,-11.8536942655721,-10.9489730521561,-298.225653859066
738509.45221927715465426445,-11.8629261146886,-10.9674367503891,-298.170262764367
738509.45221936749294400215,-11.8629261146886,-10.9766685995056,-298.234885708182
738509.45221945794764906168,-11.872157963805,-10.9674367503891,-298.253349406415
738509.45221954840235412121,-11.872157963805,-10.9766685995056,-298.151799066134
738509.45221963885705918074,-11.8813898129215,-10.9766685995056,-298.207190160833
738509.45221972919534891844,-11.8629261146886,-10.9766685995056,-298.234885708182
738509.45221981965005397797,-11.8536942655721,-10.9582049012726,-298.216422009949
738509.45221991010475903749,-11.927549058504,-10.9859004486221,-298.216422009949
738509.45222000055946409702,-12.0567949461348,-10.9489730521561,-298.234885708182
738509.45222009101416915655,-11.7983031708731,-10.8843501083407,-298.225653859066
738509.45222018135245889425,-11.1890011291849,-10.7735679189428,-298.142567217017
738509.45222027180716395378,-10.7643360698263,-10.6904812768944,-298.096407971435
738509.45222036226186901331,-10.5796990874966,-10.7181768242439,-298.133335367901
738509.45222045271657407284,-11.2166966765343,-10.5704672383801,-298.114871669668
738509.45222054317127913237,-12.0014038514359,-10.7274086733604,-298.16103091525
738509.45222063350956887007,-11.9921720023194,-10.8381908627583,-298.216422009949
738509.45222072396427392960,-11.890621662038,-10.9028138065737,-298.244117557298
738509.45222081441897898912,-11.872157963805,-10.9489730521561,-298.16103091525
738509.45222090487368404865,-11.890621662038,-10.9674367503891,-298.207190160833
738509.45222099521197378635,-11.890621662038,-10.9859004486221,-298.013321329386
738509.45222108566667884588,-11.872157963805,-10.9766685995056,-298.050248725852
738509.45222117612138390541,-11.872157963805,-10.9674367503891,-298.133335367901
738509.45222126657608896494,-11.8629261146886,-10.9674367503891,-298.170262764367
738509.45222135703079402447,-11.8629261146886,-10.9766685995056,-298.170262764367
738509.45222144736908376217,-11.872157963805,-10.9766685995056,-298.16103091525
738509.45222153782378882170,-11.8629261146886,-10.9582049012726,-298.1887264626
738509.45222162827849388123,-11.8536942655721,-10.9674367503891,-298.151799066134
738509.45222171873319894075,-11.8536942655721,-10.9582049012726,-298.170262764367
738509.45222180918790400028,-11.8444624164556,-10.9489730521561,-298.234885708182
738509.45222189952619373798,-11.8167668691061,-10.9397412030396,-298.262581255531
738509.45222198998089879751,-11.7983031708731,-10.9305093539232,-298.151799066134
738509.45222208043560385704,-11.7983031708731,-10.9305093539232,-298.197958311716
738509.45222217089030891657,-11.7890713217566,-10.9120456556902,-298.216422009949
738509.45222226122859865427,-11.7613757744072,-10.8843501083407,-298.179494613483
738509.45222235168330371380,-11.7336802270577,-10.8658864101077,-298.179494613483
738509.45222244213800877333,-11.7152165288247,-10.8566545609912,-298.234885708182
738509.45222253259271383286,-11.6782891323588,-10.8289590136418,-298.207190160833
738509.45222262304741889238,-11.6505935850093,-10.8012634662923,-298.114871669668
738509.45222271338570863008,-11.6228980376598,-10.7827997680593,-298.105639820551
738509.45222280384041368961,-11.6136661885434,-10.7827997680593,-298.105639820551
738509.45222289429511874914,-11.6044343394269,-10.7735679189428,-298.068712424085
738509.45222298474982380867,-11.5952024903104,-10.7827997680593,-298.050248725852
738509.45222307508811354637,-11.5859706411939,-10.7735679189428,-298.087176122318
738509.45222316554281860590,-11.5859706411939,-10.7827997680593,-298.114871669668
738509.45222325599752366543,-11.5767387920774,-10.8012634662923,-298.114871669668
738509.45222334645222872496,-11.5859706411939,-10.8381908627583,-298.096407971435
738509.45222343690693378448,-11.5859706411939,-10.8566545609912,-298.124103518784
738509.45222352724522352219,-11.6228980376598,-10.8751182592242,-298.124103518784
738509.45222361769992858171,-11.6505935850093,-10.9120456556902,-298.133335367901
738509.45222370815463364124,-11.6505935850093,-10.9120456556902,-298.114871669668
738509.45222379860933870077,-11.6321298867763,-10.9028138065737,-298.133335367901
738509.45222388906404376030,-11.6598254341258,-10.9120456556902,-298.151799066134
738509.45222397940233349800,-11.6505935850093,-10.9212775048067,-298.105639820551
738509.45222406985703855753,-11.6598254341258,-10.9120456556902,-298.105639820551
738509.45222416031174361706,-11.6505935850093,-10.9212775048067,-298.133335367901
738509.45222425076644867659,-11.6321298867763,-10.9028138065737,-298.151799066134
738509.45222434110473841429,-11.6505935850093,-10.9212775048067,-298.179494613483
738509.45222443155944347382,-11.6413617358928,-10.9212775048067,-298.114871669668
738509.45222452201414853334,-11.6136661885434,-10.9028138065737,-297.985625782037
738509.45222461246885359287,-11.6044343394269,-10.8935819574572,-298.059480574969
738509.45222470292355865240,-11.6136661885434,-10.9028138065737,-298.124103518784
738509.45222479326184839010,-11.5952024903104,-10.8935819574572,-298.142567217017
738509.45222488371655344963,-11.5952024903104,-10.8935819574572,-298.151799066134
738509.45222497417125850916,-11.5767387920774,-10.8843501083407,-298.114871669668
738509.45222506462596356869,-11.5859706411939,-10.8935819574572,-298.105639820551
738509.45222515508066862822,-11.5767387920774,-10.8843501083407,-298.151799066134
738509.45222524541895836592,-11.5675069429609,-10.8843501083407,-298.124103518784
738509.45222533587366342545,-11.5675069429609,-10.8935819574572,-298.114871669668
738509.45222542632836848497,-11.5675069429609,-10.8843501083407,-298.114871669668
738509.45222551678307354450,-11.5582750938444,-10.8935819574572,-298.124103518784
738509.45222560712136328220,-11.5767387920774,-10.8935819574572,-298.16103091525
738509.45222569757606834173,-11.5859706411939,-10.9028138065737,-298.142567217017
738509.45222578803077340126,-11.5859706411939,-10.8935819574572,-298.151799066134
738509.45222587848547846079,-11.5859706411939,-10.9028138065737,-298.133335367901
738509.45222596894018352032,-11.5859706411939,-10.8935819574572,-298.087176122318
738509.45222605927847325802,-11.5859706411939,-10.9028138065737,-298.179494613483
738509.45222614973317831755,-11.5767387920774,-10.8935819574572,-298.16103091525
738509.45222624018788337708,-11.5859706411939,-10.9120456556902,-298.068712424085
738509.45222633064258843660,-11.5859706411939,-10.9028138065737,-298.133335367901
738509.45222642109729349613,-11.5952024903104,-10.9028138065737,-298.151799066134
738509.45222651143558323383,-11.5859706411939,-10.8843501083407,-298.114871669668
738509.45222660189028829336,-11.5952024903104,-10.9028138065737,-298.151799066134
738509.45222669234499335289,-11.5767387920774,-10.9028138065737,-298.179494613483
738509.45222678279969841242,-11.5859706411939,-10.9120456556902,-298.179494613483
738509.45222687313798815012,-11.5767387920774,-10.9120456556902,-298.077944273202
738509.45222696359269320965,-11.5398113956114,-10.8751182592242,-298.16103091525
738509.45222705404739826918,-11.5305795464949,-10.9028138065737,-298.151799066134
738509.45222714450210332870,-11.5028839991455,-10.8843501083407,-298.124103518784
738509.45222723495680838823,-11.475188451796,-10.8843501083407,-298.087176122318
738509.45222732529509812593,-11.4382610553301,-10.8751182592242,-298.087176122318
738509.45222741574980318546,-11.4290292062136,-10.8751182592242,-298.068712424085
738509.45222750620450824499,-11.4105655079806,-10.8566545609912,-298.087176122318
738509.45222759665921330452,-11.4474929044465,-10.8658864101077,-298.096407971435
738509.45222768699750304222,-11.475188451796,-10.8566545609912,-298.16103091525
738509.45222777745220810175,-11.5490432447279,-10.8843501083407,-298.096407971435
738509.45222786790691316128,-11.5767387920774,-10.8843501083407,-298.16103091525
738509.45222795836161822081,-11.6136661885434,-10.9120456556902,-298.197958311716
738509.45222804881632328033,-11.6136661885434,-10.9305093539232,-297.97639393292
738509.45222813915461301804,-11.6413617358928,-10.9305093539232,-298.068712424085
738509.45222822960931807756,-11.6228980376598,-10.9305093539232,-298.1887264626
738509.45222832006402313709,-11.6321298867763,-10.9305093539232,-298.124103518784
738509.45222841051872819662,-11.6321298867763,-10.9489730521561,-298.151799066134
738509.45222850097343325615,-11.6598254341258,-10.9397412030396,-298.124103518784
738509.45222859131172299385,-11.7521439252907,-10.9305093539232,-298.077944273202
738509.45222868176642805338,-11.8075350199896,-10.8843501083407,-298.133335367901
738509.45222877222113311291,-11.5398113956114,-10.8381908627583,-298.142567217017
738509.45222886267583817244,-10.9582049012726,-10.7089449751274,-298.041016876736
738509.45222895301412791014,-10.5704672383801,-10.6535538804285,-298.068712424085
738509.45222904346883296967,-10.4873805963317,-10.6350901821955,-297.994857631153
738509.45222913392353802919,-11.1797692800684,-10.4412213507492,-298.00408948027
738509.45222922437824308872,-11.8167668691061,-10.6535538804285,-298.087176122318
738509.45222931483294814825,-11.7429120761742,-10.7827997680593,-298.114871669668
738509.45222940517123788595,-11.6690572832423,-10.8658864101077,-298.114871669668
738509.45222949562594294548,-11.6690572832423,-10.9212775048067,-298.133335367901
738509.45222958608064800501,-11.6690572832423,-10.9397412030396,-298.124103518784
738509.45222967653535306454,-11.6690572832423,-10.9489730521561,-298.087176122318
738509.45222976699005812407,-11.6598254341258,-10.9489730521561,-298.142567217017
738509.45222985732834786177,-11.6598254341258,-10.9489730521561,-298.151799066134
738509.45222994778305292130,-11.6505935850093,-10.9489730521561,-298.16103091525
738509.45223003823775798082,-11.6505935850093,-10.9305093539232,-298.105639820551
738509.45223012869246304035,-11.6413617358928,-10.9397412030396,-298.105639820551
738509.45223021903075277805,-11.6413617358928,-10.9305093539232,-298.142567217017
738509.45223030948545783758,-11.6321298867763,-10.9305093539232,-298.151799066134
738509.45223039994016289711,-11.6228980376598,-10.9212775048067,-298.096407971435
738509.45223049039486795664,-11.6136661885434,-10.9212775048067,-298.151799066134
738509.45223058084957301617,-11.6044343394269,-10.9028138065737,-298.179494613483
738509.45223067118786275387,-11.6044343394269,-10.9028138065737,-298.105639820551
738509.45223076164256781340,-11.5859706411939,-10.8935819574572,-298.068712424085
738509.45223085209727287292,-11.5767387920774,-10.8843501083407,-298.050248725852
738509.45223094255197793245,-11.5582750938444,-10.8658864101077,-298.068712424085
738509.45223103300668299198,-11.5398113956114,-10.8474227118748,-298.050248725852
738509.45223112334497272968,-11.512115848262,-10.8197271645253,-298.059480574969
738509.45223121379967778921,-11.4844203009125,-10.7920316171758,-298.105639820551
738509.45223130425438284874,-11.456724753563,-10.7643360698263,-298.151799066134
738509.45223139470908790827,-11.4382610553301,-10.7458723715934,-298.041016876736
738509.45223148504737764597,-11.4197973570971,-10.7366405224769,-298.096407971435
738509.45223157550208270550,-11.4105655079806,-10.7181768242439,-297.985625782037
738509.45223166595678776503,-11.4105655079806,-10.7274086733604,-298.031785027619
738509.45223175641149282455,-11.4013336588641,-10.7274086733604,-298.059480574969
738509.45223184686619788408,-11.4105655079806,-10.7643360698263,-298.105639820551
738509.45223193720448762178,-11.4105655079806,-10.7920316171758,-298.114871669668
738509.45223202765919268131,-11.4382610553301,-10.8289590136418,-298.087176122318
738509.45223211811389774084,-11.4474929044465,-10.8474227118748,-298.096407971435
738509.45223220856860280037,-11.475188451796,-10.8751182592242,-298.133335367901
738509.45223229890689253807,-11.4844203009125,-10.8751182592242,-298.087176122318
738509.45223238936159759760,-11.512115848262,-10.9028138065737,-298.059480574969
738509.45223247981630265713,-11.512115848262,-10.9028138065737,-298.068712424085
738509.45223257027100771666,-11.5213476973785,-10.8935819574572,-298.050248725852
738509.45223266072571277618,-11.5213476973785,-10.9120456556902,-298.068712424085
738509.45223275106400251389,-11.5305795464949,-10.9028138065737,-298.087176122318
738509.45223284151870757341,-11.5305795464949,-10.9120456556902,-298.096407971435
738509.45223293197341263294,-11.5213476973785,-10.8935819574572,-298.077944273202
738509.45223302242811769247,-11.5213476973785,-10.9028138065737,-298.142567217017
738509.45223311288282275200,-11.5305795464949,-10.8935819574572,-298.114871669668
738509.45223320322111248970,-11.5305795464949,-10.9028138065737,-298.124103518784
738509.45223329367581754923,-11.512115848262,-10.8935819574572,-298.16103091525
738509.45223338413052260876,-11.512115848262,-10.8935819574572,-298.068712424085
738509.45223347458522766829,-11.512115848262,-10.8843501083407,-298.059480574969
738509.45223356492351740599,-11.512115848262,-10.8935819574572,-298.077944273202
738509.45223365537822246552,-11.493652150029,-10.8751182592242,-298.105639820551
738509.45223374583292752504,-11.512115848262,-10.8935819574572,-298.087176122318
738509.45223383628763258457,-11.493652150029,-10.8843501083407,-298.114871669668
738509.45223392674233764410,-11.512115848262,-10.8935819574572,-298.133335367901
738509.45223401708062738180,-11.493652150029,-10.8843501083407,-298.031785027619
738509.45223410753533244133,-11.512115848262,-10.9028138065737,-298.077944273202
738509.45223419799003750086,-11.512115848262,-10.8935819574572,-298.087176122318
738509.45223428844474256039,-11.5213476973785,-10.8935819574572,-298.050248725852
738509.45223437889944761992,-11.5305795464949,-10.9120456556902,-298.077944273202
738509.45223446923773735762,-11.5213476973785,-10.8935819574572,-298.105639820551
738509.45223455969244241714,-11.5213476973785,-10.9120456556902,-298.096407971435
738509.45223465014714747667,-11.5305795464949,-10.9028138065737,-298.124103518784
738509.45223474060185253620,-11.5398113956114,-10.9120456556902,-298.124103518784
738509.45223483094014227390,-11.5305795464949,-10.9028138065737,-298.114871669668
738509.45223492139484733343,-11.5398113956114,-10.9028138065737,-298.114871669668
738509.45223501184955239296,-11.5490432447279,-10.9028138065737,-298.105639820551
738509.45223510230425745249,-11.5490432447279,-10.9212775048067,-298.022553178503
738509.45223519275896251202,-11.5305795464949,-10.9028138065737,-298.031785027619
738509.45223528309725224972,-11.5213476973785,-10.9028138065737,-298.105639820551
738509.45223537355195730925,-11.4844203009125,-10.9120456556902,-298.087176122318
738509.45223546400666236877,-11.475188451796,-10.8843501083407,-298.105639820551
738509.45223555446136742830,-11.4382610553301,-10.8843501083407,-298.142567217017
738509.45223564491607248783,-11.4013336588641,-10.8751182592242,-298.031785027619
738509.45223573525436222553,-11.3828699606311,-10.8751182592242,-298.114871669668
738509.45223582570906728506,-11.4105655079806,-10.8751182592242,-298.124103518784
738509.45223591616377234459,-11.4197973570971,-10.8658864101077,-298.105639820551
738509.45223600661847740412,-11.4659566026795,-10.8658864101077,-298.105639820551
738509.45223609695676714182,-11.5305795464949,-10.8843501083407,-298.105639820551
738509.45223618741147220135,-11.5859706411939,-10.9028138065737,-298.124103518784
738509.45223627786617726088,-11.6044343394269,-10.9212775048067,-298.041016876736
738509.45223636832088232040,-11.6228980376598,-10.9305093539232,-298.124103518784
738509.45223645877558737993,-11.6228980376598,-10.9305093539232,-298.114871669668
738509.45223654911387711763,-11.6321298867763,-10.9397412030396,-298.114871669668
738509.45223663956858217716,-11.6413617358928,-10.9397412030396,-298.133335367901
738509.45223673002328723669,-11.6321298867763,-10.9305093539232,-298.151799066134
738509.45223682047799229622,-11.6598254341258,-10.9489730521561,-298.151799066134
738509.45223691081628203392,-11.7152165288247,-10.9489730521561,-298.096407971435
738509.45223700127098709345,-11.8259987182226,-10.8935819574572,-298.133335367901
738509.45223709172569215298,-11.5490432447279,-10.8474227118748,-298.124103518784
738509.45223718218039721251,-10.9859004486221,-10.7181768242439,-297.985625782037
738509.45223727263510227203,-10.5981627857295,-10.6350901821955,-298.059480574969
738509.45223736297339200974,-10.5058442945647,-10.625858333079,-298.041016876736
738509.45223745342809706926,-11.2813196203497,-10.4596850489822,-297.957930234687
738509.45223754388280212879,-11.8629261146886,-10.6535538804285,-298.050248725852
738509.45223763433750718832,-11.7983031708731,-10.7551042207099,-298.031785027619
738509.45223772479221224785,-11.7152165288247,-10.8474227118748,-298.050248725852
738509.45223781513050198555,-11.7244483779412,-10.9305093539232,-298.096407971435
738509.45223790558520704508,-11.7059846797082,-10.9212775048067,-298.096407971435
738509.45223799603991210461,-11.7152165288247,-10.9489730521561,-298.050248725852
738509.45223808649461716413,-11.7152165288247,-10.9489730521561,-298.096407971435
738509.45223817683290690184,-11.7152165288247,-10.9397412030396,-298.068712424085
738509.45223826728761196136,-11.7152165288247,-10.9489730521561,-298.068712424085
738509.45223835774231702089,-11.7152165288247,-10.9397412030396,-298.087176122318
738509.45223844819702208042,-11.7152165288247,-10.9489730521561,-298.133335367901
738509.45223853865172713995,-11.7059846797082,-10.9305093539232,-298.077944273202
738509.45223862899001687765,-11.6875209814753,-10.9305093539232,-297.985625782037
738509.45223871944472193718,-11.6875209814753,-10.9212775048067,-297.957930234687
738509.45223880989942699671,-11.7059846797082,-10.9397412030396,-298.068712424085
738509.45223890035413205624,-11.6690572832423,-10.9028138065737,-298.068712424085
738509.45223899080883711576,-11.6782891323588,-10.9120456556902,-298.077944273202
738509.45223908114712685347,-11.6690572832423,-10.8935819574572,-298.105639820551
738509.45223917160183191299,-11.6782891323588,-10.9028138065737,-298.105639820551
738509.45223926205653697252,-11.6413617358928,-10.8658864101077,-298.170262764367
738509.45223935251124203205,-11.6228980376598,-10.8566545609912,-298.124103518784
738509.45223944284953176975,-11.6044343394269,-10.8289590136418,-298.077944273202
738509.45223953330423682928,-11.5952024903104,-10.8104953154088,-298.114871669668
738509.45223962375894188881,-11.5582750938444,-10.7920316171758,-298.105639820551
738509.45223971421364694834,-11.5398113956114,-10.7643360698263,-298.031785027619
738509.45223980466835200787,-11.5398113956114,-10.7643360698263,-298.114871669668
738509.45223989500664174557,-11.5398113956114,-10.7643360698263,-298.114871669668
738509.45223998546134680510,-11.512115848262,-10.7551042207099,-298.142567217017
738509.45224007591605186462,-11.5213476973785,-10.7551042207099,-298.059480574969
738509.45224016637075692415,-11.5398113956114,-10.7920316171758,-298.087176122318
738509.45224025682546198368,-11.5305795464949,-10.8104953154088,-298.096407971435
738509.45224034716375172138,-11.5675069429609,-10.8474227118748,-298.077944273202
738509.45224043761845678091,-11.5767387920774,-10.8474227118748,-298.077944273202
738509.45224052807316184044,-11.5952024903104,-10.8843501083407,-298.096407971435
738509.45224061852786689997,-11.6321298867763,-10.8935819574572,-298.087176122318
738509.45224070886615663767,-11.6598254341258,-10.9120456556902,-298.050248725852
738509.45224079932086169720,-11.6505935850093,-10.9120456556902,-298.096407971435
738509.45224088977556675673,-11.6690572832423,-10.9305093539232,-298.133335367901
738509.45224098023027181625,-11.6690572832423,-10.9212775048067,-298.105639820551
738509.45224107068497687578,-11.6690572832423,-10.9212775048067,-298.105639820551
738509.45224116102326661348,-11.6690572832423,-10.9397412030396,-298.114871669668
738509.45224125147797167301,-11.6875209814753,-10.9305093539232,-298.114871669668
738509.45224134193267673254,-11.6782891323588,-10.9212775048067,-298.16103091525
738509.45224143238738179207,-11.6782891323588,-10.9212775048067,-298.151799066134
738509.45224152272567152977,-11.6690572832423,-10.9120456556902,-298.114871669668
738509.45224161318037658930,-11.6782891323588,-10.9212775048067,-298.124103518784
738509.45224170363508164883,-11.6598254341258,-10.9212775048067,-298.142567217017
738509.45224179408978670835,-11.6598254341258,-10.9212775048067,-298.077944273202
738509.45224188454449176788,-11.6690572832423,-10.9120456556902,-298.068712424085
738509.45224197488278150558,-11.6690572832423,-10.9028138065737,-298.142567217017
738509.45224206533748656511,-11.6782891323588,-10.9305093539232,-298.151799066134
738509.45224215579219162464,-11.6598254341258,-10.9120456556902,-298.124103518784
738509.45224224624689668417,-11.6782891323588,-10.9120456556902,-297.902539139988
738509.45224233670160174370,-11.6967528305918,-10.9305093539232,-298.022553178503
738509.45224242703989148140,-11.6967528305918,-10.9305093539232,-298.087176122318
738509.45224251749459654093,-11.7059846797082,-10.9212775048067,-298.105639820551
738509.45224260794930160046,-11.6967528305918,-10.9305093539232,-298.059480574969
738509.45224269840400665998,-11.7059846797082,-10.9489730521561,-298.087176122318
738509.45224278874229639769,-11.7152165288247,-10.9305093539232,-298.133335367901
738509.45224287919700145721,-11.6967528305918,-10.9305093539232,-298.105639820551
738509.45224296965170651674,-11.6967528305918,-10.9212775048067,-298.142567217017
738509.45224306010641157627,-11.6875209814753,-10.9305093539232,-298.179494613483
738509.45224315056111663580,-11.6505935850093,-10.9305093539232,-298.151799066134
738509.45224324089940637350,-11.6321298867763,-10.9120456556902,-298.133335367901
738509.45224333135411143303,-11.6044343394269,-10.9120456556902,-298.16103091525
738509.45224342180881649256,-11.6136661885434,-10.9397412030396,-298.179494613483
738509.45224351226352155209,-11.6044343394269,-10.9120456556902,-298.170262764367
738509.45224360271822661161,-11.5952024903104,-10.9120456556902,-298.096407971435
738509.45224369305651634932,-11.6321298867763,-10.9212775048067,-298.170262764367
738509.45224378351122140884,-11.6413617358928,-10.9120456556902,-298.151799066134
738509.45224387396592646837,-11.7429120761742,-10.9305093539232,-298.16103091525
738509.45224396442063152790,-11.8075350199896,-10.9582049012726,-298.142567217017
738509.45224405475892126560,-11.8075350199896,-10.9766685995056,-298.170262764367
738509.45224414521362632513,-11.8352305673391,-10.9582049012726,-298.1887264626
738509.45224423566833138466,-11.8259987182226,-10.9674367503891,-298.124103518784
738509.45224432612303644419,-11.8259987182226,-10.9766685995056,-298.179494613483
738509.45224441657774150372,-11.8536942655721,-10.9859004486221,-298.179494613483
738509.45224450691603124142,-11.872157963805,-10.9859004486221,-298.124103518784
738509.45224459737073630095,-11.8813898129215,-10.9766685995056,-298.151799066134
738509.45224468782544136047,-11.9829401532029,-10.9859004486221,-298.179494613483
738509.45224477828014642000,-11.9183172093875,-10.9489730521561,-298.142567217017
738509.45224486873485147953,-11.3551744132817,-10.8843501083407,-298.124103518784
738509.45224495907314121723,-10.9028138065737,-10.7366405224769,-298.013321329386
738509.45224504952784627676,-10.5796990874966,-10.7458723715934,-298.050248725852
738509.45224513998255133629,-10.8104953154088,-10.7551042207099,-298.059480574969
738509.45224523043725639582,-11.7983031708731,-10.7089449751274,-298.105639820551
738509.45224532077554613352,-12.0660267952513,-10.8566545609912,-298.151799066134
738509.45224541123025119305,-11.9829401532029,-10.9028138065737,-298.170262764367
738509.45224550168495625257,-11.8813898129215,-10.9305093539232,-298.124103518784
738509.45224559213966131210,-11.8813898129215,-10.9582049012726,-298.124103518784
738509.45224568259436637163,-11.8998535111545,-10.9674367503891,-298.114871669668
738509.45224577293265610933,-11.8998535111545,-10.9766685995056,-297.948698385571
738509.45224586338736116886,-11.909085360271,-10.9859004486221,-298.068712424085
738509.45224595384206622839,-11.909085360271,-10.9951322977386,-298.151799066134
738509.45224604429677128792,-11.8629261146886,-10.9674367503891,-298.142567217017
738509.45224613463506102562,-11.8998535111545,-10.9766685995056,-298.133335367901
738509.45224622508976608515,-11.8998535111545,-10.9859004486221,-298.142567217017
738509.45224631554447114468,-11.8813898129215,-10.9766685995056,-298.133335367901
738509.45224640599917620420,-11.8998535111545,-10.9766685995056,-298.151799066134
738509.45224649645388126373,-11.909085360271,-10.9766685995056,-298.16103091525
738509.45224658679217100143,-11.8629261146886,-10.9766685995056,-298.170262764367
738509.45224667724687606096,-11.8536942655721,-10.9582049012726,-298.225653859066
738509.45224676770158112049,-11.8536942655721,-10.9305093539232,-298.225653859066
738509.45224685815628618002,-11.8536942655721,-10.9305093539232,-298.151799066134
738509.45224694861099123955,-11.8536942655721,-10.9212775048067,-298.151799066134
738509.45224703894928097725,-11.8167668691061,-10.9120456556902,-298.170262764367
738509.45224712940398603678,-11.7890713217566,-10.8751182592242,-298.179494613483
738509.45224721985869109631,-11.7521439252907,-10.8658864101077,-298.1887264626
738509.45224731031339615583,-11.7706076235237,-10.8381908627583,-298.197958311716
738509.45224740065168589354,-11.7706076235237,-10.8566545609912,-298.197958311716
738509.45224749110639095306,-11.7336802270577,-10.8566545609912,-298.225653859066
738509.45224758156109601259,-11.7244483779412,-10.8381908627583,-298.197958311716
738509.45224767201580107212,-11.7152165288247,-10.8289590136418,-298.216422009949
738509.45224776247050613165,-11.7521439252907,-10.8474227118748,-298.151799066134
738509.45224785280879586935,-11.7244483779412,-10.8566545609912,-298.179494613483
738509.45224794326350092888,-11.6967528305918,-10.8566545609912,-298.234885708182
738509.45224803371820598841,-11.7059846797082,-10.8935819574572,-298.207190160833
738509.45224812417291104794,-11.7521439252907,-10.8935819574572,-298.197958311716
738509.45224821462761610746,-11.8352305673391,-10.9305093539232,-298.225653859066
738509.45224830496590584517,-11.7521439252907,-10.9582049012726,-298.244117557298
738509.45224839542061090469,-11.7890713217566,-10.9397412030396,-298.234885708182
738509.45224848587531596422,-11.8352305673391,-10.9766685995056,-298.170262764367
738509.45224857633002102375,-11.8259987182226,-10.9582049012726,-298.244117557298
738509.45224866666831076145,-11.872157963805,-10.9489730521561,-298.253349406415
738509.45224875712301582098,-11.8075350199896,-10.9489730521561,-298.253349406415
738509.45224884757772088051,-11.8259987182226,-10.9582049012726,-298.234885708182
738509.45224893803242594004,-11.8536942655721,-10.9489730521561,-298.216422009949
738509.45224902848713099957,-11.8075350199896,-10.9489730521561,-298.179494613483
738509.45224911882542073727,-11.8444624164556,-10.9674367503891,-298.179494613483
738509.45224920928012579679,-11.8536942655721,-10.9489730521561,-298.059480574969
738509.45224929973483085632,-11.8352305673391,-10.9397412030396,-298.142567217017
738509.45224939018953591585,-11.8167668691061,-10.9489730521561,-298.1887264626
738509.45224948064424097538,-11.8075350199896,-10.9397412030396,-298.253349406415
738509.45224957098253071308,-11.8444624164556,-10.9582049012726,-298.216422009949
738509.45224966143723577261,-11.8352305673391,-10.9397412030396,-298.216422009949
738509.45224975189194083214,-11.7706076235237,-10.9397412030396,-298.244117557298
738509.45224984234664589167,-11.8536942655721,-10.9397412030396,-298.225653859066
738509.45224993268493562937,-11.8444624164556,-10.9397412030396,-298.16103091525
738509.45225002313964068890,-11.7983031708731,-10.9397412030396,-298.170262764367
738509.45225011359434574842,-11.8259987182226,-10.9397412030396,-298.197958311716
738509.45225020404905080795,-11.8075350199896,-10.9489730521561,-298.197958311716
738509.45225029450375586748,-11.7613757744072,-10.9212775048067,-298.216422009949
738509.45225038484204560518,-11.7706076235237,-10.9489730521561,-298.179494613483
738509.45225047529675066471,-11.7336802270577,-10.9120456556902,-298.207190160833
738509.45225056575145572424,-11.6875209814753,-10.9397412030396,-298.225653859066
738509.45225065620616078377,-11.6413617358928,-10.9120456556902,-298.271813104648
738509.45225074666086584330,-11.6782891323588,-10.9397412030396,-298.170262764367
738509.45225083699915558100,-11.6967528305918,-10.9120456556902,-298.197958311716
738509.45225092745386064053,-11.6875209814753,-10.9212775048067,-298.244117557298
738509.45225101790856570005,-11.7613757744072,-10.9212775048067,-298.1887264626
738509.45225110836327075958,-11.872157963805,-10.9305093539232,-298.225653859066
738509.45225119870156049728,-11.8352305673391,-10.9397412030396,-298.234885708182
738509.45225128915626555681,-11.9552446058534,-10.9674367503891,-298.253349406415
738509.45225137961097061634,-11.909085360271,-10.9582049012726,-298.1887264626
738509.45225147006567567587,-11.909085360271,-10.9766685995056,-298.216422009949
738509.45225156052038073540,-11.9183172093875,-10.9582049012726,-298.179494613483
738509.45225165085867047310,-11.9183172093875,-10.9766685995056,-298.170262764367
738509.45225174131337553263,-11.8629261146886,-10.9489730521561,-298.1887264626
738509.45225183176808059216,-11.9737083040864,-10.9582049012726,-298.197958311716
738509.45225192222278565168,-12.0475630970183,-10.9582049012726,-298.262581255531
738509.45225201256107538939,-11.8444624164556,-10.9305093539232,-298.216422009949
738509.45225210301578044891,-11.3274788659322,-10.8751182592242,-298.197958311716
738509.45225219347048550844,-10.8197271645253,-10.7274086733604,-298.16103091525
738509.45225228392519056797,-10.4596850489822,-10.8012634662923,-298.077944273202
738509.45225237437989562750,-10.8566545609912,-10.8012634662923,-298.16103091525
738509.45225246471818536520,-11.8813898129215,-10.7735679189428,-298.234885708182
738509.45225255517289042473,-12.0106357005524,-10.8566545609912,-298.234885708182
738509.45225264562759548426,-11.927549058504,-10.9120456556902,-298.216422009949
738509.45225273608230054379,-11.9183172093875,-10.9397412030396,-298.114871669668
738509.45225282653700560331,-11.890621662038,-10.9582049012726,-298.170262764367
738509.45225291687529534101,-11.9367809076205,-10.9582049012726,-298.234885708182
738509.45225300733000040054,-11.890621662038,-10.9582049012726,-298.271813104648
738509.45225309778470546007,-11.9183172093875,-10.9397412030396,-298.234885708182
738509.45225318823941051960,-11.8259987182226,-10.9582049012726,-298.253349406415
738509.45225327857770025730,-11.8536942655721,-10.9489730521561,-298.207190160833
738509.45225336903240531683,-11.909085360271,-10.9489730521561,-298.244117557298
738509.45225345948711037636,-11.927549058504,-10.9489730521561,-298.271813104648
738509.45225354994181543589,-11.8167668691061,-10.9305093539232,-298.262581255531
738509.45225364039652049541,-11.8629261146886,-10.9305093539232,-298.216422009949
738509.45225373073481023312,-11.872157963805,-10.9489730521561,-298.179494613483
738509.45225382118951529264,-11.8444624164556,-10.9305093539232,-298.179494613483
738509.45225391164422035217,-11.8259987182226,-10.9212775048067,-298.1887264626
738509.45225400209892541170,-11.8075350199896,-10.9028138065737,-298.216422009949
738509.45225409255363047123,-11.7613757744072,-10.8843501083407,-298.1887264626
738509.45225418289192020893,-11.7890713217566,-10.8935819574572,-298.170262764367
738509.45225427334662526846,-11.8075350199896,-10.8843501083407,-298.1887264626
738509.45225436380133032799,-11.7336802270577,-10.8751182592242,-298.151799066134
738509.45225445425603538752,-11.6967528305918,-10.8474227118748,-298.179494613483
738509.45225454459432512522,-11.6967528305918,-10.8289590136418,-298.179494613483
738509.45225463504903018475,-11.6690572832423,-10.8289590136418,-298.151799066134
738509.45225472550373524427,-11.6044343394269,-10.8197271645253,-298.16103091525
738509.45225481595844030380,-11.6044343394269,-10.8197271645253,-298.142567217017
738509.45225490641314536333,-11.6321298867763,-10.8104953154088,-298.151799066134
738509.45225499675143510103,-11.6321298867763,-10.8197271645253,-298.197958311716
738509.45225508720614016056,-11.6228980376598,-10.8474227118748,-298.197958311716
738509.45225517766084522009,-11.6413617358928,-10.8566545609912,-298.225653859066
738509.45225526811555027962,-11.6044343394269,-10.8658864101077,-298.179494613483
738509.45225535857025533915,-11.6413617358928,-10.8751182592242,-298.234885708182
738509.45225544890854507685,-11.6782891323588,-10.9212775048067,-298.225653859066
738509.45225553936325013638,-11.7521439252907,-10.9305093539232,-298.151799066134
738509.45225562981795519590,-11.7059846797082,-10.9397412030396,-298.207190160833
738509.45225572027266025543,-11.7152165288247,-10.9305093539232,-298.170262764367
738509.45225581061094999313,-11.7152165288247,-10.9305093539232,-298.225653859066
738509.45225590106565505266,-11.7244483779412,-10.9397412030396,-298.244117557298
738509.45225599152036011219,-11.7244483779412,-10.9397412030396,-298.225653859066
738509.45225608197506517172,-11.6967528305918,-10.9212775048067,-298.1887264626
738509.45225617242977023125,-11.7152165288247,-10.9397412030396,-298.179494613483
738509.45225626276805996895,-11.7244483779412,-10.9305093539232,-298.031785027619
738509.45225635322276502848,-11.6875209814753,-10.9397412030396,-298.050248725852
738509.45225644367747008801,-11.6875209814753,-10.9212775048067,-298.170262764367
738509.45225653413217514753,-11.6782891323588,-10.9305093539232,-298.151799066134
738509.45225662447046488523,-11.6782891323588,-10.9305093539232,-298.151799066134
738509.45225671492516994476,-11.6690572832423,-10.9305093539232,-298.207190160833
738509.45225680537987500429,-11.6782891323588,-10.9305093539232,-298.225653859066
738509.45225689583458006382,-11.6598254341258,-10.9212775048067,-298.197958311716
738509.45225698628928512335,-11.6505935850093,-10.9120456556902,-298.142567217017
738509.45225707662757486105,-11.6598254341258,-10.9120456556902,-298.225653859066
738509.45225716708227992058,-11.6598254341258,-10.9212775048067,-298.225653859066
738509.45225725753698498011,-11.6505935850093,-10.9305093539232,-298.207190160833
738509.45225734799169003963,-11.6136661885434,-10.9028138065737,-298.1887264626
738509.45225743844639509916,-11.5952024903104,-10.9120456556902,-298.225653859066
738509.45225752878468483686,-11.5582750938444,-10.9120456556902,-298.225653859066
738509.45225761923938989639,-11.5490432447279,-10.9212775048067,-298.142567217017
738509.45225770969409495592,-11.512115848262,-10.9212775048067,-298.225653859066
738509.45225780014880001545,-11.493652150029,-10.9120456556902,-298.225653859066
738509.45225789048708975315,-11.475188451796,-10.9120456556902,-298.124103518784
738509.45225798094179481268,-11.475188451796,-10.9028138065737,-298.207190160833
738509.45225807139649987221,-11.493652150029,-10.9028138065737,-298.207190160833
738509.45225816185120493174,-11.5398113956114,-10.8751182592242,-298.1887264626
738509.45225825230590999126,-11.5859706411939,-10.9028138065737,-298.197958311716
738509.45225834264419972897,-11.6505935850093,-10.9120456556902,-298.179494613483
738509.45225843309890478849,-11.6690572832423,-10.9489730521561,-298.170262764367
738509.45225852355360984802,-11.6967528305918,-10.9489730521561,-298.170262764367
738509.45225861400831490755,-11.7152165288247,-10.9582049012726,-298.16103091525
738509.45225870446301996708,-11.6782891323588,-10.9489730521561,-298.16103091525
738509.45225879480130970478,-11.6875209814753,-10.9397412030396,-298.16103091525
738509.45225888525601476431,-11.7059846797082,-10.9397412030396,-298.170262764367
738509.45225897571071982384,-11.6967528305918,-10.9397412030396,-298.179494613483
738509.45225906616542488337,-11.7706076235237,-10.9582049012726,-298.179494613483
738509.45225915650371462107,-11.8813898129215,-10.9028138065737,-298.207190160833
738509.45225924695841968060,-11.4290292062136,-10.8935819574572,-298.1887264626
738509.45225933741312474012,-10.8197271645253,-10.7643360698263,-298.151799066134
738509.45225942786782979965,-10.4042939542833,-10.7458723715934,-298.013321329386
738509.45225951832253485918,-10.2196569719535,-10.7920316171758,-298.068712424085
738509.45225960866082459688,-11.1336100344859,-10.6997131260109,-298.087176122318
738509.45225969911552965641,-11.8444624164556,-10.8474227118748,-298.1887264626
738509.45225978957023471594,-11.7890713217566,-10.8935819574572,-298.087176122318
738509.45225988002493977547,-11.7152165288247,-10.9212775048067,-298.114871669668
738509.45225997047964483500,-11.7152165288247,-10.9582049012726,-298.151799066134
738509.45226006081793457270,-11.7059846797082,-10.9489730521561,-298.244117557298
738509.45226015127263963223,-11.7152165288247,-10.9489730521561,-298.207190160833
738509.45226024172734469175,-11.7244483779412,-10.9489730521561,-298.179494613483
738509.45226033218204975128,-11.7244483779412,-10.9582049012726,-298.197958311716
738509.45226042252033948898,-11.6967528305918,-10.9582049012726,-298.216422009949
738509.45226051297504454851,-11.7059846797082,-10.9489730521561,-298.207190160833
738509.45226060342974960804,-11.6875209814753,-10.9397412030396,-298.170262764367
738509.45226069388445466757,-11.7244483779412,-10.9674367503891,-298.207190160833
738509.45226078433915972710,-11.7244483779412,-10.9674367503891,-298.216422009949
738509.45226087467744946480,-11.6967528305918,-10.9489730521561,-298.170262764367
738509.45226096513215452433,-11.6690572832423,-10.9489730521561,-298.170262764367
738509.45226105558685958385,-11.6505935850093,-10.9305093539232,-298.216422009949
738509.45226114604156464338,-11.6505935850093,-10.9212775048067,-298.16103091525
738509.45226123637985438108,-11.6413617358928,-10.9212775048067,-298.142567217017
738509.45226132683455944061,-11.6413617358928,-10.9120456556902,-298.197958311716
738509.45226141728926450014,-11.6228980376598,-10.9028138065737,-298.216422009949
738509.45226150774396955967,-11.5952024903104,-10.8658864101077,-298.105639820551
738509.45226159819867461920,-11.5675069429609,-10.8658864101077,-298.16103091525
738509.45226168853696435690,-11.5675069429609,-10.8474227118748,-298.142567217017
738509.45226177899166941643,-11.5305795464949,-10.8289590136418,-298.068712424085
738509.45226186944637447596,-11.5213476973785,-10.8197271645253,-298.077944273202
738509.45226195990107953548,-11.5213476973785,-10.8289590136418,-298.087176122318
738509.45226205035578459501,-11.4844203009125,-10.8289590136418,-298.077944273202
738509.45226214069407433271,-11.493652150029,-10.8289590136418,-298.031785027619
738509.45226223114877939224,-11.493652150029,-10.8381908627583,-298.124103518784
738509.45226232160348445177,-11.5028839991455,-10.8658864101077,-298.151799066134
738509.45226241205818951130,-11.5305795464949,-10.8935819574572,-298.124103518784
738509.45226250239647924900,-11.5398113956114,-10.9212775048067,-298.16103091525
738509.45226259285118430853,-11.5675069429609,-10.9305093539232,-298.179494613483
738509.45226268330588936806,-11.5675069429609,-10.9305093539232,-298.16103091525
738509.45226277376059442759,-11.5582750938444,-10.9305093539232,-298.1887264626
738509.45226286421529948711,-11.5859706411939,-10.9489730521561,-298.114871669668
738509.45226295455358922482,-11.5767387920774,-10.9582049012726,-298.114871669668
738509.45226304500829428434,-11.5952024903104,-10.9582049012726,-298.114871669668
738509.45226313546299934387,-11.5859706411939,-10.9582049012726,-298.151799066134
738509.45226322591770440340,-11.5952024903104,-10.9489730521561,-298.133335367901
738509.45226331637240946293,-11.5859706411939,-10.9582049012726,-298.059480574969
738509.45226340671069920063,-11.5859706411939,-10.9489730521561,-298.041016876736
738509.45226349716540426016,-11.6044343394269,-10.9674367503891,-298.096407971435
738509.45226358762010931969,-11.5767387920774,-10.9397412030396,-298.124103518784
738509.45226367807481437922,-11.5675069429609,-10.9489730521561,-298.142567217017
738509.45226376841310411692,-11.5490432447279,-10.9397412030396,-298.16103091525
738509.45226385886780917645,-11.5490432447279,-10.9489730521561,-298.151799066134
738509.45226394932251423597,-11.5582750938444,-10.9397412030396,-298.170262764367
738509.45226403977721929550,-11.5582750938444,-10.9489730521561,-298.077944273202
738509.45226413023192435503,-11.5305795464949,-10.9305093539232,-298.105639820551
738509.45226422057021409273,-11.5305795464949,-10.9305093539232,-298.133335367901
738509.45226431102491915226,-11.5582750938444,-10.9397412030396,-298.16103091525
738509.45226440147962421179,-11.5398113956114,-10.9397412030396,-298.077944273202
738509.45226449193432927132,-11.5305795464949,-10.9397412030396,-298.16103091525
738509.45226458238903433084,-11.5398113956114,-10.9397412030396,-298.142567217017
738509.45226467272732406855,-11.5305795464949,-10.9397412030396,-298.133335367901
738509.45226476318202912807,-11.5398113956114,-10.9305093539232,-298.077944273202
738509.45226485363673418760,-11.5582750938444,-10.9582049012726,-298.142567217017
738509.45226494409143924713,-11.5490432447279,-10.9489730521561,-298.133335367901
738509.45226503442972898483,-11.5490432447279,-10.9489730521561,-298.068712424085
738509.45226512488443404436,-11.5582750938444,-10.9489730521561,-298.142567217017
738509.45226521533913910389,-11.5582750938444,-10.9582049012726,-298.096407971435
738509.45226530579384416342,-11.5582750938444,-10.9489730521561,-298.114871669668
738509.45226539624854922295,-11.5490432447279,-10.9397412030396,-298.096407971435
738509.45226548658683896065,-11.5490432447279,-10.9397412030396,-298.133335367901
738509.45226557704154402018,-11.5582750938444,-10.9489730521561,-298.096407971435
738509.45226566749624907970,-11.5490432447279,-10.9582049012726,-298.077944273202
738509.45226575795095413923,-11.5582750938444,-10.9582049012726,-298.133335367901
738509.45226584828924387693,-11.5675069429609,-10.9582049012726,-298.124103518784
738509.45226593874394893646,-11.5582750938444,-10.9489730521561,-298.022553178503
738509.45226602919865399599,-11.5490432447279,-10.9582049012726,-298.105639820551
738509.45226611965335905552,-11.5490432447279,-10.9582049012726,-298.133335367901
738509.45226621010806411505,-11.5582750938444,-10.9582049012726,-298.041016876736
738509.45226630044635385275,-11.5767387920774,-10.9582049012726,-298.096407971435
738509.45226639090105891228,-11.5675069429609,-10.9674367503891,-298.077944273202
738509.45226648135576397181,-11.5582750938444,-10.9582049012726,-298.050248725852
738509.45226657181046903133,-11.5582750938444,-10.9397412030396,-298.041016876736
738509.45226666226517409086,-11.5490432447279,-10.9489730521561,-298.050248725852
738509.45226675260346382856,-11.5952024903104,-10.9674367503891,-298.031785027619
738509.45226684305816888809,-11.5859706411939,-10.9674367503891,-297.994857631153
738509.45226693351287394762,-11.5767387920774,-10.9674367503891,-297.939466536454
738509.45226702396757900715,-11.5767387920774,-10.9582049012726,-298.059480574969
738509.45226711430586874485,-11.5767387920774,-10.9674367503891,-298.050248725852
738509.45226720476057380438,-11.5767387920774,-10.9582049012726,-298.077944273202
738509.45226729521527886391,-11.5859706411939,-10.9582049012726,-298.105639820551
738509.45226738566998392344,-11.5952024903104,-10.9674367503891,-298.124103518784
738509.45226747612468898296,-11.6044343394269,-10.9582049012726,-298.022553178503
738509.45226756646297872066,-11.5952024903104,-10.9582049012726,-298.041016876736
738509.45226765691768378019,-11.6044343394269,-10.9674367503891,-298.050248725852
738509.45226774737238883972,-11.6136661885434,-10.9766685995056,-298.050248725852
738509.45226783782709389925,-11.5952024903104,-10.9582049012726,-298.059480574969
738509.45226792828179895878,-11.6044343394269,-10.9674367503891,-298.068712424085
738509.45226801862008869648,-11.6044343394269,-10.9582049012726,-298.022553178503
738509.45226810907479375601,-11.5952024903104,-10.9582049012726,-298.050248725852
738509.45226819952949881554,-11.5675069429609,-10.9397412030396,-298.096407971435
738509.45226828998420387506,-11.5675069429609,-10.9397412030396,-298.059480574969
738509.45226838032249361277,-11.5490432447279,-10.9489730521561,-298.059480574969
738509.45226847077719867229,-11.5675069429609,-10.9397412030396,-297.967162083804
738509.45226856123190373182,-11.5305795464949,-10.9305093539232,-298.041016876736
738509.45226865168660879135,-11.5028839991455,-10.9305093539232,-298.068712424085
738509.45226874214131385088,-11.5305795464949,-10.9305093539232,-298.031785027619
738509.45226883247960358858,-11.5582750938444,-10.9305093539232,-298.050248725852
738509.45226892293430864811,-11.5767387920774,-10.9397412030396,-298.041016876736
738509.45226901338901370764,-11.6044343394269,-10.9489730521561,-298.050248725852
738509.45226910384371876717,-11.6228980376598,-10.9674367503891,-298.013321329386
738509.45226919429842382669,-11.6321298867763,-10.9674367503891,-298.041016876736
738509.45226928463671356440,-11.6321298867763,-10.9859004486221,-298.041016876736
738509.45226937509141862392,-11.6413617358928,-10.9859004486221,-298.041016876736
738509.45226946554612368345,-11.6321298867763,-10.9859004486221,-298.022553178503
738509.45226955600082874298,-11.6413617358928,-10.9859004486221,-298.050248725852
738509.45226964633911848068,-11.6782891323588,-10.9951322977386,-298.022553178503
738509.45226973679382354021,-11.7152165288247,-10.9766685995056,-297.994857631153
738509.45226982724852859974,-11.8259987182226,-10.9489730521561,-297.994857631153
738509.45226991770323365927,-11.4659566026795,-10.9120456556902,-297.948698385571
738509.45227000815793871880,-10.8104953154088,-10.8289590136418,-297.874843592639
738509.45227009849622845650,-10.4042939542833,-10.7274086733604,-297.837916196173
738509.45227018895093351603,-10.191961424604,-10.7643360698263,-297.856379894406
738509.45227027940563857555,-10.3765984069338,-10.7458723715934,-297.791756950591
738509.45227036986034363508,-11.5028839991455,-10.7089449751274,-297.810220648823
738509.45227046019863337278,-11.8075350199896,-10.8566545609912,-297.81945249794
738509.45227055065333843231,-11.7152165288247,-10.9212775048067,-297.939466536454
738509.45227064110804349184,-11.6875209814753,-10.9582049012726,-297.921002838221
