time_dn,ecg_projection_ll_ra_mV,ecg_projection_la_ra_mV,ecg_projection_vx_rl_mV
738509.44244923745281994343,-10.8381908627583,-10.2565843684194,-298.31797235023
738509.44244932790752500296,-10.8289590136418,-10.247352519303,-298.391827143162
738509.44244941836223006248,-10.8289590136418,-10.247352519303,-298.391827143162
738509.44244950881693512201,-10.8104953154088,-10.2381206701865,-298.419522690512
738509.44244959927164018154,-10.8012634662923,-10.2381206701865,-298.391827143162
738509.44244968960992991924,-10.7920316171758,-10.2196569719535,-298.327204199347
738509.44244978006463497877,-10.7827997680593,-10.2196569719535,-298.382595294046
738509.44244987051934003830,-10.7643360698263,-10.2011932737205,-298.382595294046
738509.44244996097404509783,-10.7366405224769,-10.191961424604,-298.308740501114
738509.44245005142875015736,-10.7181768242439,-10.1642658772546,-298.382595294046
738509.44245014188345521688,-10.6997131260109,-10.1458021790216,-298.354899746696
738509.44245023222174495459,-10.6720175786615,-10.1273384807886,-298.308740501114
738509.44245032267645001411,-10.6535538804285,-10.1088747825556,-298.336436048463
738509.44245041313115507364,-10.6350901821955,-10.0904110843226,-298.34566789758
738509.44245050358586013317,-10.6166264839625,-10.0904110843226,-298.308740501114
738509.44245059404056519270,-10.607394634846,-10.0904110843226,-298.253349406415
738509.44245068437885493040,-10.607394634846,-10.0996429334391,-298.271813104648
738509.44245077483355998993,-10.5981627857295,-10.1088747825556,-298.271813104648
738509.44245086528826504946,-10.5981627857295,-10.1273384807886,-298.244117557298
738509.44245095574297010899,-10.607394634846,-10.1642658772546,-298.281044953764
738509.44245104619767516851,-10.625858333079,-10.1827295754875,-298.34566789758
738509.44245113653596490622,-10.662785729545,-10.210425122837,-298.34566789758
738509.44245122699066996574,-10.6812494277779,-10.2196569719535,-298.354899746696
738509.44245131744537502527,-10.6997131260109,-10.2381206701865,-298.401058992279
738509.44245140790008008480,-10.7089449751274,-10.2381206701865,-298.299508651997
738509.44245149835478514433,-10.7181768242439,-10.247352519303,-298.234885708182
738509.44245158880949020386,-10.7181768242439,-10.2565843684194,-298.382595294046
738509.44245167914777994156,-10.7181768242439,-10.2565843684194,-298.391827143162
738509.44245176960248500109,-10.7181768242439,-10.247352519303,-298.299508651997
738509.44245186005719006062,-10.7181768242439,-10.2565843684194,-298.336436048463
738509.44245195051189512014,-10.7089449751274,-10.2565843684194,-298.327204199347
738509.44245204096660017967,-10.7089449751274,-10.2565843684194,-298.336436048463
738509.44245213130488991737,-10.7089449751274,-10.247352519303,-298.327204199347
738509.44245222175959497690,-10.6997131260109,-10.247352519303,-298.336436048463
738509.44245231221430003643,-10.6997131260109,-10.247352519303,-298.327204199347
738509.44245240266900509596,-10.6904812768944,-10.247352519303,-298.354899746696
738509.44245249312371015549,-10.6904812768944,-10.247352519303,-298.327204199347
738509.44245258346199989319,-10.6720175786615,-10.22888882107,-298.31797235023
738509.44245267391670495272,-10.6535538804285,-10.22888882107,-298.336436048463
738509.44245276437141001225,-10.6166264839625,-10.22888882107,-298.364131595813
738509.44245285482611507177,-10.5889309366131,-10.2196569719535,-298.391827143162
738509.44245294528082013130,-10.5520035401471,-10.191961424604,-298.391827143162
738509.44245303573552519083,-10.5058442945647,-10.2011932737205,-298.31797235023
738509.44245312607381492853,-10.4873805963317,-10.2196569719535,-298.382595294046
738509.44245321652851998806,-10.4781487472152,-10.210425122837,-298.401058992279
738509.44245330698322504759,-10.4966124454482,-10.2196569719535,-298.34566789758
738509.44245339743793010712,-10.4966124454482,-10.2011932737205,-298.34566789758
738509.44245348789263516665,-10.5520035401471,-10.2196569719535,-298.327204199347
738509.44245357823092490435,-10.644322031312,-10.22888882107,-298.354899746696
738509.44245366868562996387,-10.6997131260109,-10.2565843684194,-298.34566789758
738509.44245375914033502340,-10.7181768242439,-10.2658162175359,-298.401058992279
738509.44245384959504008293,-10.7366405224769,-10.2750480666524,-298.308740501114
738509.44245394004974514246,-10.7366405224769,-10.2658162175359,-298.354899746696
738509.44245403038803488016,-10.7458723715934,-10.2842799157689,-298.382595294046
738509.44245412084273993969,-10.7366405224769,-10.2750480666524,-298.373363444929
738509.44245421129744499922,-10.7458723715934,-10.2750480666524,-298.382595294046
738509.44245430175215005875,-10.7551042207099,-10.2750480666524,-298.401058992279
738509.44245439220685511827,-10.8197271645253,-10.2658162175359,-298.391827143162
738509.44245448266156017780,-10.8935819574572,-10.2011932737205,-298.34566789758
738509.44245457299984991550,-10.7551042207099,-10.1827295754875,-298.354899746696
738509.44245466345455497503,-10.191961424604,-10.1365703299051,-298.299508651997
738509.44245475390926003456,-9.7857600634785,-10.0534836878567,-298.299508651997
738509.44245484436396509409,-9.57342753379925,-10.1550340281381,-298.290276802881
738509.44245493481867015362,-9.97962889492477,-10.0165562913907,-298.216422009949
738509.44245502515695989132,-10.8381908627583,-10.0350199896237,-298.262581255531
738509.44245511561166495085,-10.8658864101077,-10.1181066316721,-298.364131595813
738509.44245520606637001038,-10.7827997680593,-10.210425122837,-298.308740501114
738509.44245529652107506990,-10.7551042207099,-10.2381206701865,-298.391827143162
738509.44245538697578012943,-10.7643360698263,-10.2658162175359,-298.373363444929
738509.44245547731406986713,-10.7643360698263,-10.2658162175359,-298.364131595813
738509.44245556776877492666,-10.7643360698263,-10.2750480666524,-298.364131595813
738509.44245565822347998619,-10.7643360698263,-10.2750480666524,-298.391827143162
738509.44245574867818504572,-10.7551042207099,-10.2750480666524,-298.364131595813
738509.44245583913289010525,-10.7458723715934,-10.2658162175359,-298.299508651997
738509.44245592958759516478,-10.7366405224769,-10.2750480666524,-298.308740501114
738509.44245601992588490248,-10.7274086733604,-10.2658162175359,-298.308740501114
738509.44245611038058996201,-10.7274086733604,-10.2658162175359,-298.262581255531
738509.44245620083529502153,-10.7089449751274,-10.2565843684194,-298.327204199347
738509.44245629129000008106,-10.7089449751274,-10.2565843684194,-298.364131595813
738509.44245638174470514059,-10.6997131260109,-10.247352519303,-298.382595294046
738509.44245647208299487829,-10.6904812768944,-10.247352519303,-298.308740501114
738509.44245656253769993782,-10.6812494277779,-10.2381206701865,-298.382595294046
738509.44245665299240499735,-10.662785729545,-10.2196569719535,-298.401058992279
738509.44245674344711005688,-10.6535538804285,-10.2196569719535,-298.354899746696
738509.44245683390181511641,-10.6350901821955,-10.191961424604,-298.336436048463
738509.44245692424010485411,-10.607394634846,-10.1827295754875,-298.364131595813
738509.44245701469480991364,-10.5796990874966,-10.1550340281381,-298.373363444929
738509.44245710514951497316,-10.5520035401471,-10.1365703299051,-298.373363444929
738509.44245719560422003269,-10.5335398419141,-10.1181066316721,-298.354899746696
738509.44245728605892509222,-10.5058442945647,-10.1088747825556,-298.299508651997
738509.44245737651363015175,-10.4966124454482,-10.0996429334391,-298.354899746696
738509.44245746685191988945,-10.4966124454482,-10.0996429334391,-298.373363444929
738509.44245755730662494898,-10.4781487472152,-10.0996429334391,-298.262581255531
738509.44245764776133000851,-10.4781487472152,-10.1181066316721,-298.31797235023
738509.44245773821603506804,-10.4689168980987,-10.1365703299051,-298.373363444929
738509.44245782867074012756,-10.4873805963317,-10.173497726371,-298.327204199347
738509.44245791900902986526,-10.5058442945647,-10.2011932737205,-298.336436048463
738509.44245800946373492479,-10.5335398419141,-10.2196569719535,-298.299508651997
738509.44245809991843998432,-10.5427716910306,-10.22888882107,-298.327204199347
738509.44245819037314504385,-10.5612353892636,-10.247352519303,-298.34566789758
738509.44245828082785010338,-10.5704672383801,-10.2565843684194,-298.354899746696
738509.44245837116613984108,-10.5796990874966,-10.2565843684194,-298.373363444929
738509.44245846162084490061,-10.5796990874966,-10.2565843684194,-298.364131595813
738509.44245855207554996014,-10.5889309366131,-10.2565843684194,-298.253349406415
738509.44245864253025501966,-10.5889309366131,-10.2565843684194,-298.354899746696
738509.44245873298496007919,-10.5796990874966,-10.2565843684194,-298.382595294046
738509.44245882343966513872,-10.5796990874966,-10.2565843684194,-298.401058992279
738509.44245891377795487642,-10.5796990874966,-10.2565843684194,-298.327204199347
738509.44245900423265993595,-10.5704672383801,-10.2565843684194,-298.401058992279
738509.44245909468736499548,-10.5704672383801,-10.2565843684194,-298.401058992279
738509.44245918514207005501,-10.5612353892636,-10.247352519303,-298.299508651997
738509.44245927559677511454,-10.5612353892636,-10.247352519303,-298.373363444929
738509.44245936593506485224,-10.5612353892636,-10.247352519303,-298.364131595813
738509.44245945638976991177,-10.5520035401471,-10.2565843684194,-298.34566789758
738509.44245954684447497129,-10.5427716910306,-10.247352519303,-298.354899746696
738509.44245963729918003082,-10.5427716910306,-10.247352519303,-298.364131595813
738509.44245972775388509035,-10.5150761436811,-10.22888882107,-298.364131595813
738509.44245981809217482805,-10.4873805963317,-10.2381206701865,-298.336436048463
738509.44245990854687988758,-10.4596850489822,-10.22888882107,-298.299508651997
738509.44245999900158494711,-10.4319895016327,-10.2011932737205,-298.299508651997
738509.44246008945629000664,-10.3765984069338,-10.2011932737205,-298.31797235023
738509.44246017991099506617,-10.3673665578173,-10.22888882107,-298.299508651997
738509.44246027036570012569,-10.3581347087008,-10.22888882107,-298.336436048463
738509.44246036070398986340,-10.3581347087008,-10.22888882107,-298.354899746696
738509.44246045115869492292,-10.3765984069338,-10.22888882107,-298.281044953764
738509.44246054161339998245,-10.4042939542833,-10.2196569719535,-298.271813104648
738509.44246063206810504198,-10.4689168980987,-10.22888882107,-298.271813104648
738509.44246072252281010151,-10.5427716910306,-10.2381206701865,-298.281044953764
738509.44246081286109983921,-10.5889309366131,-10.2658162175359,-298.290276802881
738509.44246090331580489874,-10.607394634846,-10.2658162175359,-298.281044953764
738509.44246099377050995827,-10.625858333079,-10.2750480666524,-298.271813104648
738509.44246108422521501780,-10.625858333079,-10.2658162175359,-298.327204199347
738509.44246117467992007732,-10.625858333079,-10.2750480666524,-298.354899746696
738509.44246126501820981503,-10.625858333079,-10.2658162175359,-298.308740501114
738509.44246135547291487455,-10.625858333079,-10.2750480666524,-298.327204199347
738509.44246144592761993408,-10.662785729545,-10.2658162175359,-298.336436048463
738509.44246153638232499361,-10.7551042207099,-10.247352519303,-298.364131595813
738509.44246162683703005314,-10.6812494277779,-10.1827295754875,-298.225653859066
738509.44246171729173511267,-10.1458021790216,-10.1550340281381,-298.271813104648
738509.44246180763002485037,-9.73960081789605,-10.0534836878567,-298.253349406415
738509.44246189808472990990,-9.48110904263436,-10.1273384807886,-298.31797235023
738509.44246198853943496943,-9.79499191259499,-10.0165562913907,-298.087176122318
738509.44246207899414002895,-10.6997131260109,-9.98886074404126,-298.124103518784
738509.44246216944884508848,-10.8197271645253,-10.0811792352062,-298.281044953764
738509.44246225978713482618,-10.7274086733604,-10.1458021790216,-298.34566789758
738509.44246235024183988571,-10.662785729545,-10.22888882107,-298.364131595813
738509.44246244069654494524,-10.662785729545,-10.2565843684194,-298.354899746696
738509.44246253115125000477,-10.6720175786615,-10.2750480666524,-298.354899746696
738509.44246262160595506430,-10.662785729545,-10.2750480666524,-298.373363444929
738509.44246271206066012383,-10.662785729545,-10.2750480666524,-298.382595294046
738509.44246280239894986153,-10.6535538804285,-10.2750480666524,-298.373363444929
738509.44246289285365492105,-10.644322031312,-10.2842799157689,-298.410290841395
738509.44246298330835998058,-10.6350901821955,-10.2750480666524,-298.391827143162
738509.44246307376306504011,-10.6350901821955,-10.2750480666524,-298.336436048463
738509.44246316421777009964,-10.6350901821955,-10.2658162175359,-298.373363444929
738509.44246325455605983734,-10.625858333079,-10.2658162175359,-298.354899746696
738509.44246334501076489687,-10.625858333079,-10.2658162175359,-298.382595294046
738509.44246343546546995640,-10.607394634846,-10.2565843684194,-298.34566789758
738509.44246352592017501593,-10.5981627857295,-10.247352519303,-298.391827143162
738509.44246361637488007545,-10.5796990874966,-10.2381206701865,-298.391827143162
738509.44246370671316981316,-10.5796990874966,-10.22888882107,-298.31797235023
738509.44246379716787487268,-10.5520035401471,-10.210425122837,-298.382595294046
738509.44246388762257993221,-10.5427716910306,-10.2011932737205,-298.354899746696
738509.44246397807728499174,-10.5150761436811,-10.1827295754875,-298.382595294046
738509.44246406853199005127,-10.5058442945647,-10.173497726371,-298.281044953764
738509.44246415898669511080,-10.4781487472152,-10.1458021790216,-298.364131595813
738509.44246424932498484850,-10.4504531998657,-10.1365703299051,-298.34566789758
738509.44246433977968990803,-10.4412213507492,-10.1088747825556,-298.364131595813
738509.44246443023439496756,-10.4227576525162,-10.1088747825556,-298.34566789758
738509.44246452068910002708,-10.4135258033998,-10.0904110843226,-298.327204199347
738509.44246461114380508661,-10.3950621051668,-10.0904110843226,-298.34566789758
738509.44246470148209482431,-10.3950621051668,-10.0996429334391,-298.354899746696
738509.44246479193679988384,-10.3858302560503,-10.1181066316721,-298.299508651997
738509.44246488239150494337,-10.3858302560503,-10.1458021790216,-298.354899746696
738509.44246497284621000290,-10.4042939542833,-10.173497726371,-298.401058992279
738509.44246506330091506243,-10.4319895016327,-10.210425122837,-298.281044953764
738509.44246515363920480013,-10.4504531998657,-10.2196569719535,-298.34566789758
738509.44246524409390985966,-10.4689168980987,-10.2381206701865,-298.382595294046
738509.44246533454861491919,-10.4781487472152,-10.247352519303,-298.336436048463
738509.44246542500331997871,-10.4873805963317,-10.2658162175359,-298.364131595813
738509.44246551545802503824,-10.4873805963317,-10.2565843684194,-298.133335367901
738509.44246560591273009777,-10.4873805963317,-10.2658162175359,-298.253349406415
738509.44246569625101983547,-10.4873805963317,-10.2565843684194,-298.31797235023
738509.44246578670572489500,-10.4873805963317,-10.2658162175359,-298.31797235023
738509.44246587716042995453,-10.4781487472152,-10.2565843684194,-298.31797235023
738509.44246596761513501406,-10.4781487472152,-10.2565843684194,-298.262581255531
738509.44246605806984007359,-10.4689168980987,-10.2565843684194,-298.290276802881
738509.44246614840812981129,-10.4596850489822,-10.2565843684194,-298.262581255531
738509.44246623886283487082,-10.4596850489822,-10.247352519303,-298.253349406415
738509.44246632931753993034,-10.4504531998657,-10.247352519303,-298.281044953764
738509.44246641977224498987,-10.4504531998657,-10.2565843684194,-298.244117557298
738509.44246651022695004940,-10.4412213507492,-10.247352519303,-298.308740501114
738509.44246660056523978710,-10.4412213507492,-10.2565843684194,-298.336436048463
738509.44246669101994484663,-10.4227576525162,-10.247352519303,-298.336436048463
738509.44246678147464990616,-10.4319895016327,-10.2565843684194,-298.364131595813
738509.44246687192935496569,-10.4227576525162,-10.247352519303,-298.391827143162
738509.44246696238406002522,-10.4227576525162,-10.2565843684194,-298.327204199347
738509.44246705283876508474,-10.4227576525162,-10.2565843684194,-298.373363444929
738509.44246714317705482244,-10.4227576525162,-10.2658162175359,-298.373363444929
738509.44246723363175988197,-10.4319895016327,-10.2565843684194,-298.34566789758
738509.44246732408646494150,-10.4412213507492,-10.2658162175359,-298.308740501114
738509.44246741454117000103,-10.4227576525162,-10.247352519303,-298.401058992279
738509.44246750499587506056,-10.3950621051668,-10.2565843684194,-298.382595294046
738509.44246759533416479826,-10.3581347087008,-10.2565843684194,-298.290276802881
738509.44246768578886985779,-10.3396710104678,-10.2381206701865,-298.34566789758
738509.44246777624357491732,-10.2842799157689,-10.22888882107,-298.373363444929
738509.44246786669827997684,-10.2658162175359,-10.22888882107,-298.391827143162
738509.44246795715298503637,-10.247352519303,-10.247352519303,-298.34566789758
738509.44246804749127477407,-10.247352519303,-10.2381206701865,-298.391827143162
738509.44246813794597983360,-10.2565843684194,-10.2381206701865,-298.391827143162
738509.44246822840068489313,-10.2842799157689,-10.2196569719535,-298.271813104648
738509.44246831885538995266,-10.3489028595843,-10.2381206701865,-298.34566789758
738509.44246840931009501219,-10.4319895016327,-10.247352519303,-298.373363444929
738509.44246849976480007172,-10.4689168980987,-10.2750480666524,-298.34566789758
738509.44246859010308980942,-10.4781487472152,-10.2750480666524,-298.364131595813
738509.44246868055779486895,-10.4966124454482,-10.2842799157689,-298.336436048463
738509.44246877101249992847,-10.4966124454482,-10.2750480666524,-298.336436048463
738509.44246886146720498800,-10.5058442945647,-10.2842799157689,-298.31797235023
738509.44246895192191004753,-10.5150761436811,-10.2842799157689,-298.308740501114
738509.44246904226019978523,-10.5150761436811,-10.2842799157689,-298.151799066134
738509.44246913271490484476,-10.5335398419141,-10.2750480666524,-298.244117557298
738509.44246922316960990429,-10.607394634846,-10.2565843684194,-298.336436048463
738509.44246931362431496382,-10.5981627857295,-10.191961424604,-298.299508651997
738509.44246940407902002335,-10.0904110843226,-10.1550340281381,-298.234885708182
738509.44246949441730976105,-9.64728232673116,-10.0627155369732,-298.197958311716
738509.44246958487201482058,-9.37032685323649,-10.1181066316721,-298.244117557298
738509.44246967532671988010,-9.37955870235298,-10.1088747825556,-298.225653859066
738509.44246976578142493963,-10.0350199896237,-9.90577410199286,-298.1887264626
738509.44246985623612999916,-10.6904812768944,-10.0627155369732,-298.262581255531
738509.44246994669083505869,-10.607394634846,-10.1365703299051,-298.281044953764
738509.44247003702912479639,-10.5427716910306,-10.2196569719535,-298.271813104648
738509.44247012748382985592,-10.5335398419141,-10.2565843684194,-298.271813104648
738509.44247021793853491545,-10.5427716910306,-10.2750480666524,-298.327204199347
738509.44247030839323997498,-10.5427716910306,-10.2750480666524,-298.336436048463
738509.44247039884794503450,-10.5335398419141,-10.2842799157689,-298.31797235023
738509.44247048918623477221,-10.5243079927976,-10.2750480666524,-298.327204199347
738509.44247057964093983173,-10.5243079927976,-10.2842799157689,-298.327204199347
738509.44247067009564489126,-10.5150761436811,-10.2750480666524,-298.336436048463
738509.44247076055034995079,-10.5058442945647,-10.2658162175359,-298.391827143162
738509.44247085100505501032,-10.5058442945647,-10.2750480666524,-298.271813104648
738509.44247094134334474802,-10.4966124454482,-10.2658162175359,-298.327204199347
738509.44247103179804980755,-10.4873805963317,-10.2658162175359,-298.327204199347
738509.44247112225275486708,-10.4781487472152,-10.247352519303,-298.382595294046
738509.44247121270745992661,-10.4689168980987,-10.247352519303,-298.34566789758
738509.44247130316216498613,-10.4596850489822,-10.2381206701865,-298.290276802881
738509.44247139361687004566,-10.4596850489822,-10.2381206701865,-298.354899746696
738509.44247148395515978336,-10.4319895016327,-10.2196569719535,-298.34566789758
738509.44247157440986484289,-10.4227576525162,-10.2196569719535,-298.34566789758
738509.44247166486456990242,-10.4042939542833,-10.191961424604,-298.327204199347
738509.44247175531927496195,-10.3858302560503,-10.173497726371,-298.354899746696
738509.44247184577398002148,-10.3489028595843,-10.1550340281381,-298.327204199347
738509.44247193611226975918,-10.3304391613514,-10.1365703299051,-298.281044953764
738509.44247202656697481871,-10.3119754631184,-10.1181066316721,-298.31797235023
738509.44247211702167987823,-10.2842799157689,-10.0996429334391,-298.308740501114
738509.44247220747638493776,-10.2750480666524,-10.0996429334391,-298.253349406415
738509.44247229793108999729,-10.2565843684194,-10.0904110843226,-298.31797235023
738509.44247238826937973499,-10.2565843684194,-10.0996429334391,-298.336436048463
738509.44247247872408479452,-10.247352519303,-10.1181066316721,-298.244117557298
738509.44247256917878985405,-10.2565843684194,-10.1458021790216,-298.197958311716
738509.44247265963349491358,-10.2565843684194,-10.1642658772546,-298.253349406415
738509.44247275008819997311,-10.2842799157689,-10.2011932737205,-298.308740501114
738509.44247284054290503263,-10.3027436140019,-10.2196569719535,-298.308740501114
738509.44247293088119477034,-10.3212073122349,-10.2381206701865,-298.354899746696
738509.44247302133589982986,-10.3396710104678,-10.247352519303,-298.34566789758
738509.44247311179060488939,-10.3489028595843,-10.2565843684194,-298.290276802881
738509.44247320224530994892,-10.3489028595843,-10.2565843684194,-298.382595294046
738509.44247329270001500845,-10.3489028595843,-10.2658162175359,-298.382595294046
738509.44247338303830474615,-10.3489028595843,-10.2565843684194,-298.281044953764
738509.44247347349300980568,-10.3489028595843,-10.2565843684194,-298.336436048463
738509.44247356394771486521,-10.3489028595843,-10.2658162175359,-298.364131595813
738509.44247365440241992474,-10.3396710104678,-10.2565843684194,-298.34566789758
738509.44247374485712498426,-10.3396710104678,-10.2658162175359,-298.299508651997
738509.44247383519541472197,-10.3304391613514,-10.2565843684194,-298.31797235023
738509.44247392565011978149,-10.3396710104678,-10.2658162175359,-298.299508651997
738509.44247401610482484102,-10.3212073122349,-10.2565843684194,-298.31797235023
738509.44247410655952990055,-10.3212073122349,-10.2565843684194,-298.290276802881
738509.44247419701423496008,-10.3119754631184,-10.247352519303,-298.308740501114
738509.44247428746894001961,-10.3119754631184,-10.2565843684194,-298.299508651997
738509.44247437780722975731,-10.3119754631184,-10.247352519303,-298.299508651997
738509.44247446826193481684,-10.3119754631184,-10.2565843684194,-298.281044953764
738509.44247455871663987637,-10.3027436140019,-10.2565843684194,-298.262581255531
738509.44247464917134493589,-10.3119754631184,-10.2565843684194,-298.281044953764
738509.44247473962604999542,-10.3027436140019,-10.2565843684194,-298.271813104648
738509.44247482996433973312,-10.3027436140019,-10.2658162175359,-298.271813104648
738509.44247492041904479265,-10.3027436140019,-10.2565843684194,-298.271813104648
738509.44247501087374985218,-10.3119754631184,-10.2658162175359,-298.271813104648
738509.44247510132845491171,-10.3119754631184,-10.2658162175359,-298.299508651997
738509.44247519178315997124,-10.3212073122349,-10.2658162175359,-298.336436048463
738509.44247528212144970894,-10.3212073122349,-10.2658162175359,-298.373363444929
738509.44247537257615476847,-10.3212073122349,-10.2658162175359,-298.354899746696
738509.44247546303085982800,-10.3304391613514,-10.2750480666524,-298.281044953764
738509.44247555348556488752,-10.3304391613514,-10.2658162175359,-298.354899746696
738509.44247564394026994705,-10.3304391613514,-10.2750480666524,-298.364131595813
738509.44247573439497500658,-10.3304391613514,-10.2750480666524,-298.31797235023
738509.44247582473326474428,-10.3304391613514,-10.2750480666524,-298.336436048463
738509.44247591518796980381,-10.3304391613514,-10.2658162175359,-298.364131595813
738509.44247600564267486334,-10.3396710104678,-10.2750480666524,-298.373363444929
738509.44247609609737992287,-10.3396710104678,-10.2750480666524,-298.179494613483
738509.44247618655208498240,-10.3396710104678,-10.2750480666524,-298.244117557298
738509.44247627689037472010,-10.3396710104678,-10.2750480666524,-298.34566789758
738509.44247636734507977962,-10.3396710104678,-10.2750480666524,-298.327204199347
738509.44247645779978483915,-10.3396710104678,-10.2750480666524,-298.327204199347
738509.44247654825448989868,-10.3396710104678,-10.2750480666524,-298.364131595813
738509.44247663870919495821,-10.3396710104678,-10.2750480666524,-298.336436048463
738509.44247672904748469591,-10.3396710104678,-10.2750480666524,-298.308740501114
738509.44247681950218975544,-10.3396710104678,-10.2750480666524,-298.364131595813
738509.44247690995689481497,-10.3396710104678,-10.2750480666524,-298.382595294046
738509.44247700041159987450,-10.3489028595843,-10.2750480666524,-298.281044953764
738509.44247709086630493402,-10.3396710104678,-10.2750480666524,-298.364131595813
738509.44247718132100999355,-10.3396710104678,-10.2750480666524,-298.391827143162
738509.44247727165929973125,-10.3396710104678,-10.2750480666524,-298.336436048463
738509.44247736211400479078,-10.3396710104678,-10.2750480666524,-298.31797235023
738509.44247745256870985031,-10.3396710104678,-10.2750480666524,-298.34566789758
738509.44247754302341490984,-10.3212073122349,-10.2658162175359,-298.354899746696
738509.44247763347811996937,-10.2935117648854,-10.247352519303,-298.290276802881
738509.44247772381640970707,-10.247352519303,-10.2565843684194,-298.299508651997
738509.44247781427111476660,-10.247352519303,-10.2381206701865,-298.336436048463
738509.44247790472581982613,-10.2011932737205,-10.22888882107,-298.31797235023
738509.44247799518052488565,-10.1827295754875,-10.2381206701865,-298.299508651997
738509.44247808563522994518,-10.1642658772546,-10.2196569719535,-298.290276802881
738509.44247817597351968288,-10.1827295754875,-10.2381206701865,-298.31797235023
738509.44247826642822474241,-10.2196569719535,-10.2196569719535,-298.31797235023
738509.44247835688292980194,-10.2565843684194,-10.247352519303,-298.31797235023
738509.44247844733763486147,-10.3027436140019,-10.247352519303,-298.290276802881
738509.44247853779233992100,-10.3489028595843,-10.2658162175359,-298.308740501114
738509.44247862824704498053,-10.3581347087008,-10.2750480666524,-298.34566789758
738509.44247871858533471823,-10.3765984069338,-10.2935117648854,-298.31797235023
738509.44247880904003977776,-10.3765984069338,-10.2842799157689,-298.327204199347
738509.44247889949474483728,-10.3765984069338,-10.2935117648854,-298.31797235023
738509.44247898994944989681,-10.3765984069338,-10.2842799157689,-298.308740501114
738509.44247908040415495634,-10.3858302560503,-10.3027436140019,-298.327204199347
738509.44247917074244469404,-10.3858302560503,-10.2935117648854,-298.34566789758
738509.44247926119714975357,-10.4227576525162,-10.2842799157689,-298.336436048463
738509.44247935165185481310,-10.5243079927976,-10.2196569719535,-298.271813104648
738509.44247944210655987263,-10.3119754631184,-10.173497726371,-298.34566789758
738509.44247953256126493216,-9.76729636524552,-10.1365703299051,-298.290276802881
738509.44247962301596999168,-9.40725424970244,-10.0904110843226,-298.216422009949
738509.44247971335425972939,-9.24108096560564,-10.1458021790216,-298.142567217017
738509.44247980380896478891,-9.73960081789605,-9.93346964934233,-298.244117557298
738509.44247989426366984844,-10.5150761436811,-10.0350199896237,-298.327204199347
738509.44247998471837490797,-10.4689168980987,-10.1181066316721,-298.299508651997
738509.44248007517307996750,-10.3858302560503,-10.2196569719535,-298.364131595813
738509.44248016551136970520,-10.3858302560503,-10.2658162175359,-298.382595294046
738509.44248025596607476473,-10.3950621051668,-10.2842799157689,-298.373363444929
738509.44248034642077982426,-10.3950621051668,-10.2842799157689,-298.327204199347
738509.44248043687548488379,-10.3858302560503,-10.2935117648854,-298.34566789758
738509.44248052733018994331,-10.3858302560503,-10.2935117648854,-298.373363444929
738509.44248061766847968102,-10.3765984069338,-10.2935117648854,-298.271813104648
738509.44248070812318474054,-10.3765984069338,-10.2842799157689,-298.391827143162
738509.44248079857788980007,-10.3673665578173,-10.2842799157689,-298.34566789758
738509.44248088903259485960,-10.3581347087008,-10.2842799157689,-298.34566789758
738509.44248097948729991913,-10.3489028595843,-10.2842799157689,-298.290276802881
738509.44248106994200497866,-10.3581347087008,-10.2842799157689,-298.354899746696
738509.44248116028029471636,-10.3489028595843,-10.2658162175359,-298.354899746696
738509.44248125073499977589,-10.3396710104678,-10.2750480666524,-298.308740501114
738509.44248134118970483541,-10.3304391613514,-10.2565843684194,-298.382595294046
738509.44248143164440989494,-10.3119754631184,-10.2565843684194,-298.364131595813
738509.44248152209911495447,-10.3027436140019,-10.2381206701865,-298.354899746696
738509.44248161243740469217,-10.2842799157689,-10.22888882107,-298.31797235023
738509.44248170289210975170,-10.2658162175359,-10.210425122837,-298.34566789758
738509.44248179334681481123,-10.247352519303,-10.191961424604,-298.354899746696
738509.44248188380151987076,-10.2196569719535,-10.1642658772546,-298.253349406415
738509.44248197425622493029,-10.191961424604,-10.1458021790216,-298.271813104648
738509.44248206459451466799,-10.1642658772546,-10.1181066316721,-298.308740501114
738509.44248215504921972752,-10.1365703299051,-10.1088747825556,-298.207190160833
738509.44248224550392478704,-10.1181066316721,-10.0904110843226,-298.244117557298
738509.44248233595862984657,-10.0996429334391,-10.0719473860897,-298.281044953764
738509.44248242641333490610,-10.0904110843226,-10.0811792352062,-298.225653859066
738509.44248251686803996563,-10.0811792352062,-10.0811792352062,-298.244117557298
738509.44248260720632970333,-10.0811792352062,-10.0996429334391,-298.253349406415
738509.44248269766103476286,-10.0811792352062,-10.1273384807886,-298.281044953764
738509.44248278811573982239,-10.0996429334391,-10.1550340281381,-298.299508651997
738509.44248287857044488192,-10.1181066316721,-10.1827295754875,-298.262581255531
738509.44248296902514994144,-10.1365703299051,-10.2011932737205,-298.299508651997
738509.44248305936343967915,-10.1550340281381,-10.2196569719535,-298.299508651997
738509.44248314981814473867,-10.173497726371,-10.2381206701865,-298.308740501114
738509.44248324027284979820,-10.1827295754875,-10.247352519303,-298.225653859066
738509.44248333072755485773,-10.191961424604,-10.2565843684194,-298.34566789758
738509.44248342118225991726,-10.191961424604,-10.2565843684194,-298.299508651997
738509.44248351152054965496,-10.191961424604,-10.2658162175359,-298.271813104648
738509.44248360197525471449,-10.2011932737205,-10.2658162175359,-298.262581255531
738509.44248369242995977402,-10.191961424604,-10.2565843684194,-298.281044953764
738509.44248378288466483355,-10.191961424604,-10.2565843684194,-298.299508651997
738509.44248387333936989307,-10.1827295754875,-10.2565843684194,-298.271813104648
738509.44248396379407495260,-10.1827295754875,-10.2565843684194,-298.290276802881
738509.44248405413236469030,-10.173497726371,-10.2565843684194,-298.327204199347
738509.44248414458706974983,-10.173497726371,-10.2565843684194,-298.336436048463
738509.44248423504177480936,-10.173497726371,-10.247352519303,-298.364131595813
738509.44248432549647986889,-10.1642658772546,-10.2565843684194,-298.34566789758
738509.44248441595118492842,-10.1550340281381,-10.247352519303,-298.391827143162
738509.44248450628947466612,-10.1642658772546,-10.2565843684194,-298.364131595813
738509.44248459674417972565,-10.1550340281381,-10.247352519303,-298.31797235023
738509.44248468719888478518,-10.1550340281381,-10.2565843684194,-298.308740501114
738509.44248477765358984470,-10.1550340281381,-10.2565843684194,-298.354899746696
738509.44248486810829490423,-10.1550340281381,-10.2565843684194,-298.34566789758
738509.44248495844658464193,-10.1642658772546,-10.2565843684194,-298.327204199347
738509.44248504890128970146,-10.1642658772546,-10.2565843684194,-298.382595294046
738509.44248513935599476099,-10.1642658772546,-10.2658162175359,-298.364131595813
738509.44248522981069982052,-10.173497726371,-10.2565843684194,-298.336436048463
738509.44248532026540488005,-10.173497726371,-10.2658162175359,-298.31797235023
738509.44248541072010993958,-10.173497726371,-10.2565843684194,-298.364131595813
738509.44248550105839967728,-10.1827295754875,-10.2750480666524,-298.382595294046
738509.44248559151310473680,-10.1827295754875,-10.2658162175359,-298.327204199347
738509.44248568196780979633,-10.191961424604,-10.2750480666524,-298.336436048463
738509.44248577242251485586,-10.1827295754875,-10.2658162175359,-298.34566789758
738509.44248586287721991539,-10.1827295754875,-10.2750480666524,-298.364131595813
738509.44248595321550965309,-10.191961424604,-10.2750480666524,-298.308740501114
738509.44248604367021471262,-10.1827295754875,-10.2750480666524,-298.354899746696
738509.44248613412491977215,-10.1827295754875,-10.2750480666524,-298.308740501114
738509.44248622457962483168,-10.191961424604,-10.2842799157689,-298.281044953764
738509.44248631503432989120,-10.191961424604,-10.2750480666524,-298.290276802881
738509.44248640537261962891,-10.191961424604,-10.2842799157689,-298.308740501114
738509.44248649582732468843,-10.191961424604,-10.2750480666524,-298.336436048463
738509.44248658628202974796,-10.191961424604,-10.2842799157689,-298.354899746696
738509.44248667673673480749,-10.191961424604,-10.2842799157689,-298.364131595813
738509.44248676719143986702,-10.191961424604,-10.2750480666524,-298.234885708182
738509.44248685764614492655,-10.191961424604,-10.2842799157689,-298.31797235023
738509.44248694798443466425,-10.191961424604,-10.2750480666524,-298.244117557298
738509.44248703843913972378,-10.191961424604,-10.2842799157689,-298.244117557298
738509.44248712889384478331,-10.2011932737205,-10.2750480666524,-298.244117557298
738509.44248721934854984283,-10.2011932737205,-10.2842799157689,-298.262581255531
738509.44248730980325490236,-10.191961424604,-10.2750480666524,-298.262581255531
738509.44248740014154464006,-10.191961424604,-10.2842799157689,-298.290276802881
738509.44248749059624969959,-10.1642658772546,-10.2658162175359,-298.290276802881
738509.44248758105095475912,-10.1365703299051,-10.2381206701865,-298.31797235023
738509.44248767150565981865,-10.0996429334391,-10.22888882107,-298.336436048463
738509.44248776196036487818,-10.0904110843226,-10.2196569719535,-298.262581255531
738509.44248785229865461588,-10.0627155369732,-10.191961424604,-298.308740501114
738509.44248794275335967541,-9.98886074404126,-10.173497726371,-298.271813104648
738509.44248803320806473494,-10.0165562913907,-10.2196569719535,-298.34566789758
738509.44248812366276979446,-10.0627155369732,-10.2196569719535,-298.373363444929
738509.44248821411747485399,-10.0904110843226,-10.210425122837,-298.290276802881
738509.44248830457217991352,-10.1458021790216,-10.247352519303,-298.327204199347
738509.44248839491046965122,-10.173497726371,-10.2750480666524,-298.34566789758
738509.44248848536517471075,-10.2196569719535,-10.2935117648854,-298.391827143162
738509.44248857581987977028,-10.2196569719535,-10.2935117648854,-298.31797235023
738509.44248866627458482981,-10.191961424604,-10.2750480666524,-298.354899746696
738509.44248875672928988934,-10.191961424604,-10.2658162175359,-298.382595294046
738509.44248884706757962704,-10.2011932737205,-10.2842799157689,-298.373363444929
738509.44248893752228468657,-10.22888882107,-10.3212073122349,-298.327204199347
738509.44248902797698974609,-10.247352519303,-10.3396710104678,-298.354899746696
738509.44248911843169480562,-10.2658162175359,-10.3489028595843,-298.34566789758
738509.44248920888639986515,-10.3027436140019,-10.3304391613514,-298.327204199347
738509.44248929922468960285,-10.4042939542833,-10.247352519303,-298.364131595813
738509.44248938967939466238,-10.0904110843226,-10.210425122837,-298.327204199347
738509.44248948013409972191,-9.53650013733329,-10.1458021790216,-298.1887264626
738509.44248957058880478144,-9.19492172002319,-10.1365703299051,-298.271813104648
738509.44248966104350984097,-9.1026032288583,-10.1273384807886,-298.290276802881
738509.44248975149821490049,-9.75806451612903,-9.88731040375988,-298.290276802881
738509.44248984183650463820,-10.3673665578173,-10.0442518387402,-298.354899746696
738509.44248993229120969772,-10.3027436140019,-10.1458021790216,-298.373363444929
738509.44249002274591475725,-10.22888882107,-10.247352519303,-298.364131595813
738509.44249011320061981678,-10.2381206701865,-10.3027436140019,-298.299508651997
738509.44249020365532487631,-10.2381206701865,-10.3119754631184,-298.197958311716
738509.44249029399361461401,-10.2381206701865,-10.3212073122349,-298.253349406415
738509.44249038444831967354,-10.2381206701865,-10.3212073122349,-298.234885708182
738509.44249047490302473307,-10.2381206701865,-10.3212073122349,-298.253349406415
738509.44249056535772979259,-10.2381206701865,-10.3304391613514,-298.281044953764
738509.44249065581243485212,-10.22888882107,-10.3119754631184,-298.271813104648
738509.44249074615072458982,-10.2196569719535,-10.3212073122349,-298.253349406415
738509.44249083660542964935,-10.210425122837,-10.3119754631184,-298.34566789758
738509.44249092706013470888,-10.210425122837,-10.3027436140019,-298.34566789758
738509.44249101751483976841,-10.2011932737205,-10.2842799157689,-298.281044953764
738509.44249110796954482794,-10.210425122837,-10.3119754631184,-298.34566789758
738509.44249119842424988747,-10.210425122837,-10.2935117648854,-298.290276802881
738509.44249128876253962517,-10.2011932737205,-10.2842799157689,-298.281044953764
738509.44249137921724468470,-10.2011932737205,-10.2658162175359,-298.308740501114
738509.44249146967194974422,-10.191961424604,-10.2658162175359,-298.31797235023
738509.44249156012665480375,-10.173497726371,-10.2381206701865,-298.327204199347
738509.44249165058135986328,-10.1642658772546,-10.2196569719535,-298.308740501114
738509.44249174091964960098,-10.1273384807886,-10.173497726371,-298.281044953764
738509.44249183137435466051,-10.1273384807886,-10.173497726371,-298.271813104648
738509.44249192182905972004,-10.0904110843226,-10.1365703299051,-298.299508651997
738509.44249201228376477957,-10.0719473860897,-10.1181066316721,-298.234885708182
738509.44249210273846983910,-10.0811792352062,-10.0996429334391,-298.234885708182
738509.44249219307675957680,-10.0627155369732,-10.0996429334391,-298.244117557298
738509.44249228353146463633,-10.0257881405072,-10.0904110843226,-298.225653859066
738509.44249237398616969585,-10.0165562913907,-10.0811792352062,-298.281044953764
738509.44249246444087475538,-10.0073244422742,-10.0811792352062,-298.327204199347
738509.44249255489557981491,-10.0165562913907,-10.0904110843226,-298.308740501114
738509.44249264535028487444,-10.0350199896237,-10.1365703299051,-298.244117557298
738509.44249273568857461214,-10.0534836878567,-10.1642658772546,-298.308740501114
738509.44249282614327967167,-10.0811792352062,-10.210425122837,-298.31797235023
738509.44249291659798473120,-10.0904110843226,-10.2196569719535,-298.271813104648
738509.44249300705268979073,-10.1181066316721,-10.247352519303,-298.327204199347
738509.44249309750739485025,-10.1458021790216,-10.2658162175359,-298.373363444929
738509.44249318784568458796,-10.1642658772546,-10.2750480666524,-298.299508651997
738509.44249327830038964748,-10.173497726371,-10.2750480666524,-298.327204199347
738509.44249336875509470701,-10.1642658772546,-10.2750480666524,-298.327204199347
738509.44249345920979976654,-10.1827295754875,-10.2842799157689,-298.281044953764
738509.44249354966450482607,-10.1827295754875,-10.2750480666524,-298.262581255531
738509.44249364000279456377,-10.1827295754875,-10.2750480666524,-298.290276802881
738509.44249373045749962330,-10.1827295754875,-10.2750480666524,-298.142567217017
738509.44249382091220468283,-10.1827295754875,-10.2750480666524,-298.225653859066
738509.44249391136690974236,-10.1827295754875,-10.2842799157689,-298.336436048463
738509.44249400182161480188,-10.173497726371,-10.2658162175359,-298.34566789758
738509.44249409227631986141,-10.191961424604,-10.2658162175359,-298.290276802881
738509.44249418261460959911,-10.173497726371,-10.2658162175359,-298.308740501114
738509.44249427306931465864,-10.173497726371,-10.2658162175359,-298.382595294046
738509.44249436352401971817,-10.173497726371,-10.2750480666524,-298.373363444929
738509.44249445397872477770,-10.1550340281381,-10.2565843684194,-298.290276802881
738509.44249454443342983723,-10.1642658772546,-10.2750480666524,-298.336436048463
738509.44249463477171957493,-10.173497726371,-10.2658162175359,-298.391827143162
738509.44249472522642463446,-10.1827295754875,-10.2750480666524,-298.391827143162
738509.44249481568112969398,-10.173497726371,-10.2750480666524,-298.336436048463
738509.44249490613583475351,-10.1827295754875,-10.3027436140019,-298.290276802881
738509.44249499659053981304,-10.2011932737205,-10.2935117648854,-298.290276802881
738509.44249508692882955074,-10.191961424604,-10.2842799157689,-298.290276802881
738509.44249517738353461027,-10.2011932737205,-10.2935117648854,-298.299508651997
738509.44249526783823966980,-10.2011932737205,-10.2750480666524,-298.327204199347
738509.44249535829294472933,-10.2011932737205,-10.2750480666524,-298.364131595813
738509.44249544874764978886,-10.210425122837,-10.2750480666524,-298.308740501114
738509.44249553920235484838,-10.210425122837,-10.2842799157689,-298.336436048463
738509.44249562954064458609,-10.2196569719535,-10.3027436140019,-298.327204199347
738509.44249571999534964561,-10.2196569719535,-10.3027436140019,-298.34566789758
738509.44249581045005470514,-10.210425122837,-10.2842799157689,-298.290276802881
738509.44249590090475976467,-10.22888882107,-10.3027436140019,-298.327204199347
738509.44249599135946482420,-10.2381206701865,-10.2935117648854,-298.364131595813
738509.44249608169775456190,-10.2658162175359,-10.3212073122349,-298.327204199347
738509.44249617215245962143,-10.2658162175359,-10.3212073122349,-298.34566789758
738509.44249626260716468096,-10.2565843684194,-10.3119754631184,-298.401058992279
738509.44249635306186974049,-10.22888882107,-10.2935117648854,-298.364131595813
738509.44249644351657480001,-10.1827295754875,-10.2842799157689,-298.299508651997
738509.44249653397127985954,-10.173497726371,-10.2750480666524,-298.373363444929
738509.44249662430956959724,-10.1365703299051,-10.2658162175359,-298.410290841395
738509.44249671476427465677,-10.0996429334391,-10.2565843684194,-298.391827143162
738509.44249680521897971630,-10.1088747825556,-10.247352519303,-298.281044953764
738509.44249689567368477583,-10.1273384807886,-10.2565843684194,-298.299508651997
738509.44249698612838983536,-10.1550340281381,-10.2381206701865,-298.299508651997
738509.44249707646667957306,-10.2011932737205,-10.2750480666524,-298.262581255531
738509.44249716692138463259,-10.2658162175359,-10.2935117648854,-298.31797235023
738509.44249725737608969212,-10.3212073122349,-10.3212073122349,-298.244117557298
738509.44249734783079475164,-10.3396710104678,-10.3212073122349,-298.253349406415
738509.44249743828549981117,-10.3396710104678,-10.3489028595843,-298.401058992279
738509.44249752862378954887,-10.3489028595843,-10.3489028595843,-298.401058992279
738509.44249761907849460840,-10.3581347087008,-10.3489028595843,-298.410290841395
738509.44249770953319966793,-10.3396710104678,-10.3304391613514,-298.382595294046
738509.44249779998790472746,-10.3581347087008,-10.3581347087008,-298.410290841395
738509.44249789044260978699,-10.3581347087008,-10.3489028595843,-298.410290841395
738509.44249798089731484652,-10.3950621051668,-10.3304391613514,-298.410290841395
738509.44249807123560458422,-10.4504531998657,-10.3304391613514,-298.327204199347
738509.44249816169030964375,-10.4689168980987,-10.2842799157689,-298.391827143162
738509.44249825214501470327,-9.96116519669179,-10.22888882107,-298.391827143162
738509.44249834259971976280,-9.50880458998382,-10.0719473860897,-298.281044953764
738509.44249843305442482233,-9.22261726737266,-10.1273384807886,-298.308740501114
738509.44249852339271456003,-9.37955870235298,-10.0719473860897,-298.299508651997
738509.44249861384741961956,-10.3119754631184,-9.97962889492477,-298.34566789758
738509.44249870430212467909,-10.5704672383801,-10.1458021790216,-298.354899746696
738509.44249879475682973862,-10.4596850489822,-10.210425122837,-298.364131595813
738509.44249888521153479815,-10.3858302560503,-10.2842799157689,-298.419522690512
738509.44249897554982453585,-10.3765984069338,-10.3212073122349,-298.336436048463
738509.44249906600452959538,-10.3858302560503,-10.3304391613514,-298.401058992279
738509.44249915645923465490,-10.3858302560503,-10.3396710104678,-298.354899746696
738509.44249924691393971443,-10.3858302560503,-10.3489028595843,-298.373363444929
738509.44249933736864477396,-10.3858302560503,-10.3396710104678,-298.364131595813
738509.44249942782334983349,-10.3950621051668,-10.3396710104678,-298.364131595813
738509.44249951816163957119,-10.3765984069338,-10.3304391613514,-298.373363444929
738509.44249960861634463072,-10.3581347087008,-10.3119754631184,-298.34566789758
738509.44249969907104969025,-10.3581347087008,-10.3119754631184,-298.382595294046
738509.44249978952575474977,-10.3673665578173,-10.3396710104678,-298.364131595813
738509.44249987998045980930,-10.3396710104678,-10.3119754631184,-298.382595294046
738509.44249997031874954700,-10.3489028595843,-10.3119754631184,-298.410290841395
738509.44250006077345460653,-10.3396710104678,-10.3119754631184,-298.34566789758
738509.44250015122815966606,-10.3489028595843,-10.3119754631184,-298.336436048463
738509.44250024168286472559,-10.3304391613514,-10.2842799157689,-298.34566789758
738509.44250033213756978512,-10.3304391613514,-10.2750480666524,-298.327204199347
738509.44250042247585952282,-10.3212073122349,-10.2658162175359,-298.364131595813
738509.44250051293056458235,-10.3027436140019,-10.2381206701865,-298.34566789758
738509.44250060338526964188,-10.2750480666524,-10.210425122837,-298.364131595813
738509.44250069383997470140,-10.2381206701865,-10.1827295754875,-298.354899746696
738509.44250078429467976093,-10.2196569719535,-10.1550340281381,-298.290276802881
738509.44250087474938482046,-10.210425122837,-10.1550340281381,-298.299508651997
738509.44250096508767455816,-10.191961424604,-10.1458021790216,-298.327204199347
738509.44250105554237961769,-10.173497726371,-10.1273384807886,-298.364131595813
738509.44250114599708467722,-10.1642658772546,-10.1365703299051,-298.373363444929
738509.44250123645178973675,-10.1550340281381,-10.1458021790216,-298.31797235023
738509.44250132690649479628,-10.1458021790216,-10.1550340281381,-298.373363444929
738509.44250141724478453398,-10.1827295754875,-10.173497726371,-298.391827143162
738509.44250150769948959351,-10.2011932737205,-10.210425122837,-298.401058992279
738509.44250159815419465303,-10.2196569719535,-10.247352519303,-298.410290841395
738509.44250168860889971256,-10.2381206701865,-10.2658162175359,-298.382595294046
738509.44250177906360477209,-10.247352519303,-10.2750480666524,-298.327204199347
738509.44250186940189450979,-10.2658162175359,-10.2935117648854,-298.401058992279
738509.44250195985659956932,-10.2935117648854,-10.3027436140019,-298.419522690512
738509.44250205031130462885,-10.3027436140019,-10.3027436140019,-298.336436048463
738509.44250214076600968838,-10.2935117648854,-10.3027436140019,-298.336436048463
738509.44250223122071474791,-10.3304391613514,-10.3304391613514,-298.34566789758
738509.44250232167541980743,-10.3304391613514,-10.3304391613514,-298.354899746696
738509.44250241201370954514,-10.3396710104678,-10.3304391613514,-298.354899746696
738509.44250250246841460466,-10.3212073122349,-10.3119754631184,-298.391827143162
738509.44250259292311966419,-10.3119754631184,-10.3304391613514,-298.419522690512
738509.44250268337782472372,-10.3212073122349,-10.3396710104678,-298.428754539628
738509.44250277383252978325,-10.2935117648854,-10.3027436140019,-298.373363444929
738509.44250286417081952095,-10.3027436140019,-10.3119754631184,-298.428754539628
738509.44250295462552458048,-10.3212073122349,-10.3027436140019,-298.419522690512
738509.44250304508022964001,-10.3119754631184,-10.3027436140019,-298.34566789758
738509.44250313553493469954,-10.3027436140019,-10.2935117648854,-298.419522690512
738509.44250322598963975906,-10.3212073122349,-10.3119754631184,-298.428754539628
738509.44250331632792949677,-10.2935117648854,-10.3027436140019,-298.373363444929
738509.44250340678263455629,-10.3027436140019,-10.3396710104678,-298.364131595813
738509.44250349723733961582,-10.2750480666524,-10.2842799157689,-298.419522690512
738509.44250358769204467535,-10.3304391613514,-10.3119754631184,-298.364131595813
738509.44250367814674973488,-10.3396710104678,-10.3119754631184,-298.410290841395
738509.44250376860145479441,-10.3304391613514,-10.2935117648854,-298.382595294046
738509.44250385893974453211,-10.3581347087008,-10.3304391613514,-298.410290841395
738509.44250394939444959164,-10.3489028595843,-10.3119754631184,-298.373363444929
738509.44250403984915465117,-10.3489028595843,-10.3212073122349,-298.391827143162
738509.44250413030385971069,-10.3396710104678,-10.3396710104678,-298.456450086978
738509.44250422075856477022,-10.3212073122349,-10.3304391613514,-298.428754539628
738509.44250431109685450792,-10.2565843684194,-10.2750480666524,-298.281044953764
738509.44250440155155956745,-10.2381206701865,-10.2658162175359,-298.253349406415
738509.44250449200626462698,-10.2565843684194,-10.2935117648854,-298.410290841395
738509.44250458246096968651,-10.210425122837,-10.2935117648854,-298.410290841395
738509.44250467291567474604,-10.1642658772546,-10.2658162175359,-298.428754539628
738509.44250476325396448374,-10.210425122837,-10.2750480666524,-298.437986388745
738509.44250485370866954327,-10.22888882107,-10.2935117648854,-298.447218237861
738509.44250494416337460279,-10.247352519303,-10.2935117648854,-298.336436048463
738509.44250503461807966232,-10.3119754631184,-10.2935117648854,-298.465681936094
738509.44250512507278472185,-10.4135258033998,-10.3119754631184,-298.456450086978
738509.44250521552748978138,-10.4135258033998,-10.3212073122349,-298.428754539628
738509.44250530586577951908,-10.4227576525162,-10.3304391613514,-298.437986388745
738509.44250539632048457861,-10.4319895016327,-10.3489028595843,-298.437986388745
738509.44250548677518963814,-10.4412213507492,-10.3396710104678,-298.484145634327
738509.44250557722989469767,-10.4412213507492,-10.3304391613514,-298.428754539628
738509.44250566768459975719,-10.4227576525162,-10.2935117648854,-298.465681936094
738509.44250575802288949490,-10.4596850489822,-10.3304391613514,-298.354899746696
738509.44250584847759455442,-10.4873805963317,-10.3673665578173,-298.447218237861
738509.44250593893229961395,-10.5612353892636,-10.3581347087008,-298.474913785211
738509.44250602938700467348,-10.5981627857295,-10.2935117648854,-298.428754539628
738509.44250611984170973301,-10.2381206701865,-10.2842799157689,-298.401058992279
738509.44250621017999947071,-9.69344157231361,-10.1458021790216,-298.401058992279
738509.44250630063470453024,-9.37955870235298,-10.1088747825556,-298.391827143162
738509.44250639108940958977,-9.25031281472213,-10.1458021790216,-298.299508651997
738509.44250648154411464930,-10.173497726371,-10.0257881405072,-298.382595294046
738509.44250657199881970882,-10.662785729545,-10.1642658772546,-298.447218237861
738509.44250666245352476835,-10.5889309366131,-10.191961424604,-298.465681936094
738509.44250675279181450605,-10.4966124454482,-10.22888882107,-298.447218237861
738509.44250684324651956558,-10.5150761436811,-10.3027436140019,-298.474913785211
738509.44250693370122462511,-10.5427716910306,-10.3581347087008,-298.474913785211
738509.44250702415592968464,-10.5427716910306,-10.3396710104678,-298.410290841395
738509.44250711461063474417,-10.5335398419141,-10.3212073122349,-298.465681936094
738509.44250720494892448187,-10.5427716910306,-10.3396710104678,-298.465681936094
738509.44250729540362954140,-10.5058442945647,-10.3304391613514,-298.373363444929
738509.44250738585833460093,-10.5150761436811,-10.3212073122349,-298.437986388745
738509.44250747631303966045,-10.5150761436811,-10.3212073122349,-298.401058992279
738509.44250756676774471998,-10.4873805963317,-10.3027436140019,-298.437986388745
738509.44250765710603445768,-10.5150761436811,-10.3304391613514,-298.410290841395
738509.44250774756073951721,-10.5058442945647,-10.3027436140019,-298.373363444929
738509.44250783801544457674,-10.4873805963317,-10.2842799157689,-298.308740501114
738509.44250792847014963627,-10.5150761436811,-10.3212073122349,-298.327204199347
738509.44250801892485469580,-10.5150761436811,-10.3119754631184,-298.364131595813
738509.44250810937955975533,-10.5058442945647,-10.2935117648854,-298.382595294046
738509.44250819971784949303,-10.5058442945647,-10.2935117648854,-298.401058992279
738509.44250829017255455256,-10.4781487472152,-10.2658162175359,-298.447218237861
738509.44250838062725961208,-10.4689168980987,-10.2565843684194,-298.401058992279
738509.44250847108196467161,-10.4504531998657,-10.247352519303,-298.354899746696
738509.44250856153666973114,-10.4227576525162,-10.210425122837,-298.391827143162
738509.44250865187495946884,-10.4042939542833,-10.191961424604,-298.419522690512
738509.44250874232966452837,-10.3673665578173,-10.173497726371,-298.410290841395
738509.44250883278436958790,-10.3765984069338,-10.1642658772546,-298.447218237861
738509.44250892323907464743,-10.3304391613514,-10.1365703299051,-298.419522690512
738509.44250901369377970695,-10.3396710104678,-10.1550340281381,-298.382595294046
738509.44250910403206944466,-10.3581347087008,-10.173497726371,-298.428754539628
738509.44250919448677450418,-10.3765984069338,-10.191961424604,-298.447218237861
738509.44250928494147956371,-10.3581347087008,-10.191961424604,-298.419522690512
738509.44250937539618462324,-10.3581347087008,-10.2011932737205,-298.410290841395
738509.44250946585088968277,-10.3858302560503,-10.2381206701865,-298.484145634327
738509.44250955630559474230,-10.4042939542833,-10.2565843684194,-298.428754539628
738509.44250964664388448000,-10.4227576525162,-10.2750480666524,-298.410290841395
738509.44250973709858953953,-10.4319895016327,-10.2750480666524,-298.437986388745
738509.44250982755329459906,-10.4689168980987,-10.2935117648854,-298.484145634327
738509.44250991800799965858,-10.4596850489822,-10.2935117648854,-298.474913785211
738509.44251000846270471811,-10.4873805963317,-10.3027436140019,-298.437986388745
738509.44251009880099445581,-10.5058442945647,-10.3119754631184,-298.465681936094
738509.44251018925569951534,-10.4966124454482,-10.3027436140019,-298.447218237861
738509.44251027971040457487,-10.4873805963317,-10.2935117648854,-298.391827143162
738509.44251037016510963440,-10.5150761436811,-10.3027436140019,-298.447218237861
738509.44251046061981469393,-10.5058442945647,-10.3027436140019,-298.401058992279
738509.44251055095810443163,-10.4966124454482,-10.2935117648854,-298.364131595813
738509.44251064141280949116,-10.4873805963317,-10.2935117648854,-298.401058992279
738509.44251073186751455069,-10.4873805963317,-10.2658162175359,-298.391827143162
738509.44251082232221961021,-10.4781487472152,-10.2565843684194,-298.391827143162
738509.44251091277692466974,-10.4689168980987,-10.2658162175359,-298.391827143162
738509.44251100323162972927,-10.5058442945647,-10.3027436140019,-298.465681936094
738509.44251109356991946697,-10.5335398419141,-10.3212073122349,-298.493377483444
738509.44251118402462452650,-10.4966124454482,-10.2842799157689,-298.484145634327
738509.44251127447932958603,-10.5150761436811,-10.2935117648854,-298.419522690512
738509.44251136493403464556,-10.5058442945647,-10.2842799157689,-298.437986388745
738509.44251145538873970509,-10.4966124454482,-10.2750480666524,-298.34566789758
738509.44251154572702944279,-10.5150761436811,-10.2842799157689,-298.410290841395
738509.44251163618173450232,-10.4873805963317,-10.2658162175359,-298.410290841395
738509.44251172663643956184,-10.4689168980987,-10.2565843684194,-298.410290841395
738509.44251181709114462137,-10.4319895016327,-10.247352519303,-298.391827143162
738509.44251190754584968090,-10.4596850489822,-10.2750480666524,-298.391827143162
738509.44251199788413941860,-10.4412213507492,-10.2658162175359,-298.456450086978
738509.44251208833884447813,-10.3858302560503,-10.2658162175359,-298.419522690512
738509.44251217879354953766,-10.3673665578173,-10.247352519303,-298.428754539628
738509.44251226924825459719,-10.3673665578173,-10.22888882107,-298.428754539628
738509.44251235970295965672,-10.3673665578173,-10.2381206701865,-298.437986388745
738509.44251245015766471624,-10.4227576525162,-10.247352519303,-298.364131595813
738509.44251254049595445395,-10.5150761436811,-10.2658162175359,-298.401058992279
738509.44251263095065951347,-10.5796990874966,-10.2750480666524,-298.419522690512
738509.44251272140536457300,-10.5796990874966,-10.2842799157689,-298.428754539628
738509.44251281186006963253,-10.625858333079,-10.3119754631184,-298.456450086978
738509.44251290231477469206,-10.6350901821955,-10.3119754631184,-298.437986388745
738509.44251299265306442976,-10.607394634846,-10.2935117648854,-298.419522690512
738509.44251308310776948929,-10.625858333079,-10.2750480666524,-298.428754539628
738509.44251317356247454882,-10.6166264839625,-10.2750480666524,-298.484145634327
738509.44251326401717960835,-10.662785729545,-10.3027436140019,-298.447218237861
738509.44251335447188466787,-10.644322031312,-10.2935117648854,-298.419522690512
738509.44251344492658972740,-10.7366405224769,-10.3027436140019,-298.437986388745
738509.44251353526487946510,-10.8012634662923,-10.2842799157689,-298.447218237861
738509.44251362571958452463,-10.3027436140019,-10.210425122837,-298.456450086978
738509.44251371617428958416,-9.74883266701254,-10.0904110843226,-298.410290841395
738509.44251380662899464369,-9.43494979705191,-10.0811792352062,-298.299508651997
738509.44251389708369970322,-9.4441816461684,-10.1273384807886,-298.364131595813
738509.44251398742198944092,-10.3858302560503,-10.0165562913907,-298.447218237861
738509.44251407787669450045,-10.8012634662923,-10.1273384807886,-298.484145634327
738509.44251416833139955997,-10.7458723715934,-10.191961424604,-298.428754539628
738509.44251425878610461950,-10.6997131260109,-10.2565843684194,-298.493377483444
738509.44251434924080967903,-10.7089449751274,-10.2750480666524,-298.474913785211
738509.44251443957909941673,-10.6904812768944,-10.2842799157689,-298.50260933256
738509.44251453003380447626,-10.7089449751274,-10.2935117648854,-298.419522690512
738509.44251462048850953579,-10.7181768242439,-10.3119754631184,-298.521073030793
738509.44251471094321459532,-10.6904812768944,-10.2750480666524,-298.484145634327
738509.44251480139791965485,-10.6997131260109,-10.2842799157689,-298.465681936094
738509.44251489185262471437,-10.7089449751274,-10.2750480666524,-298.281044953764
738509.44251498219091445208,-10.6812494277779,-10.2750480666524,-298.354899746696
738509.44251507264561951160,-10.6535538804285,-10.2565843684194,-298.474913785211
738509.44251516310032457113,-10.7274086733604,-10.2842799157689,-298.437986388745
738509.44251525355502963066,-10.6812494277779,-10.2935117648854,-298.50260933256
738509.44251534400973469019,-10.6904812768944,-10.2750480666524,-298.484145634327
738509.44251543434802442789,-10.6720175786615,-10.2658162175359,-298.474913785211
738509.44251552480272948742,-10.6997131260109,-10.2750480666524,-298.465681936094
738509.44251561525743454695,-10.6904812768944,-10.247352519303,-298.419522690512
738509.44251570571213960648,-10.6720175786615,-10.2381206701865,-298.401058992279
738509.44251579616684466600,-10.6720175786615,-10.2196569719535,-298.364131595813
738509.44251588650513440371,-10.5889309366131,-10.173497726371,-298.382595294046
738509.44251597695983946323,-10.5796990874966,-10.1827295754875,-298.391827143162
738509.44251606741454452276,-10.5981627857295,-10.1827295754875,-298.373363444929
738509.44251615786924958229,-10.625858333079,-10.1827295754875,-298.401058992279
738509.44251624832395464182,-10.5243079927976,-10.1458021790216,-298.474913785211
738509.44251633877865970135,-10.5058442945647,-10.1181066316721,-298.437986388745
738509.44251642911694943905,-10.5520035401471,-10.1365703299051,-298.456450086978
738509.44251651957165449858,-10.5427716910306,-10.1550340281381,-298.373363444929
738509.44251661002635955811,-10.5243079927976,-10.1458021790216,-298.382595294046
738509.44251670048106461763,-10.5058442945647,-10.1273384807886,-298.401058992279
738509.44251679093576967716,-10.5150761436811,-10.1827295754875,-298.447218237861
738509.44251688127405941486,-10.5704672383801,-10.2011932737205,-298.428754539628
738509.44251697172876447439,-10.5704672383801,-10.2196569719535,-298.447218237861
738509.44251706218346953392,-10.5612353892636,-10.2196569719535,-298.456450086978
738509.44251715263817459345,-10.6350901821955,-10.2565843684194,-298.484145634327
738509.44251724309287965298,-10.6720175786615,-10.2658162175359,-298.511841181677
738509.44251733343116939068,-10.6997131260109,-10.2750480666524,-298.465681936094
738509.44251742388587445021,-10.6720175786615,-10.2935117648854,-298.493377483444
738509.44251751434057950974,-10.6904812768944,-10.2935117648854,-298.456450086978
738509.44251760479528456926,-10.6904812768944,-10.2750480666524,-298.447218237861
738509.44251769524998962879,-10.662785729545,-10.2750480666524,-298.521073030793
738509.44251778570469468832,-10.662785729545,-10.2565843684194,-298.511841181677
738509.44251787604298442602,-10.7089449751274,-10.2842799157689,-298.521073030793
738509.44251796649768948555,-10.644322031312,-10.2381206701865,-298.474913785211
738509.44251805695239454508,-10.662785729545,-10.22888882107,-298.474913785211
738509.44251814740709960461,-10.6904812768944,-10.2658162175359,-298.493377483444
738509.44251823786180466413,-10.6904812768944,-10.2935117648854,-298.493377483444
738509.44251832820009440184,-10.7089449751274,-10.2935117648854,-298.484145634327
738509.44251841865479946136,-10.6904812768944,-10.2750480666524,-298.327204199347
738509.44251850910950452089,-10.7089449751274,-10.2658162175359,-298.428754539628
738509.44251859956420958042,-10.7089449751274,-10.2750480666524,-298.456450086978
738509.44251869001891463995,-10.662785729545,-10.2381206701865,-298.484145634327
738509.44251878035720437765,-10.6904812768944,-10.247352519303,-298.493377483444
738509.44251887081190943718,-10.6535538804285,-10.247352519303,-298.484145634327
738509.44251896126661449671,-10.625858333079,-10.2565843684194,-298.511841181677
738509.44251905172131955624,-10.6350901821955,-10.2565843684194,-298.53030487991
738509.44251914217602461576,-10.6166264839625,-10.210425122837,-298.53030487991
738509.44251923263072967529,-10.5612353892636,-10.2196569719535,-298.437986388745
738509.44251932296901941299,-10.5243079927976,-10.2381206701865,-298.511841181677
738509.44251941342372447252,-10.5427716910306,-10.247352519303,-298.437986388745
738509.44251950387842953205,-10.5889309366131,-10.2658162175359,-298.401058992279
738509.44251959433313459158,-10.5796990874966,-10.247352519303,-298.428754539628
738509.44251968478783965111,-10.5796990874966,-10.2381206701865,-298.447218237861
738509.44251977512612938881,-10.662785729545,-10.2381206701865,-298.401058992279
738509.44251986558083444834,-10.7735679189428,-10.2381206701865,-298.465681936094
738509.44251995603553950787,-10.8197271645253,-10.2658162175359,-298.456450086978
738509.44252004649024456739,-10.8104953154088,-10.2750480666524,-298.437986388745
738509.44252013694494962692,-10.8474227118748,-10.2750480666524,-298.465681936094
738509.44252022728323936462,-10.8197271645253,-10.2565843684194,-298.50260933256
738509.44252031773794442415,-10.8289590136418,-10.2381206701865,-298.50260933256
738509.44252040819264948368,-10.8381908627583,-10.3027436140019,-298.50260933256
738509.44252049864735454321,-10.8658864101077,-10.3027436140019,-298.53030487991
738509.44252058910205960274,-10.9674367503891,-10.2935117648854,-298.484145634327
738509.44252067955676466227,-11.022827845088,-10.2658162175359,-298.521073030793
738509.44252076989505439997,-10.9859004486221,-10.2565843684194,-298.521073030793
738509.44252086034975945950,-10.4504531998657,-10.22888882107,-298.447218237861
738509.44252095080446451902,-9.92423780022584,-10.0719473860897,-298.391827143162
738509.44252104125916957855,-9.61035493026521,-10.1088747825556,-298.382595294046
738509.44252113171387463808,-9.61035493026521,-10.1365703299051,-298.391827143162
738509.44252122205216437578,-10.5981627857295,-10.0627155369732,-298.474913785211
738509.44252131250686943531,-11.078218939787,-10.1642658772546,-298.53030487991
738509.44252140296157449484,-10.9120456556902,-10.173497726371,-298.576464125492
738509.44252149341627955437,-10.9489730521561,-10.247352519303,-298.493377483444
738509.44252158387098461390,-10.9028138065737,-10.2658162175359,-298.567232276376
738509.44252167420927435160,-10.9859004486221,-10.247352519303,-298.511841181677
738509.44252176466397941113,-10.9489730521561,-10.2381206701865,-298.50260933256
738509.44252185511868447065,-10.9397412030396,-10.2565843684194,-298.511841181677
738509.44252194557338953018,-10.9582049012726,-10.2842799157689,-298.364131595813
738509.44252203602809458971,-10.9120456556902,-10.2381206701865,-298.428754539628
738509.44252212648279964924,-10.9305093539232,-10.2381206701865,-298.548768578143
738509.44252221682108938694,-10.9305093539232,-10.2658162175359,-298.567232276376
738509.44252230727579444647,-10.9674367503891,-10.2565843684194,-298.558000427259
738509.44252239773049950600,-10.9305093539232,-10.247352519303,-298.474913785211
738509.44252248818520456553,-10.9212775048067,-10.22888882107,-298.576464125492
738509.44252257863990962505,-10.9212775048067,-10.2565843684194,-298.594927823725
738509.44252266897819936275,-10.9582049012726,-10.247352519303,-298.594927823725
738509.44252275943290442228,-10.9489730521561,-10.2381206701865,-298.474913785211
738509.44252284988760948181,-10.9028138065737,-10.2011932737205,-298.567232276376
738509.44252294034231454134,-10.9120456556902,-10.2381206701865,-298.539536729026
738509.44252303079701960087,-10.8751182592242,-10.173497726371,-298.493377483444
738509.44252312113530933857,-10.9120456556902,-10.1642658772546,-298.539536729026
738509.44252321159001439810,-10.7827997680593,-10.1458021790216,-298.567232276376
738509.44252330204471945763,-10.8566545609912,-10.1550340281381,-298.493377483444
738509.44252339249942451715,-10.7458723715934,-10.1088747825556,-298.428754539628
738509.44252348295412957668,-10.7551042207099,-10.1365703299051,-298.419522690512
738509.44252357340883463621,-10.7089449751274,-10.1181066316721,-298.447218237861
738509.44252366374712437391,-10.7735679189428,-10.1273384807886,-298.428754539628
738509.44252375420182943344,-10.7366405224769,-10.1273384807886,-298.447218237861
738509.44252384465653449297,-10.6997131260109,-10.1365703299051,-298.484145634327
738509.44252393511123955250,-10.7366405224769,-10.1365703299051,-298.465681936094
738509.44252402556594461203,-10.7366405224769,-10.1642658772546,-298.548768578143
738509.44252411590423434973,-10.7181768242439,-10.173497726371,-298.567232276376
738509.44252420635893940926,-10.7643360698263,-10.2011932737205,-298.548768578143
738509.44252429681364446878,-10.7920316171758,-10.22888882107,-298.465681936094
738509.44252438726834952831,-10.9028138065737,-10.247352519303,-298.484145634327
738509.44252447772305458784,-10.8935819574572,-10.2565843684194,-298.474913785211
738509.44252456806134432554,-10.8566545609912,-10.2381206701865,-298.53030487991
738509.44252465851604938507,-10.8658864101077,-10.247352519303,-298.465681936094
738509.44252474897075444460,-10.8935819574572,-10.22888882107,-298.484145634327
738509.44252483942545950413,-10.8751182592242,-10.22888882107,-298.484145634327
738509.44252492988016456366,-10.8289590136418,-10.22888882107,-298.474913785211
738509.44252502033486962318,-10.8197271645253,-10.173497726371,-298.474913785211
738509.44252511067315936089,-10.8751182592242,-10.210425122837,-298.493377483444
738509.44252520112786442041,-10.9028138065737,-10.2935117648854,-298.484145634327
738509.44252529158256947994,-10.8658864101077,-10.2381206701865,-298.50260933256
738509.44252538203727453947,-10.8751182592242,-10.2381206701865,-298.511841181677
738509.44252547249197959900,-10.8751182592242,-10.2565843684194,-298.428754539628
738509.44252556283026933670,-10.8658864101077,-10.2565843684194,-298.456450086978
738509.44252565328497439623,-10.8197271645253,-10.247352519303,-298.484145634327
738509.44252574373967945576,-10.8012634662923,-10.2196569719535,-298.576464125492
738509.44252583419438451529,-10.7827997680593,-10.2381206701865,-298.539536729026
738509.44252592464908957481,-10.7551042207099,-10.22888882107,-298.401058992279
738509.44252601498737931252,-10.7274086733604,-10.247352519303,-298.493377483444
738509.44252610544208437204,-10.662785729545,-10.210425122837,-298.493377483444
738509.44252619589678943157,-10.5889309366131,-10.191961424604,-298.548768578143
738509.44252628635149449110,-10.5612353892636,-10.2196569719535,-298.493377483444
738509.44252637680619955063,-10.5889309366131,-10.247352519303,-298.465681936094
738509.44252646726090461016,-10.5889309366131,-10.2565843684194,-298.456450086978
738509.44252655759919434786,-10.5889309366131,-10.247352519303,-298.456450086978
738509.44252664805389940739,-10.5981627857295,-10.2381206701865,-298.465681936094
738509.44252673850860446692,-10.6812494277779,-10.2565843684194,-298.419522690512
738509.44252682896330952644,-10.7551042207099,-10.2565843684194,-298.511841181677
738509.44252691941801458597,-10.7827997680593,-10.2658162175359,-298.539536729026
738509.44252700975630432367,-10.7920316171758,-10.2842799157689,-298.511841181677
738509.44252710021100938320,-10.8104953154088,-10.2658162175359,-298.50260933256
738509.44252719066571444273,-10.8197271645253,-10.2750480666524,-298.558000427259
738509.44252728112041950226,-10.8197271645253,-10.2750480666524,-298.511841181677
738509.44252737157512456179,-10.8381908627583,-10.3119754631184,-298.50260933256
738509.44252746191341429949,-10.8197271645253,-10.2842799157689,-298.548768578143
738509.44252755236811935902,-10.8566545609912,-10.2842799157689,-298.53030487991
738509.44252764282282441854,-10.9489730521561,-10.2750480666524,-298.465681936094
738509.44252773327752947807,-10.8197271645253,-10.2381206701865,-298.53030487991
738509.44252782373223453760,-10.1642658772546,-10.1827295754875,-298.474913785211
738509.44252791418693959713,-9.64728232673116,-10.0534836878567,-298.419522690512
738509.44252800452522933483,-9.28724021118808,-10.1088747825556,-298.336436048463
738509.44252809497993439436,-9.62881862849818,-10.1181066316721,-298.391827143162
738509.44252818543463945389,-10.6812494277779,-10.1088747825556,-298.53030487991
738509.44252827588934451342,-10.8381908627583,-10.1550340281381,-298.53030487991
738509.44252836634404957294,-10.8012634662923,-10.2196569719535,-298.474913785211
738509.44252845668233931065,-10.7827997680593,-10.2750480666524,-298.53030487991
738509.44252854713704437017,-10.7735679189428,-10.2935117648854,-298.401058992279
738509.44252863759174942970,-10.7458723715934,-10.2658162175359,-298.419522690512
738509.44252872804645448923,-10.7920316171758,-10.3027436140019,-298.465681936094
738509.44252881850115954876,-10.7920316171758,-10.3027436140019,-298.465681936094
738509.44252890883944928646,-10.7458723715934,-10.2842799157689,-298.456450086978
738509.44252899929415434599,-10.6997131260109,-10.247352519303,-298.373363444929
738509.44252908974885940552,-10.7366405224769,-10.2750480666524,-298.382595294046
738509.44252918020356446505,-10.7181768242439,-10.2658162175359,-298.456450086978
738509.44252927065826952457,-10.7274086733604,-10.2935117648854,-298.53030487991
738509.44252936111297458410,-10.7551042207099,-10.3119754631184,-298.511841181677
738509.44252945145126432180,-10.7458723715934,-10.3027436140019,-298.521073030793
738509.44252954190596938133,-10.7366405224769,-10.3119754631184,-298.456450086978
738509.44252963236067444086,-10.7274086733604,-10.2935117648854,-298.474913785211
738509.44252972281537950039,-10.7089449751274,-10.2658162175359,-298.493377483444
738509.44252981327008455992,-10.6904812768944,-10.2658162175359,-298.428754539628
738509.44252990360837429762,-10.662785729545,-10.2381206701865,-298.50260933256
738509.44252999406307935715,-10.644322031312,-10.2011932737205,-298.437986388745
738509.44253008451778441668,-10.5981627857295,-10.1642658772546,-298.437986388745
738509.44253017497248947620,-10.5796990874966,-10.1642658772546,-298.419522690512
738509.44253026542719453573,-10.5704672383801,-10.1550340281381,-298.447218237861
738509.44253035588189959526,-10.5981627857295,-10.2011932737205,-298.419522690512
738509.44253044622018933296,-10.5889309366131,-10.2011932737205,-298.484145634327
738509.44253053667489439249,-10.5612353892636,-10.173497726371,-298.484145634327
738509.44253062712959945202,-10.5427716910306,-10.1642658772546,-298.456450086978
738509.44253071758430451155,-10.5335398419141,-10.1642658772546,-298.456450086978
738509.44253080803900957108,-10.5243079927976,-10.1827295754875,-298.465681936094
738509.44253089837729930878,-10.5335398419141,-10.2011932737205,-298.465681936094
738509.44253098883200436831,-10.5427716910306,-10.22888882107,-298.382595294046
738509.44253107928670942783,-10.5427716910306,-10.22888882107,-298.401058992279
738509.44253116974141448736,-10.5612353892636,-10.247352519303,-298.419522690512
738509.44253126019611954689,-10.5796990874966,-10.2565843684194,-298.382595294046
738509.44253135053440928459,-10.607394634846,-10.2750480666524,-298.419522690512
738509.44253144098911434412,-10.644322031312,-10.3119754631184,-298.474913785211
738509.44253153144381940365,-10.6535538804285,-10.3304391613514,-298.474913785211
738509.44253162189852446318,-10.625858333079,-10.2935117648854,-298.50260933256
738509.44253171235322952271,-10.644322031312,-10.3119754631184,-298.511841181677
738509.44253180280793458223,-10.6350901821955,-10.3119754631184,-298.50260933256
738509.44253189314622431993,-10.607394634846,-10.2842799157689,-298.419522690512
738509.44253198360092937946,-10.607394634846,-10.2935117648854,-298.50260933256
738509.44253207405563443899,-10.607394634846,-10.3027436140019,-298.50260933256
738509.44253216451033949852,-10.5796990874966,-10.2842799157689,-298.50260933256
738509.44253225496504455805,-10.5981627857295,-10.2935117648854,-298.484145634327
738509.44253234530333429575,-10.5981627857295,-10.2935117648854,-298.53030487991
738509.44253243575803935528,-10.5981627857295,-10.2842799157689,-298.484145634327
738509.44253252621274441481,-10.5796990874966,-10.2935117648854,-298.391827143162
738509.44253261666744947433,-10.5796990874966,-10.2935117648854,-298.382595294046
738509.44253270712215453386,-10.5981627857295,-10.2842799157689,-298.419522690512
738509.44253279746044427156,-10.5704672383801,-10.2750480666524,-298.428754539628
738509.44253288791514933109,-10.5704672383801,-10.2842799157689,-298.465681936094
738509.44253297836985439062,-10.5796990874966,-10.2842799157689,-298.447218237861
738509.44253306882455945015,-10.5981627857295,-10.2935117648854,-298.447218237861
738509.44253315927926450968,-10.5796990874966,-10.2935117648854,-298.53030487991
738509.44253324973396956921,-10.5796990874966,-10.2842799157689,-298.437986388745
738509.44253334007225930691,-10.5981627857295,-10.3119754631184,-298.474913785211
738509.44253343052696436644,-10.5981627857295,-10.2935117648854,-298.474913785211
738509.44253352098166942596,-10.5704672383801,-10.2750480666524,-298.484145634327
738509.44253361143637448549,-10.6166264839625,-10.3119754631184,-298.548768578143
738509.44253370189107954502,-10.6166264839625,-10.3119754631184,-298.539536729026
738509.44253379222936928272,-10.607394634846,-10.2935117648854,-298.539536729026
738509.44253388268407434225,-10.5981627857295,-10.2935117648854,-298.456450086978
738509.44253397313877940178,-10.607394634846,-10.2935117648854,-298.53030487991
738509.44253406359348446131,-10.6166264839625,-10.3027436140019,-298.456450086978
738509.44253415404818952084,-10.607394634846,-10.2935117648854,-298.484145634327
738509.44253424438647925854,-10.607394634846,-10.3027436140019,-298.474913785211
738509.44253433484118431807,-10.5981627857295,-10.3027436140019,-298.484145634327
738509.44253442529588937759,-10.6166264839625,-10.3027436140019,-298.50260933256
738509.44253451575059443712,-10.5981627857295,-10.2935117648854,-298.511841181677
738509.44253460620529949665,-10.6166264839625,-10.3027436140019,-298.539536729026
738509.44253469666000455618,-10.607394634846,-10.2935117648854,-298.548768578143
738509.44253478699829429388,-10.6166264839625,-10.2935117648854,-298.484145634327
738509.44253487745299935341,-10.5981627857295,-10.2842799157689,-298.511841181677
738509.44253496790770441294,-10.625858333079,-10.3119754631184,-298.521073030793
738509.44253505836240947247,-10.607394634846,-10.3027436140019,-298.456450086978
738509.44253514881711453199,-10.6166264839625,-10.3027436140019,-298.53030487991
738509.44253523915540426970,-10.5981627857295,-10.3027436140019,-298.567232276376
738509.44253532961010932922,-10.607394634846,-10.3027436140019,-298.493377483444
738509.44253542006481438875,-10.607394634846,-10.3119754631184,-298.511841181677
738509.44253551051951944828,-10.625858333079,-10.3119754631184,-298.53030487991
738509.44253560097422450781,-10.6166264839625,-10.3119754631184,-298.521073030793
738509.44253569131251424551,-10.625858333079,-10.3119754631184,-298.474913785211
738509.44253578176721930504,-10.6350901821955,-10.3119754631184,-298.548768578143
738509.44253587222192436457,-10.6166264839625,-10.3119754631184,-298.567232276376
738509.44253596267662942410,-10.625858333079,-10.3119754631184,-298.521073030793
738509.44253605313133448362,-10.607394634846,-10.3027436140019,-298.447218237861
738509.44253614358603954315,-10.6166264839625,-10.3119754631184,-298.410290841395
738509.44253623392432928085,-10.6166264839625,-10.3027436140019,-298.511841181677
738509.44253632437903434038,-10.625858333079,-10.3119754631184,-298.456450086978
738509.44253641483373939991,-10.607394634846,-10.3119754631184,-298.539536729026
738509.44253650528844445944,-10.6166264839625,-10.3119754631184,-298.558000427259
738509.44253659574314951897,-10.5889309366131,-10.2935117648854,-298.465681936094
738509.44253668608143925667,-10.5704672383801,-10.2750480666524,-298.521073030793
738509.44253677653614431620,-10.5427716910306,-10.2750480666524,-298.474913785211
738509.44253686699084937572,-10.5427716910306,-10.2935117648854,-298.474913785211
738509.44253695744555443525,-10.5243079927976,-10.2658162175359,-298.50260933256
738509.44253704790025949478,-10.4689168980987,-10.247352519303,-298.484145634327
738509.44253713823854923248,-10.4596850489822,-10.2565843684194,-298.465681936094
738509.44253722869325429201,-10.5058442945647,-10.247352519303,-298.493377483444
738509.44253731914795935154,-10.5520035401471,-10.2750480666524,-298.558000427259
738509.44253740960266441107,-10.5704672383801,-10.2750480666524,-298.50260933256
738509.44253750005736947060,-10.5889309366131,-10.2842799157689,-298.465681936094
738509.44253759051207453012,-10.6166264839625,-10.2935117648854,-298.474913785211
738509.44253768085036426783,-10.6350901821955,-10.3027436140019,-298.484145634327
738509.44253777130506932735,-10.625858333079,-10.3119754631184,-298.53030487991
738509.44253786175977438688,-10.6350901821955,-10.3119754631184,-298.511841181677
738509.44253795221447944641,-10.6350901821955,-10.3119754631184,-298.493377483444
738509.44253804266918450594,-10.6350901821955,-10.3212073122349,-298.493377483444
738509.44253813300747424364,-10.6166264839625,-10.3119754631184,-298.548768578143
738509.44253822346217930317,-10.6350901821955,-10.3119754631184,-298.521073030793
738509.44253831391688436270,-10.6997131260109,-10.3212073122349,-298.53030487991
738509.44253840437158942223,-10.7920316171758,-10.2658162175359,-298.53030487991
738509.44253849482629448175,-10.4135258033998,-10.2196569719535,-298.428754539628
738509.44253858516458421946,-9.85038300729392,-10.1088747825556,-298.428754539628
738509.44253867561928927898,-9.50880458998382,-10.0719473860897,-298.419522690512
738509.44253876607399433851,-9.45341349528489,-10.0719473860897,-298.364131595813
738509.44253885652869939804,-10.2011932737205,-9.93346964934233,-298.401058992279
738509.44253894698340445757,-10.7827997680593,-10.1365703299051,-298.447218237861
738509.44253903743810951710,-10.6720175786615,-10.22888882107,-298.456450086978
738509.44253912777639925480,-10.6166264839625,-10.2658162175359,-298.456450086978
738509.44253921823110431433,-10.644322031312,-10.3027436140019,-298.428754539628
738509.44253930868580937386,-10.6350901821955,-10.3119754631184,-298.456450086978
738509.44253939914051443338,-10.644322031312,-10.3212073122349,-298.456450086978
738509.44253948959521949291,-10.6350901821955,-10.3212073122349,-298.50260933256
738509.44253957993350923061,-10.625858333079,-10.3212073122349,-298.447218237861
738509.44253967038821429014,-10.625858333079,-10.3212073122349,-298.410290841395
738509.44253976084291934967,-10.6166264839625,-10.3212073122349,-298.53030487991
738509.44253985129762440920,-10.607394634846,-10.3119754631184,-298.50260933256
738509.44253994175232946873,-10.5981627857295,-10.3027436140019,-298.474913785211
738509.44254003209061920643,-10.5981627857295,-10.3119754631184,-298.539536729026
738509.44254012254532426596,-10.5796990874966,-10.3027436140019,-298.53030487991
738509.44254021300002932549,-10.5796990874966,-10.3027436140019,-298.437986388745
738509.44254030345473438501,-10.5612353892636,-10.2935117648854,-298.521073030793
738509.44254039390943944454,-10.5612353892636,-10.2935117648854,-298.511841181677
738509.44254048436414450407,-10.5427716910306,-10.2750480666524,-298.447218237861
738509.44254057470243424177,-10.5335398419141,-10.2750480666524,-298.474913785211
738509.44254066515713930130,-10.5058442945647,-10.2565843684194,-298.493377483444
738509.44254075561184436083,-10.4966124454482,-10.247352519303,-298.493377483444
738509.44254084606654942036,-10.4596850489822,-10.2196569719535,-298.465681936094
738509.44254093652125447989,-10.4412213507492,-10.2011932737205,-298.382595294046
738509.44254102685954421759,-10.4042939542833,-10.173497726371,-298.447218237861
738509.44254111731424927711,-10.3858302560503,-10.1642658772546,-298.373363444929
738509.44254120776895433664,-10.3396710104678,-10.1365703299051,-298.419522690512
738509.44254129822365939617,-10.3304391613514,-10.1273384807886,-298.382595294046
738509.44254138867836445570,-10.3212073122349,-10.1273384807886,-298.382595294046
738509.44254147901665419340,-10.2935117648854,-10.1088747825556,-298.382595294046
738509.44254156947135925293,-10.2935117648854,-10.1181066316721,-298.419522690512
738509.44254165992606431246,-10.2750480666524,-10.1181066316721,-298.401058992279
738509.44254175038076937199,-10.2935117648854,-10.1550340281381,-298.419522690512
738509.44254184083547443151,-10.2935117648854,-10.173497726371,-298.474913785211
738509.44254193129017949104,-10.3212073122349,-10.210425122837,-298.382595294046
738509.44254202162846922874,-10.3396710104678,-10.22888882107,-298.419522690512
738509.44254211208317428827,-10.3765984069338,-10.2565843684194,-298.410290841395
738509.44254220253787934780,-10.3765984069338,-10.2750480666524,-298.419522690512
738509.44254229299258440733,-10.4042939542833,-10.2842799157689,-298.401058992279
738509.44254238344728946686,-10.4042939542833,-10.2935117648854,-298.401058992279
738509.44254247378557920456,-10.4135258033998,-10.2935117648854,-298.373363444929
738509.44254256424028426409,-10.4042939542833,-10.2935117648854,-298.391827143162
738509.44254265469498932362,-10.4042939542833,-10.2935117648854,-298.410290841395
738509.44254274514969438314,-10.3950621051668,-10.2935117648854,-298.391827143162
738509.44254283560439944267,-10.3858302560503,-10.2935117648854,-298.428754539628
738509.44254292594268918037,-10.3858302560503,-10.2935117648854,-298.465681936094
738509.44254301639739423990,-10.3858302560503,-10.2842799157689,-298.373363444929
738509.44254310685209929943,-10.3765984069338,-10.2935117648854,-298.281044953764
738509.44254319730680435896,-10.3581347087008,-10.2842799157689,-298.336436048463
738509.44254328776150941849,-10.3673665578173,-10.2935117648854,-298.401058992279
738509.44254337821621447802,-10.3581347087008,-10.2842799157689,-298.484145634327
738509.44254346855450421572,-10.3673665578173,-10.2935117648854,-298.465681936094
738509.44254355900920927525,-10.3581347087008,-10.2842799157689,-298.437986388745
738509.44254364946391433477,-10.3673665578173,-10.2842799157689,-298.419522690512
738509.44254373991861939430,-10.3489028595843,-10.2842799157689,-298.484145634327
738509.44254383037332445383,-10.3489028595843,-10.2842799157689,-298.447218237861
738509.44254392071161419153,-10.3396710104678,-10.2842799157689,-298.410290841395
738509.44254401116631925106,-10.3489028595843,-10.2842799157689,-298.447218237861
738509.44254410162102431059,-10.3489028595843,-10.2842799157689,-298.437986388745
738509.44254419207572937012,-10.3489028595843,-10.2842799157689,-298.428754539628
738509.44254428253043442965,-10.3489028595843,-10.2935117648854,-298.364131595813
738509.44254437286872416735,-10.3489028595843,-10.2935117648854,-298.456450086978
738509.44254446332342922688,-10.3673665578173,-10.2935117648854,-298.447218237861
738509.44254455377813428640,-10.3673665578173,-10.2935117648854,-298.428754539628
738509.44254464423283934593,-10.3673665578173,-10.3027436140019,-298.447218237861
738509.44254473468754440546,-10.3673665578173,-10.2935117648854,-298.456450086978
738509.44254482514224946499,-10.3765984069338,-10.3027436140019,-298.456450086978
738509.44254491548053920269,-10.3673665578173,-10.3027436140019,-298.401058992279
738509.44254500593524426222,-10.3765984069338,-10.3119754631184,-298.437986388745
738509.44254509638994932175,-10.3673665578173,-10.3027436140019,-298.456450086978
738509.44254518684465438128,-10.3765984069338,-10.3027436140019,-298.437986388745
738509.44254527729935944080,-10.3765984069338,-10.3119754631184,-298.364131595813
738509.44254536763764917850,-10.3765984069338,-10.3027436140019,-298.373363444929
738509.44254545809235423803,-10.3765984069338,-10.3027436140019,-298.382595294046
738509.44254554854705929756,-10.3765984069338,-10.2935117648854,-298.382595294046
738509.44254563900176435709,-10.3765984069338,-10.3119754631184,-298.391827143162
738509.44254572945646941662,-10.3489028595843,-10.2842799157689,-298.419522690512
738509.44254581991117447615,-10.3212073122349,-10.2750480666524,-298.456450086978
738509.44254591024946421385,-10.3027436140019,-10.2750480666524,-298.447218237861
738509.44254600070416927338,-10.3027436140019,-10.2658162175359,-298.437986388745
738509.44254609115887433290,-10.2658162175359,-10.2381206701865,-298.373363444929
738509.44254618161357939243,-10.22888882107,-10.22888882107,-298.354899746696
738509.44254627206828445196,-10.22888882107,-10.2381206701865,-298.364131595813
738509.44254636240657418966,-10.2935117648854,-10.247352519303,-298.391827143162
738509.44254645286127924919,-10.3119754631184,-10.2565843684194,-298.391827143162
738509.44254654331598430872,-10.3581347087008,-10.2750480666524,-298.373363444929
738509.44254663377068936825,-10.3765984069338,-10.2842799157689,-298.170262764367
738509.44254672422539442778,-10.4135258033998,-10.3027436140019,-298.262581255531
738509.44254681456368416548,-10.4042939542833,-10.3119754631184,-298.336436048463
738509.44254690501838922501,-10.4135258033998,-10.3304391613514,-298.336436048463
738509.44254699547309428453,-10.4042939542833,-10.3212073122349,-298.34566789758
738509.44254708592779934406,-10.4135258033998,-10.3212073122349,-298.336436048463
738509.44254717638250440359,-10.4227576525162,-10.3304391613514,-298.364131595813
738509.44254726683720946312,-10.4135258033998,-10.3304391613514,-298.391827143162
738509.44254735717549920082,-10.4412213507492,-10.3304391613514,-298.327204199347
738509.44254744763020426035,-10.5150761436811,-10.3027436140019,-298.327204199347
738509.44254753808490931988,-10.5335398419141,-10.2381206701865,-298.354899746696
738509.44254762853961437941,-10.0073244422742,-10.1827295754875,-298.373363444929
738509.44254771899431943893,-9.56419568468276,-10.0719473860897,-298.31797235023
738509.44254780933260917664,-9.2780083620716,-10.0719473860897,-298.31797235023
738509.44254789978731423616,-9.45341349528489,-9.9519333475753,-298.271813104648
738509.44254799024201929569,-10.3673665578173,-9.88731040375988,-298.354899746696
738509.44254808069672435522,-10.5427716910306,-10.0904110843226,-298.410290841395
738509.44254817115142941475,-10.4319895016327,-10.210425122837,-298.336436048463
738509.44254826148971915245,-10.4227576525162,-10.2842799157689,-298.401058992279
738509.44254835194442421198,-10.4135258033998,-10.3119754631184,-298.419522690512
738509.44254844239912927151,-10.4319895016327,-10.3212073122349,-298.31797235023
738509.44254853285383433104,-10.4227576525162,-10.3212073122349,-298.401058992279
738509.44254862330853939056,-10.4227576525162,-10.3304391613514,-298.401058992279
738509.44254871376324445009,-10.4042939542833,-10.3212073122349,-298.382595294046
738509.44254880410153418779,-10.4042939542833,-10.3119754631184,-298.373363444929
738509.44254889455623924732,-10.3950621051668,-10.3212073122349,-298.401058992279
738509.44254898501094430685,-10.3858302560503,-10.3119754631184,-298.410290841395
738509.44254907546564936638,-10.3950621051668,-10.3119754631184,-298.31797235023
738509.44254916592035442591,-10.3765984069338,-10.3119754631184,-298.401058992279
738509.44254925625864416361,-10.3858302560503,-10.3027436140019,-298.419522690512
738509.44254934671334922314,-10.3581347087008,-10.2935117648854,-298.354899746696
738509.44254943716805428267,-10.3673665578173,-10.2842799157689,-298.354899746696
738509.44254952762275934219,-10.3489028595843,-10.2750480666524,-298.373363444929
738509.44254961807746440172,-10.3396710104678,-10.2658162175359,-298.34566789758
738509.44254970841575413942,-10.3212073122349,-10.2565843684194,-298.354899746696
738509.44254979887045919895,-10.3119754631184,-10.2381206701865,-298.327204199347
738509.44254988932516425848,-10.2842799157689,-10.2196569719535,-298.327204199347
738509.44254997977986931801,-10.2658162175359,-10.2011932737205,-298.327204199347
738509.44255007023457437754,-10.247352519303,-10.173497726371,-298.34566789758
738509.44255016068927943707,-10.210425122837,-10.1458021790216,-298.179494613483
738509.44255025102756917477,-10.2011932737205,-10.1273384807886,-298.225653859066
738509.44255034148227423429,-10.1642658772546,-10.1088747825556,-298.31797235023
738509.44255043193697929382,-10.1550340281381,-10.0996429334391,-298.327204199347
738509.44255052239168435335,-10.1273384807886,-10.0904110843226,-298.34566789758
738509.44255061284638941288,-10.1365703299051,-10.1088747825556,-298.290276802881
738509.44255070318467915058,-10.1273384807886,-10.1181066316721,-298.290276802881
738509.44255079363938421011,-10.1458021790216,-10.1550340281381,-298.290276802881
738509.44255088409408926964,-10.1458021790216,-10.173497726371,-298.327204199347
738509.44255097454879432917,-10.1642658772546,-10.2011932737205,-298.308740501114
738509.44255106500349938869,-10.2011932737205,-10.2381206701865,-298.354899746696
738509.44255115534178912640,-10.2196569719535,-10.2565843684194,-298.336436048463
738509.44255124579649418592,-10.247352519303,-10.2750480666524,-298.336436048463
738509.44255133625119924545,-10.2565843684194,-10.2750480666524,-298.391827143162
738509.44255142670590430498,-10.2658162175359,-10.2842799157689,-298.299508651997
738509.44255151716060936451,-10.2658162175359,-10.2842799157689,-298.336436048463
738509.44255160761531442404,-10.2658162175359,-10.2842799157689,-298.336436048463
738509.44255169795360416174,-10.2565843684194,-10.2842799157689,-298.354899746696
738509.44255178840830922127,-10.2658162175359,-10.2935117648854,-298.382595294046
738509.44255187886301428080,-10.247352519303,-10.2842799157689,-298.364131595813
738509.44255196931771934032,-10.2658162175359,-10.2935117648854,-298.308740501114
738509.44255205977242439985,-10.2381206701865,-10.2750480666524,-298.262581255531
738509.44255215011071413755,-10.2565843684194,-10.2842799157689,-298.299508651997
738509.44255224056541919708,-10.2381206701865,-10.2750480666524,-298.299508651997
738509.44255233102012425661,-10.247352519303,-10.2842799157689,-298.308740501114
738509.44255242147482931614,-10.22888882107,-10.2750480666524,-298.327204199347
738509.44255251192953437567,-10.2381206701865,-10.2750480666524,-298.34566789758
738509.44255260226782411337,-10.22888882107,-10.2750480666524,-298.373363444929
738509.44255269272252917290,-10.2381206701865,-10.2750480666524,-298.299508651997
738509.44255278317723423243,-10.22888882107,-10.2750480666524,-298.336436048463
738509.44255287363193929195,-10.2196569719535,-10.2750480666524,-298.391827143162
738509.44255296408664435148,-10.2381206701865,-10.2842799157689,-298.336436048463
738509.44255305454134941101,-10.2196569719535,-10.2750480666524,-298.31797235023
738509.44255314487963914871,-10.22888882107,-10.2842799157689,-298.364131595813
738509.44255323533434420824,-10.2196569719535,-10.2750480666524,-298.391827143162
738509.44255332578904926777,-10.2381206701865,-10.2842799157689,-298.281044953764
738509.44255341624375432730,-10.2196569719535,-10.2750480666524,-298.364131595813
738509.44255350669845938683,-10.247352519303,-10.2842799157689,-298.364131595813
738509.44255359703674912453,-10.22888882107,-10.2842799157689,-298.31797235023
738509.44255368749145418406,-10.247352519303,-10.2842799157689,-298.234885708182
738509.44255377794615924358,-10.22888882107,-10.2842799157689,-298.271813104648
738509.44255386840086430311,-10.247352519303,-10.2842799157689,-298.391827143162
738509.44255395885556936264,-10.2381206701865,-10.2842799157689,-298.336436048463
738509.44255404919385910034,-10.247352519303,-10.2842799157689,-298.34566789758
738509.44255413964856415987,-10.247352519303,-10.2842799157689,-298.382595294046
738509.44255423010326921940,-10.247352519303,-10.2842799157689,-298.290276802881
738509.44255432055797427893,-10.210425122837,-10.247352519303,-298.382595294046
738509.44255441101267933846,-10.1827295754875,-10.2381206701865,-298.354899746696
738509.44255450146738439798,-10.1642658772546,-10.2565843684194,-298.308740501114
738509.44255459180567413568,-10.1642658772546,-10.2196569719535,-298.327204199347
738509.44255468226037919521,-10.1458021790216,-10.2196569719535,-298.354899746696
738509.44255477271508425474,-10.0719473860897,-10.2011932737205,-298.290276802881
738509.44255486316978931427,-10.1088747825556,-10.22888882107,-298.290276802881
738509.44255495362449437380,-10.1458021790216,-10.2196569719535,-298.290276802881
738509.44255504396278411150,-10.210425122837,-10.247352519303,-298.308740501114
738509.44255513441748917103,-10.22888882107,-10.2565843684194,-298.308740501114
738509.44255522487219423056,-10.2842799157689,-10.2750480666524,-298.299508651997
738509.44255531532689929008,-10.2935117648854,-10.2935117648854,-298.327204199347
738509.44255540578160434961,-10.3027436140019,-10.3119754631184,-298.31797235023
738509.44255549611989408731,-10.3027436140019,-10.3119754631184,-298.31797235023
738509.44255558657459914684,-10.3027436140019,-10.3119754631184,-298.31797235023
738509.44255567702930420637,-10.3027436140019,-10.3119754631184,-298.336436048463
738509.44255576748400926590,-10.3119754631184,-10.3119754631184,-298.308740501114
738509.44255585793871432543,-10.3212073122349,-10.3119754631184,-298.34566789758
738509.44255594839341938496,-10.3765984069338,-10.3027436140019,-298.336436048463
738509.44255603873170912266,-10.4873805963317,-10.22888882107,-298.354899746696
738509.44255612918641418219,-10.0996429334391,-10.191961424604,-298.327204199347
738509.44255621964111924171,-9.58265938291574,-10.0996429334391,-298.244117557298
738509.44255631009582430124,-9.24108096560564,-10.0627155369732,-298.299508651997
738509.44255640055052936077,-9.25954466383862,-9.98886074404126,-298.197958311716
738509.44255649088881909847,-10.0350199896237,-9.77652821436201,-298.179494613483
738509.44255658134352415800,-10.4135258033998,-9.91500595110935,-298.225653859066
738509.44255667179822921753,-10.4412213507492,-10.0719473860897,-298.244117557298
738509.44255676225293427706,-10.3396710104678,-10.2011932737205,-298.271813104648
738509.44255685270763933659,-10.3212073122349,-10.2750480666524,-298.34566789758
738509.44255694304592907429,-10.3396710104678,-10.3027436140019,-298.271813104648
738509.44255703350063413382,-10.3396710104678,-10.3119754631184,-298.373363444929
738509.44255712395533919334,-10.3396710104678,-10.3119754631184,-298.364131595813
738509.44255721441004425287,-10.3304391613514,-10.3212073122349,-298.253349406415
738509.44255730486474931240,-10.3212073122349,-10.3119754631184,-298.244117557298
738509.44255739531945437193,-10.3304391613514,-10.3119754631184,-298.382595294046
738509.44255748565774410963,-10.3119754631184,-10.3027436140019,-298.364131595813
738509.44255757611244916916,-10.3212073122349,-10.3027436140019,-298.34566789758
738509.44255766656715422869,-10.3027436140019,-10.2935117648854,-298.336436048463
738509.44255775702185928822,-10.3119754631184,-10.2935117648854,-298.354899746696
738509.44255784747656434774,-10.2935117648854,-10.2842799157689,-298.281044953764
738509.44255793781485408545,-10.2935117648854,-10.2842799157689,-298.354899746696
738509.44255802826955914497,-10.2750480666524,-10.2658162175359,-298.34566789758
738509.44255811872426420450,-10.2842799157689,-10.2658162175359,-298.281044953764
738509.44255820917896926403,-10.2565843684194,-10.247352519303,-298.336436048463
738509.44255829963367432356,-10.2565843684194,-10.2381206701865,-298.327204199347
738509.44255838997196406126,-10.247352519303,-10.2196569719535,-298.354899746696
738509.44255848042666912079,-10.2196569719535,-10.191961424604,-298.253349406415
738509.44255857088137418032,-10.210425122837,-10.173497726371,-298.271813104648
738509.44255866133607923985,-10.173497726371,-10.1458021790216,-298.262581255531
738509.44255875179078429937,-10.1642658772546,-10.1273384807886,-298.262581255531
738509.44255884224548935890,-10.1181066316721,-10.0996429334391,-298.234885708182
738509.44255893258377909660,-10.1088747825556,-10.0904110843226,-298.244117557298
738509.44255902303848415613,-10.0811792352062,-10.0719473860897,-298.244117557298
738509.44255911349318921566,-10.0904110843226,-10.0811792352062,-298.253349406415
738509.44255920394789427519,-10.0627155369732,-10.0811792352062,-298.308740501114
738509.44255929440259933472,-10.0811792352062,-10.1088747825556,-298.253349406415
738509.44255938474088907242,-10.0719473860897,-10.1365703299051,-298.281044953764
738509.44255947519559413195,-10.1181066316721,-10.173497726371,-298.308740501114
738509.44255956565029919147,-10.1273384807886,-10.2011932737205,-298.327204199347
738509.44255965610500425100,-10.173497726371,-10.22888882107,-298.271813104648
738509.44255974655970931053,-10.1827295754875,-10.247352519303,-298.253349406415
738509.44255983689799904823,-10.210425122837,-10.2658162175359,-298.253349406415
738509.44255992735270410776,-10.210425122837,-10.2658162175359,-298.281044953764
738509.44256001780740916729,-10.22888882107,-10.2658162175359,-298.281044953764
738509.44256010826211422682,-10.2196569719535,-10.2750480666524,-298.281044953764
738509.44256019871681928635,-10.22888882107,-10.2658162175359,-298.253349406415
738509.44256028917152434587,-10.2381206701865,-10.2750480666524,-298.262581255531
738509.44256037950981408358,-10.210425122837,-10.2658162175359,-298.299508651997
738509.44256046996451914310,-10.22888882107,-10.2750480666524,-298.327204199347
738509.44256056041922420263,-10.210425122837,-10.2565843684194,-298.336436048463
738509.44256065087392926216,-10.2196569719535,-10.2658162175359,-298.336436048463
738509.44256074132863432169,-10.2011932737205,-10.2565843684194,-298.197958311716
738509.44256083166692405939,-10.210425122837,-10.2658162175359,-298.234885708182
738509.44256092212162911892,-10.191961424604,-10.2565843684194,-298.327204199347
738509.44256101257633417845,-10.2011932737205,-10.2565843684194,-298.253349406415
738509.44256110303103923798,-10.191961424604,-10.2565843684194,-298.327204199347
738509.44256119348574429750,-10.2011932737205,-10.2565843684194,-298.327204199347
738509.44256128382403403521,-10.191961424604,-10.2565843684194,-298.290276802881
738509.44256137427873909473,-10.2011932737205,-10.2565843684194,-298.299508651997
738509.44256146473344415426,-10.2011932737205,-10.2565843684194,-298.327204199347
738509.44256155518814921379,-10.2011932737205,-10.2565843684194,-298.327204199347
738509.44256164564285427332,-10.2011932737205,-10.2565843684194,-298.253349406415
738509.44256173609755933285,-10.2011932737205,-10.2565843684194,-298.336436048463
738509.44256182643584907055,-10.210425122837,-10.2658162175359,-298.308740501114
738509.44256191689055413008,-10.210425122837,-10.2565843684194,-298.262581255531
738509.44256200734525918961,-10.2196569719535,-10.2658162175359,-298.31797235023
738509.44256209779996424913,-10.2196569719535,-10.2658162175359,-298.354899746696
738509.44256218825466930866,-10.22888882107,-10.2658162175359,-298.336436048463
738509.44256227859295904636,-10.2196569719535,-10.2658162175359,-298.262581255531
738509.44256236904766410589,-10.22888882107,-10.2750480666524,-298.31797235023
738509.44256245950236916542,-10.2196569719535,-10.2750480666524,-298.308740501114
738509.44256254995707422495,-10.2381206701865,-10.2750480666524,-298.308740501114
738509.44256264041177928448,-10.2196569719535,-10.2658162175359,-298.308740501114
738509.44256273086648434401,-10.1827295754875,-10.22888882107,-298.336436048463
738509.44256282120477408171,-10.1550340281381,-10.2381206701865,-298.34566789758
738509.44256291165947914124,-10.1550340281381,-10.22888882107,-298.271813104648
738509.44256300211418420076,-10.1273384807886,-10.2011932737205,-298.327204199347
738509.44256309256888926029,-10.0719473860897,-10.191961424604,-298.308740501114
738509.44256318302359431982,-10.0719473860897,-10.2011932737205,-298.262581255531
738509.44256327336188405752,-10.1181066316721,-10.191961424604,-298.244117557298
738509.44256336381658911705,-10.173497726371,-10.2196569719535,-298.271813104648
738509.44256345427129417658,-10.210425122837,-10.22888882107,-298.299508651997
738509.44256354472599923611,-10.2658162175359,-10.2565843684194,-298.299508651997
738509.44256363518070429564,-10.2842799157689,-10.2750480666524,-298.290276802881
738509.44256372551899403334,-10.2935117648854,-10.2935117648854,-298.271813104648
738509.44256381597369909286,-10.2842799157689,-10.2842799157689,-298.354899746696
738509.44256390642840415239,-10.3027436140019,-10.2935117648854,-298.34566789758
738509.44256399688310921192,-10.2935117648854,-10.3027436140019,-298.336436048463
738509.44256408733781427145,-10.2935117648854,-10.2935117648854,-298.271813104648
738509.44256417779251933098,-10.3119754631184,-10.3119754631184,-298.271813104648
738509.44256426813080906868,-10.3119754631184,-10.3027436140019,-298.253349406415
738509.44256435858551412821,-10.3858302560503,-10.3027436140019,-298.207190160833
738509.44256444904021918774,-10.4596850489822,-10.210425122837,-298.234885708182
738509.44256453949492424726,-10.0719473860897,-10.173497726371,-298.253349406415
738509.44256462994962930679,-9.55496383556627,-10.0627155369732,-298.253349406415
738509.44256472028791904449,-9.25031281472213,-10.0627155369732,-298.271813104648
738509.44256481074262410402,-9.32416760765404,-9.97039704580828,-298.216422009949
738509.44256490119732916355,-10.1827295754875,-9.77652821436201,-298.225653859066
738509.44256499165203422308,-10.4689168980987,-9.99809259315775,-298.31797235023
738509.44256508210673928261,-10.3765984069338,-10.1458021790216,-298.262581255531
738509.44256517244502902031,-10.3119754631184,-10.2381206701865,-298.31797235023
738509.44256526289973407984,-10.3396710104678,-10.2935117648854,-298.34566789758
738509.44256535335443913937,-10.3304391613514,-10.2935117648854,-298.34566789758
738509.44256544380914419889,-10.3489028595843,-10.3119754631184,-298.308740501114
738509.44256553426384925842,-10.3304391613514,-10.3027436140019,-298.336436048463
738509.44256562471855431795,-10.3396710104678,-10.3119754631184,-298.336436048463
738509.44256571505684405565,-10.3212073122349,-10.3027436140019,-298.281044953764
738509.44256580551154911518,-10.3212073122349,-10.3027436140019,-298.354899746696
738509.44256589596625417471,-10.3119754631184,-10.2935117648854,-298.336436048463
738509.44256598642095923424,-10.3027436140019,-10.2935117648854,-298.34566789758
738509.44256607687566429377,-10.3119754631184,-10.2935117648854,-298.290276802881
738509.44256616721395403147,-10.2935117648854,-10.2842799157689,-298.31797235023
738509.44256625766865909100,-10.3027436140019,-10.2842799157689,-298.34566789758
738509.44256634812336415052,-10.2842799157689,-10.2658162175359,-298.244117557298
738509.44256643857806921005,-10.2842799157689,-10.2658162175359,-298.290276802881
738509.44256652903277426958,-10.2658162175359,-10.247352519303,-298.281044953764
738509.44256661937106400728,-10.2658162175359,-10.2381206701865,-298.262581255531
738509.44256670982576906681,-10.2381206701865,-10.2196569719535,-298.262581255531
738509.44256680028047412634,-10.2381206701865,-10.2011932737205,-298.253349406415
738509.44256689073517918587,-10.2011932737205,-10.173497726371,-298.281044953764
738509.44256698118988424540,-10.191961424604,-10.1458021790216,-298.225653859066
738509.44256707164458930492,-10.1550340281381,-10.1181066316721,-298.327204199347
738509.44256716198287904263,-10.1365703299051,-10.1088747825556,-298.225653859066
738509.44256725243758410215,-10.1181066316721,-10.0904110843226,-298.271813104648
738509.44256734289228916168,-10.0996429334391,-10.0811792352062,-298.225653859066
738509.44256743334699422121,-10.0904110843226,-10.0719473860897,-298.244117557298
738509.44256752380169928074,-10.0811792352062,-10.0719473860897,-298.299508651997
738509.44256761413998901844,-10.0811792352062,-10.0904110843226,-298.290276802881
738509.44256770459469407797,-10.0811792352062,-10.1181066316721,-298.244117557298
738509.44256779504939913750,-10.1088747825556,-10.1550340281381,-298.207190160833
738509.44256788550410419703,-10.1181066316721,-10.173497726371,-298.170262764367
738509.44256797595880925655,-10.1550340281381,-10.210425122837,-298.271813104648
738509.44256806629709899426,-10.173497726371,-10.22888882107,-298.197958311716
738509.44256815675180405378,-10.2011932737205,-10.247352519303,-298.244117557298
738509.44256824720650911331,-10.210425122837,-10.2565843684194,-298.253349406415
738509.44256833766121417284,-10.2196569719535,-10.2658162175359,-298.1887264626
738509.44256842811591923237,-10.22888882107,-10.2658162175359,-298.271813104648
738509.44256851857062429190,-10.22888882107,-10.2658162175359,-298.244117557298
738509.44256860890891402960,-10.22888882107,-10.2658162175359,-298.299508651997
738509.44256869936361908913,-10.2381206701865,-10.2658162175359,-298.262581255531
738509.44256878981832414865,-10.2381206701865,-10.2658162175359,-298.253349406415
738509.44256888027302920818,-10.2196569719535,-10.2658162175359,-298.308740501114
738509.44256897072773426771,-10.22888882107,-10.2658162175359,-298.327204199347
738509.44256906106602400541,-10.2196569719535,-10.2565843684194,-298.271813104648
738509.44256915152072906494,-10.2196569719535,-10.2658162175359,-298.299508651997
738509.44256924197543412447,-10.2011932737205,-10.247352519303,-298.336436048463
738509.44256933243013918400,-10.2196569719535,-10.2658162175359,-298.308740501114
738509.44256942288484424353,-10.2011932737205,-10.247352519303,-298.290276802881
738509.44256951322313398123,-10.210425122837,-10.2658162175359,-298.354899746696
738509.44256960367783904076,-10.2011932737205,-10.247352519303,-298.34566789758
738509.44256969413254410028,-10.2196569719535,-10.2658162175359,-298.299508651997
738509.44256978458724915981,-10.210425122837,-10.2565843684194,-298.308740501114
738509.44256987504195421934,-10.210425122837,-10.2565843684194,-298.327204199347
738509.44256996549665927887,-10.2196569719535,-10.2565843684194,-298.336436048463
738509.44257005583494901657,-10.210425122837,-10.2565843684194,-298.290276802881
738509.44257014628965407610,-10.22888882107,-10.2658162175359,-298.327204199347
738509.44257023674435913563,-10.22888882107,-10.2658162175359,-298.364131595813
738509.44257032719906419516,-10.2381206701865,-10.2658162175359,-298.253349406415
738509.44257041765376925468,-10.22888882107,-10.2658162175359,-298.31797235023
738509.44257050799205899239,-10.247352519303,-10.2750480666524,-298.327204199347
738509.44257059844676405191,-10.2381206701865,-10.2658162175359,-298.281044953764
738509.44257068890146911144,-10.2565843684194,-10.2750480666524,-298.31797235023
738509.44257077935617417097,-10.247352519303,-10.2658162175359,-298.364131595813
738509.44257086981087923050,-10.22888882107,-10.2565843684194,-298.31797235023
738509.44257096014916896820,-10.1827295754875,-10.247352519303,-298.308740501114
738509.44257105060387402773,-10.1827295754875,-10.2381206701865,-298.31797235023
738509.44257114105857908726,-10.1365703299051,-10.210425122837,-298.336436048463
738509.44257123151328414679,-10.1181066316721,-10.2196569719535,-298.290276802881
738509.44257132196798920631,-10.0904110843226,-10.2011932737205,-298.16103091525
738509.44257141242269426584,-10.1088747825556,-10.2196569719535,-298.216422009949
738509.44257150276098400354,-10.1365703299051,-10.2011932737205,-298.262581255531
738509.44257159321568906307,-10.191961424604,-10.22888882107,-298.290276802881
738509.44257168367039412260,-10.22888882107,-10.2381206701865,-298.299508651997
738509.44257177412509918213,-10.2658162175359,-10.2565843684194,-298.281044953764
738509.44257186457980424166,-10.3212073122349,-10.2842799157689,-298.281044953764
738509.44257195491809397936,-10.3119754631184,-10.2842799157689,-298.290276802881
738509.44257204537279903889,-10.3396710104678,-10.3027436140019,-298.299508651997
738509.44257213582750409842,-10.3212073122349,-10.2935117648854,-298.336436048463
738509.44257222628220915794,-10.3489028595843,-10.3027436140019,-298.336436048463
738509.44257231673691421747,-10.3396710104678,-10.3027436140019,-298.290276802881
738509.44257240707520395517,-10.3489028595843,-10.3027436140019,-298.299508651997
738509.44257249752990901470,-10.3673665578173,-10.2935117648854,-298.308740501114
738509.44257258798461407423,-10.4504531998657,-10.2935117648854,-298.290276802881
738509.44257267843931913376,-10.4689168980987,-10.2196569719535,-298.281044953764
738509.44257276889402419329,-9.98886074404126,-10.1642658772546,-298.225653859066
738509.44257285934872925282,-9.49957274086734,-10.0442518387402,-298.1887264626
738509.44257294968701899052,-9.22261726737266,-10.0719473860897,-298.216422009949
738509.44257304014172405005,-9.4441816461684,-9.9519333475753,-298.170262764367
738509.44257313059642910957,-10.3304391613514,-9.85961485641041,-298.1887264626
738509.44257322105113416910,-10.5243079927976,-10.0442518387402,-298.31797235023
738509.44257331150583922863,-10.4227576525162,-10.1642658772546,-298.354899746696
738509.44257340184412896633,-10.3950621051668,-10.247352519303,-298.281044953764
738509.44257349229883402586,-10.3950621051668,-10.2842799157689,-298.336436048463
738509.44257358275353908539,-10.4042939542833,-10.2935117648854,-298.364131595813
738509.44257367320824414492,-10.3858302560503,-10.2935117648854,-298.391827143162
738509.44257376366294920444,-10.3950621051668,-10.3027436140019,-298.308740501114
738509.44257385400123894215,-10.3858302560503,-10.2935117648854,-298.382595294046
738509.44257394445594400167,-10.3858302560503,-10.2935117648854,-298.401058992279
738509.44257403491064906120,-10.3673665578173,-10.2935117648854,-298.281044953764
738509.44257412536535412073,-10.3765984069338,-10.2935117648854,-298.373363444929
738509.44257421582005918026,-10.3765984069338,-10.2935117648854,-298.373363444929
738509.44257430627476423979,-10.3673665578173,-10.2842799157689,-298.336436048463
738509.44257439661305397749,-10.3581347087008,-10.2750480666524,-298.391827143162
738509.44257448706775903702,-10.3581347087008,-10.2658162175359,-298.391827143162
738509.44257457752246409655,-10.3489028595843,-10.2658162175359,-298.354899746696
738509.44257466797716915607,-10.3396710104678,-10.2565843684194,-298.34566789758
738509.44257475843187421560,-10.3396710104678,-10.247352519303,-298.401058992279
738509.44257484877016395330,-10.3212073122349,-10.22888882107,-298.207190160833
738509.44257493922486901283,-10.3119754631184,-10.2196569719535,-298.234885708182
738509.44257502967957407236,-10.2842799157689,-10.191961424604,-298.373363444929
738509.44257512013427913189,-10.2750480666524,-10.173497726371,-298.34566789758
738509.44257521058898419142,-10.2381206701865,-10.1458021790216,-298.271813104648
738509.44257530092727392912,-10.22888882107,-10.1365703299051,-298.290276802881
738509.44257539138197898865,-10.210425122837,-10.1181066316721,-298.327204199347
738509.44257548183668404818,-10.191961424604,-10.0996429334391,-298.336436048463
738509.44257557229138910770,-10.173497726371,-10.0904110843226,-298.373363444929
738509.44257566274609416723,-10.1642658772546,-10.0811792352062,-298.336436048463
738509.44257575320079922676,-10.1642658772546,-10.0904110843226,-298.299508651997
738509.44257584353908896446,-10.1550340281381,-10.0904110843226,-298.290276802881
738509.44257593399379402399,-10.1642658772546,-10.1273384807886,-298.244117557298
738509.44257602444849908352,-10.173497726371,-10.1550340281381,-298.281044953764
738509.44257611490320414305,-10.2011932737205,-10.191961424604,-298.244117557298
738509.44257620535790920258,-10.2196569719535,-10.210425122837,-298.262581255531
738509.44257629569619894028,-10.2565843684194,-10.2381206701865,-298.253349406415
738509.44257638615090399981,-10.2565843684194,-10.247352519303,-298.290276802881
738509.44257647660560905933,-10.2842799157689,-10.2565843684194,-298.327204199347
738509.44257656706031411886,-10.2842799157689,-10.2565843684194,-298.336436048463
738509.44257665751501917839,-10.3119754631184,-10.2658162175359,-298.354899746696
738509.44257674785330891609,-10.2935117648854,-10.2658162175359,-298.382595294046
738509.44257683830801397562,-10.3027436140019,-10.2658162175359,-298.382595294046
738509.44257692876271903515,-10.2935117648854,-10.2565843684194,-298.34566789758
738509.44257701921742409468,-10.2935117648854,-10.2565843684194,-298.308740501114
738509.44257710967212915421,-10.3027436140019,-10.2750480666524,-298.354899746696
738509.44257720012683421373,-10.3027436140019,-10.2750480666524,-298.327204199347
738509.44257729046512395144,-10.3119754631184,-10.2750480666524,-298.373363444929
738509.44257738091982901096,-10.2935117648854,-10.2658162175359,-298.401058992279
738509.44257747137453407049,-10.2935117648854,-10.2658162175359,-298.354899746696
738509.44257756182923913002,-10.2935117648854,-10.2565843684194,-298.364131595813
738509.44257765228394418955,-10.3027436140019,-10.2658162175359,-298.410290841395
738509.44257774262223392725,-10.2935117648854,-10.2565843684194,-298.364131595813
738509.44257783307693898678,-10.3027436140019,-10.2658162175359,-298.327204199347
738509.44257792353164404631,-10.3027436140019,-10.2658162175359,-298.391827143162
738509.44257801398634910583,-10.3119754631184,-10.2658162175359,-298.382595294046
738509.44257810444105416536,-10.3027436140019,-10.2565843684194,-298.410290841395
738509.44257819477934390306,-10.3212073122349,-10.2750480666524,-298.308740501114
738509.44257828523404896259,-10.3119754631184,-10.2750480666524,-298.382595294046
738509.44257837568875402212,-10.3304391613514,-10.2935117648854,-298.253349406415
738509.44257846614345908165,-10.3304391613514,-10.2842799157689,-298.262581255531
738509.44257855659816414118,-10.3304391613514,-10.2842799157689,-298.364131595813
738509.44257864705286920071,-10.3027436140019,-10.2750480666524,-298.419522690512
738509.44257873739115893841,-10.2842799157689,-10.2842799157689,-298.410290841395
738509.44257882784586399794,-10.247352519303,-10.247352519303,-298.34566789758
738509.44257891830056905746,-10.191961424604,-10.22888882107,-298.373363444929
738509.44257900875527411699,-10.1827295754875,-10.2381206701865,-298.428754539628
738509.44257909920997917652,-10.1827295754875,-10.22888882107,-298.281044953764
738509.44257918954826891422,-10.191961424604,-10.22888882107,-298.308740501114
738509.44257928000297397375,-10.2011932737205,-10.22888882107,-298.31797235023
738509.44257937045767903328,-10.2381206701865,-10.22888882107,-298.299508651997
738509.44257946091238409281,-10.2750480666524,-10.2565843684194,-298.308740501114
738509.44257955136708915234,-10.3765984069338,-10.2842799157689,-298.299508651997
738509.44257964182179421186,-10.3950621051668,-10.3027436140019,-298.327204199347
738509.44257973216008394957,-10.4135258033998,-10.3119754631184,-298.327204199347
738509.44257982261478900909,-10.4227576525162,-10.3119754631184,-298.308740501114
738509.44257991306949406862,-10.4319895016327,-10.3212073122349,-298.327204199347
738509.44258000352419912815,-10.4319895016327,-10.3027436140019,-298.373363444929
738509.44258009397890418768,-10.4504531998657,-10.3027436140019,-298.373363444929
738509.44258018431719392538,-10.4412213507492,-10.3027436140019,-298.354899746696
738509.44258027477189898491,-10.4781487472152,-10.3027436140019,-298.419522690512
738509.44258036522660404444,-10.5889309366131,-10.2935117648854,-298.410290841395
738509.44258045568130910397,-10.5243079927976,-10.2565843684194,-298.327204199347
738509.44258054613601416349,-9.98886074404126,-10.2011932737205,-298.31797235023
738509.44258063647430390120,-9.54573198644978,-10.0534836878567,-298.281044953764
738509.44258072692900896072,-9.26877651295511,-10.1088747825556,-298.290276802881
738509.44258081738371402025,-9.58265938291574,-10.0073244422742,-298.281044953764
738509.44258090783841907978,-10.4781487472152,-9.97039704580828,-298.336436048463
738509.44258099829312413931,-10.6350901821955,-10.0904110843226,-298.373363444929
738509.44258108874782919884,-10.5889309366131,-10.1365703299051,-298.410290841395
738509.44258117908611893654,-10.5058442945647,-10.22888882107,-298.391827143162
738509.44258126954082399607,-10.4966124454482,-10.2750480666524,-298.327204199347
738509.44258135999552905560,-10.4873805963317,-10.2842799157689,-298.364131595813
738509.44258145045023411512,-10.4966124454482,-10.3027436140019,-298.373363444929
738509.44258154090493917465,-10.5058442945647,-10.3119754631184,-298.364131595813
738509.44258163124322891235,-10.4966124454482,-10.3027436140019,-298.410290841395
738509.44258172169793397188,-10.4966124454482,-10.3119754631184,-298.410290841395
738509.44258181215263903141,-10.4873805963317,-10.2935117648854,-298.401058992279
738509.44258190260734409094,-10.4873805963317,-10.3027436140019,-298.299508651997
738509.44258199306204915047,-10.4596850489822,-10.2935117648854,-298.308740501114
738509.44258208340033888817,-10.4596850489822,-10.2935117648854,-298.401058992279
