time_dn,ecg_projection_ll_ra_mV,ecg_projection_la_ra_mV,ecg_projection_vx_rl_mV
738532.50828943995293229818,-11.2351603747673,-5.90838343455306,-300.035096285897
738532.50828953040763735771,-11.2259285256508,-5.82529679250465,-300.044328135014
738532.50828962086234241724,-11.2443922238838,-5.86222418897061,-300.08125553148
738532.50828971120063215494,-11.2351603747673,-5.82529679250465,-299.979705191198
738532.50828980165533721447,-11.2536240730003,-5.81606494338816,-300.044328135014
738532.50828989211004227400,-11.2443922238838,-5.81606494338816,-300.035096285897
738532.50828998256474733353,-11.2443922238838,-5.77913754692221,-299.9243140965
738532.50829007301945239305,-11.2351603747673,-5.83452864162114,-299.961241492965
738532.50829016347415745258,-11.2351603747673,-5.76067384868923,-299.933545945616
738532.50829025392886251211,-11.2351603747673,-5.83452864162114,-299.915082247383
738532.50829034426715224981,-11.2351603747673,-5.74221015045625,-299.933545945616
738532.50829043472185730934,-11.2259285256508,-5.84376049073763,-300.035096285897
738532.50829052517656236887,-11.2351603747673,-5.72374645222327,-299.952009643849
738532.50829061563126742840,-11.2351603747673,-5.84376049073763,-299.952009643849
738532.50829070608597248793,-11.2166966765343,-5.70528275399029,-299.961241492965
738532.50829079654067754745,-11.2166966765343,-5.82529679250465,-299.933545945616
738532.50829088699538260698,-11.1982329783013,-5.69605090487381,-299.933545945616
738532.50829097733367234468,-11.2074648274178,-5.76067384868923,-299.988937040315
738532.50829106778837740421,-11.1797692800684,-5.76067384868923,-299.979705191198
738532.50829115824308246374,-11.1797692800684,-5.73297830133976,-299.933545945616
738532.50829124869778752327,-11.1520737327189,-5.73297830133976,-299.970473342082
738532.50829133915249258280,-11.1520737327189,-5.65912350840785,-299.9243140965
738532.50829142960719764233,-11.1243781853694,-5.71451460310678,-299.878154850917
738532.50829152006190270185,-11.1059144871364,-5.60373241370891,-299.813531907102
738532.50829161040019243956,-11.0874507889035,-5.69605090487381,-299.89661854915
738532.50829170085489749908,-11.0689870906705,-5.56680501724296,-299.961241492965
738532.50829179130960255861,-11.0320596942045,-5.64065981017487,-299.988937040315
738532.50829188176430761814,-11.0043641468551,-5.51141392254402,-299.878154850917
738532.50829197221901267767,-10.9859004486221,-5.64065981017487,-299.952009643849
738532.50829206267371773720,-10.9582049012726,-5.48371837519456,-299.979705191198
738532.50829215312842279673,-10.9582049012726,-5.62219611194189,-299.970473342082
738532.50829224346671253443,-10.9674367503891,-5.50218207342753,-299.915082247383
738532.50829233392141759396,-11.0135959959716,-5.67758720664083,-299.998168889431
738532.50829242437612265348,-11.059755241554,-5.60373241370891,-299.988937040315
738532.50829251483082771301,-11.1151463362529,-5.76067384868923,-299.988937040315
738532.50829260528553277254,-11.1336100344859,-5.68681905575732,-300.007400738548
738532.50829269574023783207,-11.1797692800684,-5.82529679250465,-300.035096285897
738532.50829278619494289160,-11.1890011291849,-5.76067384868923,-300.072023682363
738532.50829287653323262930,-11.2074648274178,-5.75144199957274,-299.988937040315
738532.50829296698793768883,-11.2259285256508,-5.88991973632008,-300.044328135014
738532.50829305744264274836,-11.2259285256508,-5.77913754692221,-300.035096285897
738532.50829314789734780788,-11.2351603747673,-5.89915158543657,-300.007400738548
738532.50829323835205286741,-11.2259285256508,-5.77913754692221,-300.016632587664
738532.50829332880675792694,-11.2351603747673,-5.90838343455306,-300.062791833247
738532.50829341926146298647,-11.2259285256508,-5.76067384868923,-300.025864436781
738532.50829350959975272417,-11.2259285256508,-5.88991973632008,-300.025864436781
738532.50829360005445778370,-11.2166966765343,-5.76990569780572,-300.035096285897
738532.50829369050916284323,-11.2259285256508,-5.88068788720359,-300.062791833247
738532.50829378096386790276,-11.2166966765343,-5.76990569780572,-299.998168889431
738532.50829387141857296228,-11.2259285256508,-5.88068788720359,-300.035096285897
738532.50829396187327802181,-11.2259285256508,-5.73297830133976,-299.878154850917
738532.50829405232798308134,-11.2351603747673,-5.7883693960387,-299.988937040315
738532.50829414266627281904,-11.2259285256508,-5.70528275399029,-299.952009643849
738532.50829423312097787857,-11.2259285256508,-5.75144199957274,-299.952009643849
738532.50829432357568293810,-11.2166966765343,-5.72374645222327,-299.952009643849
738532.50829441403038799763,-11.2259285256508,-5.76067384868923,-299.933545945616
738532.50829450448509305716,-11.2259285256508,-5.7883693960387,-299.9243140965
738532.50829459493979811668,-11.2259285256508,-5.77913754692221,-299.970473342082
738532.50829468539450317621,-11.2166966765343,-5.81606494338816,-299.979705191198
738532.50829477573279291391,-11.2166966765343,-5.74221015045625,-299.933545945616
738532.50829486618749797344,-11.2259285256508,-5.88068788720359,-299.979705191198
738532.50829495664220303297,-11.2259285256508,-5.76067384868923,-299.905850398267
738532.50829504709690809250,-11.2443922238838,-5.88068788720359,-299.868923001801
738532.50829513755161315203,-11.2351603747673,-5.77913754692221,-299.998168889431
738532.50829522800631821156,-11.2536240730003,-5.88991973632008,-299.998168889431
738532.50829531846102327108,-11.2351603747673,-5.80683309427168,-300.016632587664
738532.50829540879931300879,-11.2536240730003,-5.88068788720359,-300.016632587664
738532.50829549925401806831,-11.2351603747673,-5.81606494338816,-300.016632587664
738532.50829558970872312784,-11.2536240730003,-5.85299233985412,-299.998168889431
738532.50829568016342818737,-11.2351603747673,-5.84376049073763,-299.970473342082
738532.50829577061813324690,-11.2443922238838,-5.83452864162114,-299.961241492965
738532.50829586107283830643,-11.2351603747673,-5.85299233985412,-299.979705191198
738532.50829595152754336596,-11.2443922238838,-5.81606494338816,-299.988937040315
738532.50829604186583310366,-11.2351603747673,-5.8714560380871,-300.025864436781
738532.50829613232053816319,-11.2351603747673,-5.80683309427168,-300.035096285897
738532.50829622277524322271,-11.2351603747673,-5.88991973632008,-300.08125553148
738532.50829631322994828224,-11.2351603747673,-5.79760124515519,-299.961241492965
738532.50829640368465334177,-11.2443922238838,-5.90838343455306,-300.035096285897
738532.50829649413935840130,-11.2443922238838,-5.79760124515519,-300.016632587664
738532.50829658459406346083,-11.2443922238838,-5.85299233985412,-300.007400738548
738532.50829667493235319853,-11.2259285256508,-5.81606494338816,-300.016632587664
738532.50829676538705825806,-11.2166966765343,-5.83452864162114,-300.05355998413
738532.50829685584176331758,-11.1890011291849,-5.80683309427168,-300.062791833247
738532.50829694629646837711,-11.1890011291849,-5.79760124515519,-299.979705191198
738532.50829703675117343664,-11.1428418836024,-5.77913754692221,-300.016632587664
738532.50829712720587849617,-11.1428418836024,-5.75144199957274,-300.016632587664
738532.50829721766058355570,-11.1336100344859,-5.80683309427168,-299.998168889431
738532.50829730799887329340,-11.1705374309519,-5.76067384868923,-300.035096285897
738532.50829739845357835293,-11.2074648274178,-5.86222418897061,-300.062791833247
738532.50829748890828341246,-11.2259285256508,-5.77913754692221,-300.016632587664
738532.50829757936298847198,-11.2351603747673,-5.91761528366955,-300.025864436781
738532.50829766981769353151,-11.2536240730003,-5.7883693960387,-300.025864436781
738532.50829776027239859104,-11.2720877712333,-5.93607898190252,-300.062791833247
738532.50829785072710365057,-11.2720877712333,-5.80683309427168,-300.007400738548
738532.50829794106539338827,-11.2813196203497,-5.94531083101901,-300.05355998413
738532.50829803152009844780,-11.2813196203497,-5.81606494338816,-299.979705191198
738532.50829812197480350733,-11.2905514694662,-5.9545426801355,-300.025864436781
738532.50829821242950856686,-11.2720877712333,-5.79760124515519,-299.933545945616
738532.50829830288421362638,-11.2813196203497,-5.92684713278603,-299.952009643849
738532.50829839333891868591,-11.2720877712333,-5.80683309427168,-299.988937040315
738532.50829848379362374544,-11.2997833185827,-5.83452864162114,-299.9243140965
738532.50829857413191348314,-11.3182470168157,-5.89915158543657,-299.887386700034
738532.50829866458661854267,-11.1982329783013,-5.81606494338816,-300.007400738548
738532.50829875504132360220,-10.9120456556902,-5.93607898190252,-299.998168889431
738532.50829884549602866173,-10.4504531998657,-5.69605090487381,-299.887386700034
738532.50829893595073372126,-10.1550340281381,-5.79760124515519,-299.961241492965
738532.50829902640543878078,-10.607394634846,-5.83452864162114,-300.035096285897
738532.50829911686014384031,-10.9582049012726,-6.2130344553972,-300.108951078829
738532.50829920719843357801,-11.1890011291849,-5.96377452925199,-300.044328135014
738532.50829929765313863754,-11.2351603747673,-5.99147007660146,-300.062791833247
738532.50829938810784369707,-11.2259285256508,-5.82529679250465,-300.044328135014
738532.50829947856254875660,-11.2443922238838,-5.94531083101901,-299.961241492965
738532.50829956901725381613,-11.2443922238838,-5.80683309427168,-299.952009643849
738532.50829965947195887566,-11.2628559221168,-5.92684713278603,-299.979705191198
738532.50829974992666393518,-11.2536240730003,-5.80683309427168,-299.942777794732
738532.50829984026495367289,-11.2536240730003,-5.88068788720359,-299.942777794732
738532.50829993071965873241,-11.2351603747673,-5.7883693960387,-299.998168889431
738532.50830002117436379194,-11.2443922238838,-5.8714560380871,-300.044328135014
738532.50830011162906885147,-11.2259285256508,-5.7883693960387,-299.970473342082
738532.50830020208377391100,-11.2351603747673,-5.85299233985412,-299.961241492965
738532.50830029253847897053,-11.2166966765343,-5.79760124515519,-300.016632587664
738532.50830038299318403006,-11.2166966765343,-5.75144199957274,-299.961241492965
738532.50830047333147376776,-11.2259285256508,-5.88068788720359,-300.044328135014
738532.50830056378617882729,-11.2074648274178,-5.73297830133976,-300.016632587664
738532.50830065424088388681,-11.2166966765343,-5.8714560380871,-300.05355998413
738532.50830074469558894634,-11.1890011291849,-5.72374645222327,-299.942777794732
738532.50830083515029400587,-11.1890011291849,-5.84376049073763,-300.035096285897
738532.50830092560499906540,-11.1797692800684,-5.73297830133976,-300.025864436781
738532.50830101605970412493,-11.1797692800684,-5.82529679250465,-300.007400738548
738532.50830110639799386263,-11.1520737327189,-5.70528275399029,-299.998168889431
738532.50830119685269892216,-11.1613055818354,-5.7883693960387,-300.025864436781
738532.50830128730740398169,-11.1336100344859,-5.69605090487381,-300.007400738548
738532.50830137776210904121,-11.1151463362529,-5.73297830133976,-299.979705191198
738532.50830146821681410074,-11.0874507889035,-5.66835535752434,-300.025864436781
738532.50830155867151916027,-11.0689870906705,-5.65912350840785,-300.035096285897
738532.50830164912622421980,-11.041291543321,-5.64989165929136,-299.9243140965
738532.50830173946451395750,-11.022827845088,-5.60373241370891,-299.970473342082
738532.50830182991921901703,-10.9859004486221,-5.6129642628254,-299.998168889431
738532.50830192037392407656,-10.9766685995056,-5.54834131900998,-299.915082247383
738532.50830201082862913609,-10.9489730521561,-5.6129642628254,-299.804300057985
738532.50830210128333419561,-10.9582049012726,-5.55757316812647,-299.952009643849
738532.50830219173803925514,-10.9766685995056,-5.65912350840785,-300.016632587664
738532.50830228219274431467,-10.9951322977386,-5.58526871547594,-299.952009643849
738532.50830237253103405237,-11.0505233924375,-5.73297830133976,-299.998168889431
738532.50830246298573911190,-11.0874507889035,-5.70528275399029,-300.035096285897
738532.50830255344044417143,-11.1428418836024,-5.79760124515519,-299.970473342082
738532.50830264389514923096,-11.1613055818354,-5.7883693960387,-299.961241492965
738532.50830273434985429049,-11.1890011291849,-5.83452864162114,-299.961241492965
738532.50830282480455935001,-11.1982329783013,-5.83452864162114,-299.988937040315
738532.50830291525926440954,-11.2074648274178,-5.84376049073763,-299.952009643849
738532.50830300559755414724,-11.2074648274178,-5.8714560380871,-299.961241492965
738532.50830309605225920677,-11.2166966765343,-5.82529679250465,-299.952009643849
738532.50830318650696426630,-11.2166966765343,-5.88068788720359,-299.952009643849
738532.50830327696166932583,-11.2166966765343,-5.81606494338816,-300.025864436781
738532.50830336741637438536,-11.2074648274178,-5.88991973632008,-300.007400738548
738532.50830345787107944489,-11.2074648274178,-5.79760124515519,-299.998168889431
738532.50830354832578450441,-11.2074648274178,-5.92684713278603,-300.007400738548
738532.50830363866407424212,-11.1982329783013,-5.79760124515519,-300.035096285897
738532.50830372911877930164,-11.2074648274178,-5.93607898190252,-300.05355998413
738532.50830381957348436117,-11.1982329783013,-5.79760124515519,-300.025864436781
738532.50830391002818942070,-11.2074648274178,-5.92684713278603,-300.007400738548
738532.50830400048289448023,-11.2074648274178,-5.7883693960387,-299.998168889431
738532.50830409093759953976,-11.2074648274178,-5.86222418897061,-299.970473342082
738532.50830418139230459929,-11.1982329783013,-5.86222418897061,-299.988937040315
738532.50830427173059433699,-11.2074648274178,-5.83452864162114,-299.998168889431
738532.50830436218529939651,-11.1982329783013,-5.88991973632008,-299.970473342082
738532.50830445264000445604,-11.2166966765343,-5.82529679250465,-299.979705191198
738532.50830454309470951557,-11.2166966765343,-5.90838343455306,-299.988937040315
738532.50830463354941457510,-11.2166966765343,-5.82529679250465,-299.961241492965
738532.50830472400411963463,-11.2166966765343,-5.92684713278603,-299.961241492965
738532.50830481445882469416,-11.2166966765343,-5.79760124515519,-299.952009643849
738532.50830490479711443186,-11.2259285256508,-5.93607898190252,-300.025864436781
738532.50830499525181949139,-11.2259285256508,-5.80683309427168,-300.016632587664
738532.50830508570652455091,-11.2166966765343,-5.93607898190252,-299.979705191198
738532.50830517616122961044,-11.2166966765343,-5.79760124515519,-300.007400738548
738532.50830526661593466997,-11.2259285256508,-5.94531083101901,-300.05355998413
738532.50830535707063972950,-11.2074648274178,-5.79760124515519,-300.05355998413
738532.50830544740892946720,-11.2259285256508,-5.93607898190252,-300.035096285897
738532.50830553786363452673,-11.2166966765343,-5.81606494338816,-299.785836359752
738532.50830562831833958626,-11.2259285256508,-5.94531083101901,-299.970473342082
738532.50830571877304464579,-11.2166966765343,-5.79760124515519,-300.08125553148
738532.50830580922774970531,-11.2259285256508,-5.90838343455306,-299.970473342082
738532.50830589968245476484,-11.2166966765343,-5.82529679250465,-300.025864436781
738532.50830599013715982437,-11.2259285256508,-5.81606494338816,-300.05355998413
738532.50830608047544956207,-11.2259285256508,-5.93607898190252,-300.044328135014
738532.50830617093015462160,-11.2259285256508,-5.80683309427168,-299.952009643849
738532.50830626138485968113,-11.2259285256508,-5.91761528366955,-300.062791833247
738532.50830635183956474066,-11.2166966765343,-5.7883693960387,-300.044328135014
738532.50830644229426980019,-11.2259285256508,-5.93607898190252,-300.007400738548
738532.50830653274897485971,-11.2074648274178,-5.77913754692221,-300.035096285897
738532.50830662320367991924,-11.1982329783013,-5.90838343455306,-300.025864436781
738532.50830671354196965694,-11.1705374309519,-5.76990569780572,-300.007400738548
738532.50830680399667471647,-11.1613055818354,-5.88068788720359,-300.035096285897
738532.50830689445137977600,-11.1243781853694,-5.74221015045625,-300.035096285897
738532.50830698490608483553,-11.1151463362529,-5.82529679250465,-300.072023682363
738532.50830707536078989506,-11.09668263802,-5.74221015045625,-299.979705191198
738532.50830716581549495459,-11.1428418836024,-5.82529679250465,-300.035096285897
738532.50830725627020001411,-11.1705374309519,-5.79760124515519,-299.998168889431
738532.50830734660848975182,-11.1982329783013,-5.85299233985412,-299.988937040315
738532.50830743706319481134,-11.2074648274178,-5.83452864162114,-299.970473342082
738532.50830752751789987087,-11.2351603747673,-5.86222418897061,-300.007400738548
738532.50830761797260493040,-11.2351603747673,-5.88068788720359,-300.007400738548
738532.50830770842730998993,-11.2536240730003,-5.85299233985412,-299.970473342082
738532.50830779888201504946,-11.2536240730003,-5.88991973632008,-299.979705191198
738532.50830788933672010899,-11.2536240730003,-5.80683309427168,-299.979705191198
738532.50830797967500984669,-11.2720877712333,-5.93607898190252,-300.007400738548
738532.50830807012971490622,-11.2628559221168,-5.81606494338816,-299.988937040315
738532.50830816058441996574,-11.2720877712333,-5.93607898190252,-299.998168889431
738532.50830825103912502527,-11.2628559221168,-5.83452864162114,-299.979705191198
738532.50830834149383008480,-11.2813196203497,-5.90838343455306,-299.998168889431
738532.50830843194853514433,-11.3090151676992,-5.84376049073763,-299.998168889431
738532.50830852240324020386,-11.2351603747673,-5.89915158543657,-300.016632587664
738532.50830861274152994156,-11.022827845088,-5.8714560380871,-300.025864436781
738532.50830870319623500109,-10.625858333079,-5.76067384868923,-299.961241492965
738532.50830879365094006062,-10.210425122837,-5.70528275399029,-299.942777794732
738532.50830888410564512014,-10.5150761436811,-5.82529679250465,-299.933545945616
738532.50830897456035017967,-10.8751182592242,-6.15764336069826,-300.090487380596
738532.50830906501505523920,-11.1336100344859,-6.07455671864986,-299.952009643849
738532.50830915546976029873,-11.2166966765343,-5.98223822748497,-299.9243140965
738532.50830924580805003643,-11.2166966765343,-5.86222418897061,-300.035096285897
738532.50830933626275509596,-11.2074648274178,-5.92684713278603,-300.072023682363
738532.50830942671746015549,-11.2259285256508,-5.81606494338816,-300.05355998413
738532.50830951717216521502,-11.2259285256508,-5.93607898190252,-300.05355998413
738532.50830960762687027454,-11.2351603747673,-5.81606494338816,-300.025864436781
738532.50830969808157533407,-11.2259285256508,-5.91761528366955,-300.05355998413
738532.50830978853628039360,-11.2166966765343,-5.81606494338816,-299.979705191198
738532.50830987887457013130,-11.2259285256508,-5.84376049073763,-300.016632587664
738532.50830996932927519083,-11.2074648274178,-5.83452864162114,-300.035096285897
738532.50831005978398025036,-11.2166966765343,-5.81606494338816,-300.016632587664
738532.50831015023868530989,-11.2074648274178,-5.84376049073763,-300.035096285897
738532.50831024069339036942,-11.2166966765343,-5.81606494338816,-300.044328135014
738532.50831033114809542894,-11.2074648274178,-5.85299233985412,-300.035096285897
738532.50831042160280048847,-11.1982329783013,-5.76067384868923,-299.970473342082
738532.50831051194109022617,-11.1982329783013,-5.84376049073763,-300.044328135014
738532.50831060239579528570,-11.1890011291849,-5.74221015045625,-299.998168889431
738532.50831069285050034523,-11.1797692800684,-5.84376049073763,-299.979705191198
738532.50831078330520540476,-11.1705374309519,-5.73297830133976,-299.961241492965
738532.50831087375991046429,-11.1705374309519,-5.84376049073763,-299.988937040315
738532.50831096421461552382,-11.1520737327189,-5.69605090487381,-299.961241492965
738532.50831105466932058334,-11.1428418836024,-5.82529679250465,-299.979705191198
738532.50831114500761032104,-11.1151463362529,-5.67758720664083,-299.961241492965
738532.50831123546231538057,-11.1151463362529,-5.81606494338816,-299.952009643849
738532.50831132591702044010,-11.0874507889035,-5.64989165929136,-299.970473342082
738532.50831141637172549963,-11.078218939787,-5.76067384868923,-299.942777794732
738532.50831150682643055916,-11.0320596942045,-5.60373241370891,-299.952009643849
738532.50831159728113561869,-11.022827845088,-5.62219611194189,-299.9243140965
738532.50831168773584067822,-11.0043641468551,-5.68681905575732,-299.933545945616
738532.50831177807413041592,-10.9859004486221,-5.57603686635945,-299.9243140965
738532.50831186852883547544,-10.9582049012726,-5.66835535752434,-299.979705191198
738532.50831195898354053497,-10.9489730521561,-5.54834131900998,-299.933545945616
738532.50831204943824559450,-10.9489730521561,-5.67758720664083,-299.952009643849
738532.50831213989295065403,-10.9859004486221,-5.58526871547594,-299.952009643849
738532.50831223034765571356,-11.0320596942045,-5.76067384868923,-300.025864436781
738532.50831232080236077309,-11.0689870906705,-5.67758720664083,-299.998168889431
738532.50831241114065051079,-11.1151463362529,-5.85299233985412,-300.044328135014
738532.50831250159535557032,-11.1520737327189,-5.75144199957274,-299.952009643849
738532.50831259205006062984,-11.1890011291849,-5.91761528366955,-299.915082247383
738532.50831268250476568937,-11.1797692800684,-5.79760124515519,-299.942777794732
738532.50831277295947074890,-11.2074648274178,-5.93607898190252,-300.072023682363
738532.50831286341417580843,-11.1982329783013,-5.82529679250465,-299.979705191198
738532.50831295386888086796,-11.2166966765343,-5.92684713278603,-300.044328135014
738532.50831304420717060566,-11.2074648274178,-5.81606494338816,-300.044328135014
738532.50831313466187566519,-11.2074648274178,-5.89915158543657,-299.952009643849
738532.50831322511658072472,-11.1890011291849,-5.83452864162114,-300.016632587664
738532.50831331557128578424,-11.1982329783013,-5.88991973632008,-300.035096285897
738532.50831340602599084377,-11.1890011291849,-5.85299233985412,-300.072023682363
738532.50831349648069590330,-11.1797692800684,-5.79760124515519,-299.970473342082
738532.50831358693540096283,-11.1982329783013,-5.9545426801355,-300.044328135014
738532.50831367727369070053,-11.1890011291849,-5.80683309427168,-300.025864436781
738532.50831376772839576006,-11.1982329783013,-5.93607898190252,-300.05355998413
738532.50831385818310081959,-11.1890011291849,-5.80683309427168,-299.952009643849
738532.50831394863780587912,-11.2074648274178,-5.93607898190252,-299.979705191198
738532.50831403909251093864,-11.1982329783013,-5.82529679250465,-299.970473342082
738532.50831412954721599817,-11.1982329783013,-5.92684713278603,-299.933545945616
738532.50831422000192105770,-11.1890011291849,-5.82529679250465,-299.952009643849
738532.50831431034021079540,-11.2074648274178,-5.90838343455306,-300.007400738548
738532.50831440079491585493,-11.1890011291849,-5.85299233985412,-299.952009643849
738532.50831449124962091446,-11.2074648274178,-5.89915158543657,-300.025864436781
738532.50831458170432597399,-11.1890011291849,-5.86222418897061,-300.025864436781
738532.50831467215903103352,-11.2074648274178,-5.88991973632008,-300.016632587664
738532.50831476261373609304,-11.1982329783013,-5.88991973632008,-300.016632587664
738532.50831485306844115257,-11.2074648274178,-5.86222418897061,-300.062791833247
738532.50831494340673089027,-11.1982329783013,-5.88991973632008,-300.044328135014
738532.50831503386143594980,-11.2074648274178,-5.85299233985412,-299.988937040315
738532.50831512431614100933,-11.2074648274178,-5.91761528366955,-300.035096285897
738532.50831521477084606886,-11.2074648274178,-5.83452864162114,-300.072023682363
738532.50831530522555112839,-11.2166966765343,-5.93607898190252,-300.016632587664
738532.50831539568025618792,-11.2074648274178,-5.82529679250465,-300.025864436781
738532.50831548613496124744,-11.2166966765343,-5.90838343455306,-300.062791833247
738532.50831557647325098515,-11.1982329783013,-5.84376049073763,-300.044328135014
738532.50831566692795604467,-11.2166966765343,-5.89915158543657,-300.016632587664
738532.50831575738266110420,-11.2074648274178,-5.8714560380871,-300.025864436781
738532.50831584783736616373,-11.2074648274178,-5.88991973632008,-300.035096285897
738532.50831593829207122326,-11.2074648274178,-5.88068788720359,-299.979705191198
738532.50831602874677628279,-11.2259285256508,-5.8714560380871,-300.044328135014
738532.50831611920148134232,-11.2074648274178,-5.90838343455306,-299.952009643849
738532.50831620953977108002,-11.2166966765343,-5.88068788720359,-299.89661854915
738532.50831629999447613955,-11.2166966765343,-5.92684713278603,-300.035096285897
738532.50831639044918119907,-11.2166966765343,-5.84376049073763,-300.016632587664
738532.50831648090388625860,-11.2074648274178,-5.92684713278603,-300.08125553148
738532.50831657135859131813,-11.1797692800684,-5.82529679250465,-300.044328135014
738532.50831666181329637766,-11.1613055818354,-5.90838343455306,-299.933545945616
738532.50831675226800143719,-11.1520737327189,-5.76990569780572,-300.007400738548
738532.50831684260629117489,-11.1151463362529,-5.88991973632008,-300.062791833247
738532.50831693306099623442,-11.09668263802,-5.74221015045625,-299.998168889431
738532.50831702351570129395,-11.09668263802,-5.8714560380871,-300.044328135014
738532.50831711397040635347,-11.1243781853694,-5.76067384868923,-299.970473342082
738532.50831720442511141300,-11.1705374309519,-5.91761528366955,-299.952009643849
738532.50831729487981647253,-11.1705374309519,-5.8714560380871,-299.915082247383
738532.50831738533452153206,-11.1890011291849,-5.84376049073763,-299.942777794732
738532.50831747567281126976,-11.1982329783013,-5.90838343455306,-299.970473342082
738532.50831756612751632929,-11.2166966765343,-5.84376049073763,-299.970473342082
738532.50831765658222138882,-11.2351603747673,-5.93607898190252,-299.933545945616
738532.50831774703692644835,-11.2351603747673,-5.84376049073763,-300.016632587664
738532.50831783749163150787,-11.2351603747673,-5.94531083101901,-300.035096285897
738532.50831792794633656740,-11.2351603747673,-5.82529679250465,-300.007400738548
738532.50831801840104162693,-11.2443922238838,-5.97300637836848,-299.998168889431
738532.50831810873933136463,-11.2443922238838,-5.84376049073763,-300.007400738548
738532.50831819919403642416,-11.2536240730003,-5.96377452925199,-300.025864436781
738532.50831828964874148369,-11.2351603747673,-5.80683309427168,-299.970473342082
738532.50831838010344654322,-11.2997833185827,-5.96377452925199,-300.025864436781
738532.50831847055815160275,-11.2351603747673,-5.82529679250465,-299.998168889431
738532.50831856101285666227,-11.059755241554,-5.94531083101901,-299.998168889431
738532.50831865146756172180,-10.644322031312,-5.70528275399029,-299.887386700034
738532.50831874180585145950,-10.2565843684194,-5.77913754692221,-299.9243140965
738532.50831883226055651903,-10.5058442945647,-5.76990569780572,-299.970473342082
738532.50831892271526157856,-10.8751182592242,-6.19457075716422,-300.025864436781
738532.50831901316996663809,-11.0874507889035,-6.12071596423231,-300.062791833247
738532.50831910362467169762,-11.1797692800684,-6.01916562395093,-300.044328135014
738532.50831919407937675714,-11.2074648274178,-6.01916562395093,-300.035096285897
738532.50831928453408181667,-11.1982329783013,-5.82529679250465,-299.988937040315
738532.50831937487237155437,-11.2166966765343,-5.9545426801355,-300.016632587664
738532.50831946532707661390,-11.2166966765343,-5.79760124515519,-299.961241492965
738532.50831955578178167343,-11.2259285256508,-5.92684713278603,-300.016632587664
738532.50831964623648673296,-11.2074648274178,-5.77913754692221,-299.915082247383
738532.50831973669119179249,-11.2166966765343,-5.89915158543657,-299.878154850917
738532.50831982714589685202,-11.1982329783013,-5.76990569780572,-299.952009643849
738532.50831991760060191154,-11.2074648274178,-5.88068788720359,-299.998168889431
738532.50832000793889164925,-11.1982329783013,-5.76067384868923,-299.979705191198
738532.50832009839359670877,-11.1982329783013,-5.8714560380871,-299.970473342082
738532.50832018884830176830,-11.1797692800684,-5.77913754692221,-300.025864436781
738532.50832027930300682783,-11.1890011291849,-5.85299233985412,-299.961241492965
738532.50832036975771188736,-11.1613055818354,-5.7883693960387,-299.970473342082
738532.50832046021241694689,-11.1705374309519,-5.83452864162114,-299.970473342082
738532.50832055066712200642,-11.1613055818354,-5.79760124515519,-300.016632587664
738532.50832064100541174412,-11.1613055818354,-5.79760124515519,-300.05355998413
738532.50832073146011680365,-11.1428418836024,-5.7883693960387,-299.998168889431
738532.50832082191482186317,-11.1428418836024,-5.76990569780572,-300.044328135014
738532.50832091236952692270,-11.1243781853694,-5.7883693960387,-300.062791833247
738532.50832100282423198223,-11.1059144871364,-5.68681905575732,-299.933545945616
738532.50832109327893704176,-11.09668263802,-5.7883693960387,-299.970473342082
738532.50832118373364210129,-11.078218939787,-5.66835535752434,-299.970473342082
738532.50832127407193183899,-11.0689870906705,-5.76990569780572,-299.970473342082
738532.50832136452663689852,-11.0320596942045,-5.64989165929136,-299.878154850917
738532.50832145498134195805,-11.022827845088,-5.71451460310678,-299.905850398267
738532.50832154543604701757,-10.9951322977386,-5.62219611194189,-299.887386700034
738532.50832163589075207710,-10.9766685995056,-5.64989165929136,-299.952009643849
738532.50832172634545713663,-10.9397412030396,-5.58526871547594,-299.942777794732
738532.50832181680016219616,-10.9305093539232,-5.56680501724296,-299.998168889431
738532.50832190713845193386,-10.9028138065737,-5.57603686635945,-299.905850398267
738532.50832199759315699339,-10.9212775048067,-5.56680501724296,-299.942777794732
738532.50832208804786205292,-10.9489730521561,-5.62219611194189,-299.952009643849
738532.50832217850256711245,-10.9951322977386,-5.63142796105838,-299.961241492965
738532.50832226895727217197,-11.041291543321,-5.73297830133976,-299.952009643849
738532.50832235941197723150,-11.078218939787,-5.66835535752434,-299.868923001801
738532.50832244986668229103,-11.1059144871364,-5.7883693960387,-299.933545945616
738532.50832254020497202873,-11.1336100344859,-5.74221015045625,-299.933545945616
738532.50832263065967708826,-11.1520737327189,-5.88991973632008,-299.933545945616
738532.50832272111438214779,-11.1520737327189,-5.76990569780572,-299.942777794732
738532.50832281156908720732,-11.1705374309519,-5.89915158543657,-299.998168889431
738532.50832290202379226685,-11.1613055818354,-5.81606494338816,-299.988937040315
738532.50832299247849732637,-11.1705374309519,-5.84376049073763,-299.988937040315
738532.50832308293320238590,-11.1613055818354,-5.84376049073763,-299.998168889431
738532.50832317327149212360,-11.1705374309519,-5.84376049073763,-299.942777794732
738532.50832326372619718313,-11.1520737327189,-5.86222418897061,-299.878154850917
738532.50832335418090224266,-11.1613055818354,-5.81606494338816,-299.998168889431
738532.50832344463560730219,-11.1705374309519,-5.88068788720359,-299.998168889431
738532.50832353509031236172,-11.1613055818354,-5.81606494338816,-299.988937040315
738532.50832362554501742125,-11.1613055818354,-5.88991973632008,-300.007400738548
738532.50832371599972248077,-11.1613055818354,-5.77913754692221,-299.998168889431
738532.50832380633801221848,-11.1520737327189,-5.88991973632008,-299.970473342082
738532.50832389679271727800,-11.1520737327189,-5.7883693960387,-299.970473342082
738532.50832398724742233753,-11.1613055818354,-5.89915158543657,-299.961241492965
738532.50832407770212739706,-11.1520737327189,-5.7883693960387,-299.952009643849
738532.50832416815683245659,-11.1613055818354,-5.91761528366955,-299.979705191198
738532.50832425861153751612,-11.1613055818354,-5.77913754692221,-299.970473342082
738532.50832434906624257565,-11.1705374309519,-5.91761528366955,-299.979705191198
738532.50832443940453231335,-11.1520737327189,-5.79760124515519,-300.007400738548
738532.50832452985923737288,-11.1705374309519,-5.93607898190252,-299.988937040315
738532.50832462031394243240,-11.1613055818354,-5.80683309427168,-299.961241492965
738532.50832471076864749193,-11.1705374309519,-5.82529679250465,-299.961241492965
738532.50832480122335255146,-11.1705374309519,-5.89915158543657,-299.998168889431
738532.50832489167805761099,-11.1705374309519,-5.81606494338816,-299.970473342082
738532.50832498213276267052,-11.1705374309519,-5.91761528366955,-300.072023682363
738532.50832507247105240822,-11.1613055818354,-5.79760124515519,-299.979705191198
738532.50832516292575746775,-11.1705374309519,-5.91761528366955,-299.952009643849
738532.50832525338046252728,-11.1613055818354,-5.79760124515519,-299.952009643849
738532.50832534383516758680,-11.1797692800684,-5.92684713278603,-299.961241492965
738532.50832543428987264633,-11.1613055818354,-5.80683309427168,-299.970473342082
738532.50832552474457770586,-11.1890011291849,-5.93607898190252,-299.998168889431
738532.50832561519928276539,-11.1705374309519,-5.79760124515519,-299.905850398267
738532.50832570553757250309,-11.1890011291849,-5.93607898190252,-299.979705191198
738532.50832579599227756262,-11.1705374309519,-5.81606494338816,-299.9243140965
738532.50832588644698262215,-11.1890011291849,-5.92684713278603,-299.970473342082
738532.50832597690168768167,-11.1797692800684,-5.80683309427168,-300.016632587664
738532.50832606735639274120,-11.1890011291849,-5.89915158543657,-300.016632587664
738532.50832615781109780073,-11.1613055818354,-5.81606494338816,-299.998168889431
738532.50832624826580286026,-11.1428418836024,-5.8714560380871,-299.988937040315
738532.50832633860409259796,-11.1151463362529,-5.80683309427168,-300.016632587664
738532.50832642905879765749,-11.1243781853694,-5.84376049073763,-300.044328135014
738532.50832651951350271702,-11.078218939787,-5.77913754692221,-299.998168889431
738532.50832660996820777655,-11.0689870906705,-5.71451460310678,-300.016632587664
738532.50832670042291283607,-11.0689870906705,-5.85299233985412,-299.988937040315
738532.50832679087761789560,-11.078218939787,-5.74221015045625,-299.850459303568
738532.50832688133232295513,-11.1336100344859,-5.89915158543657,-299.942777794732
738532.50832697167061269283,-11.1520737327189,-5.7883693960387,-300.016632587664
738532.50832706212531775236,-11.1705374309519,-5.92684713278603,-300.05355998413
738532.50832715258002281189,-11.1613055818354,-5.80683309427168,-299.970473342082
738532.50832724303472787142,-11.1890011291849,-5.90838343455306,-300.016632587664
738532.50832733348943293095,-11.1982329783013,-5.84376049073763,-300.025864436781
738532.50832742394413799047,-11.2166966765343,-5.91761528366955,-299.979705191198
738532.50832751439884305000,-11.2166966765343,-5.85299233985412,-300.035096285897
738532.50832760473713278770,-11.2259285256508,-5.89915158543657,-299.988937040315
738532.50832769519183784723,-11.2166966765343,-5.8714560380871,-299.952009643849
738532.50832778564654290676,-11.2259285256508,-5.88991973632008,-299.942777794732
738532.50832787610124796629,-11.2074648274178,-5.90838343455306,-299.961241492965
738532.50832796655595302582,-11.2443922238838,-5.8714560380871,-299.961241492965
738532.50832805701065808535,-11.2720877712333,-5.90838343455306,-299.970473342082
738532.50832814746536314487,-11.1797692800684,-5.84376049073763,-300.025864436781
738532.50832823780365288258,-10.9120456556902,-5.86222418897061,-299.942777794732
738532.50832832825835794210,-10.4781487472152,-5.67758720664083,-299.868923001801
738532.50832841871306300163,-10.173497726371,-5.7883693960387,-299.859691152684
738532.50832850916776806116,-10.3765984069338,-5.74221015045625,-299.942777794732
738532.50832859962247312069,-10.8289590136418,-6.13917966246528,-300.035096285897
738532.50832869007717818022,-11.059755241554,-6.16687520981475,-299.988937040315
738532.50832878041546791792,-11.1982329783013,-6.06532486953337,-300.072023682363
738532.50832887087017297745,-11.1797692800684,-5.94531083101901,-300.007400738548
738532.50832896132487803698,-11.1890011291849,-5.90838343455306,-299.933545945616
738532.50832905177958309650,-11.1797692800684,-5.88991973632008,-300.025864436781
738532.50832914223428815603,-11.1982329783013,-5.8714560380871,-300.025864436781
738532.50832923268899321556,-11.1890011291849,-5.90838343455306,-300.035096285897
738532.50832932314369827509,-11.1890011291849,-5.85299233985412,-299.988937040315
738532.50832941348198801279,-11.1797692800684,-5.88991973632008,-299.89661854915
738532.50832950393669307232,-11.1797692800684,-5.81606494338816,-299.988937040315
738532.50832959439139813185,-11.1797692800684,-5.88991973632008,-300.025864436781
738532.50832968484610319138,-11.1797692800684,-5.7883693960387,-299.998168889431
738532.50832977530080825090,-11.1705374309519,-5.88991973632008,-299.988937040315
738532.50832986575551331043,-11.1613055818354,-5.77913754692221,-299.952009643849
738532.50832995621021836996,-11.1613055818354,-5.89915158543657,-299.998168889431
738532.50833004654850810766,-11.1520737327189,-5.76067384868923,-299.961241492965
738532.50833013700321316719,-11.1520737327189,-5.88991973632008,-300.062791833247
738532.50833022745791822672,-11.1336100344859,-5.75144199957274,-299.831995605335
738532.50833031791262328625,-11.1428418836024,-5.8714560380871,-299.878154850917
738532.50833040836732834578,-11.1243781853694,-5.81606494338816,-299.979705191198
738532.50833049882203340530,-11.1243781853694,-5.77913754692221,-300.016632587664
738532.50833058927673846483,-11.1059144871364,-5.81606494338816,-300.016632587664
738532.50833067961502820253,-11.09668263802,-5.73297830133976,-299.979705191198
738532.50833077006973326206,-11.078218939787,-5.83452864162114,-300.025864436781
738532.50833086052443832159,-11.059755241554,-5.69605090487381,-300.016632587664
738532.50833095097914338112,-11.0505233924375,-5.77913754692221,-299.988937040315
738532.50833104143384844065,-11.022827845088,-5.64989165929136,-299.961241492965
738532.50833113188855350018,-11.0043641468551,-5.76067384868923,-299.998168889431
738532.50833122234325855970,-10.9766685995056,-5.6129642628254,-299.905850398267
738532.50833131268154829741,-10.9582049012726,-5.71451460310678,-299.887386700034
738532.50833140313625335693,-10.9305093539232,-5.56680501724296,-299.878154850917
738532.50833149359095841646,-10.9120456556902,-5.68681905575732,-299.905850398267
738532.50833158404566347599,-10.8935819574572,-5.53910946989349,-299.850459303568
738532.50833167450036853552,-10.9212775048067,-5.69605090487381,-299.961241492965
738532.50833176495507359505,-10.9305093539232,-5.58526871547594,-299.998168889431
738532.50833185540977865458,-10.9951322977386,-5.74221015045625,-300.007400738548
738532.50833194574806839228,-11.0689870906705,-5.72374645222327,-299.979705191198
738532.50833203620277345181,-11.0874507889035,-5.84376049073763,-300.035096285897
738532.50833212665747851133,-11.0689870906705,-5.74221015045625,-300.016632587664
738532.50833221711218357086,-11.0874507889035,-5.73297830133976,-299.998168889431
738532.50833230756688863039,-11.1705374309519,-5.94531083101901,-300.025864436781
738532.50833239802159368992,-11.2074648274178,-5.85299233985412,-300.025864436781
738532.50833248847629874945,-11.1982329783013,-5.98223822748497,-300.072023682363
738532.50833257881458848715,-11.1890011291849,-5.84376049073763,-299.89661854915
738532.50833266926929354668,-11.1890011291849,-5.98223822748497,-300.044328135014
738532.50833275972399860620,-11.1797692800684,-5.83452864162114,-299.979705191198
738532.50833285017870366573,-11.1890011291849,-5.97300637836848,-299.979705191198
738532.50833294063340872526,-11.1705374309519,-5.83452864162114,-299.979705191198
738532.50833303108811378479,-11.1613055818354,-5.92684713278603,-300.025864436781
738532.50833312154281884432,-11.1520737327189,-5.82529679250465,-299.979705191198
738532.50833321188110858202,-11.1520737327189,-5.89915158543657,-299.979705191198
738532.50833330233581364155,-11.09668263802,-5.77913754692221,-300.007400738548
738532.50833339279051870108,-11.1520737327189,-5.90838343455306,-299.979705191198
738532.50833348324522376060,-11.1705374309519,-5.86222418897061,-300.007400738548
738532.50833357369992882013,-11.1705374309519,-5.88991973632008,-299.961241492965
738532.50833366415463387966,-11.1336100344859,-5.84376049073763,-299.979705191198
738532.50833375460933893919,-11.1613055818354,-5.88068788720359,-299.831995605335
738532.50833384494762867689,-11.1336100344859,-5.8714560380871,-299.9243140965
738532.50833393540233373642,-11.1151463362529,-5.81606494338816,-300.016632587664
738532.50833402585703879595,-11.1705374309519,-5.90838343455306,-300.025864436781
738532.50833411631174385548,-11.2259285256508,-5.88068788720359,-300.05355998413
738532.50833420676644891500,-11.2536240730003,-6.04686117130039,-300.007400738548
738532.50833429722115397453,-11.2351603747673,-5.94531083101901,-299.988937040315
738532.50833438767585903406,-11.2351603747673,-6.01916562395093,-300.007400738548
738532.50833447801414877176,-11.1059144871364,-5.7883693960387,-299.979705191198
738532.50833456846885383129,-11.1797692800684,-5.94531083101901,-300.025864436781
738532.50833465892355889082,-11.2074648274178,-5.90838343455306,-300.062791833247
738532.50833474937826395035,-11.078218939787,-5.81606494338816,-299.988937040315
738532.50833483983296900988,-11.1890011291849,-5.90838343455306,-300.035096285897
738532.50833493028767406940,-11.1520737327189,-5.89915158543657,-300.062791833247
738532.50833502074237912893,-11.2905514694662,-6.01916562395093,-300.035096285897
738532.50833511108066886663,-11.2628559221168,-5.99147007660146,-300.062791833247
738532.50833520153537392616,-11.2905514694662,-6.05609302041688,-300.044328135014
738532.50833529199007898569,-11.1982329783013,-5.91761528366955,-300.025864436781
738532.50833538244478404522,-11.1982329783013,-5.98223822748497,-300.025864436781
738532.50833547289948910475,-11.1705374309519,-5.88991973632008,-300.062791833247
738532.50833556335419416428,-11.2166966765343,-6.02839747306742,-300.072023682363
738532.50833565380889922380,-11.0505233924375,-5.75144199957274,-300.025864436781
738532.50833574414718896151,-11.078218939787,-5.88068788720359,-300.035096285897
738532.50833583460189402103,-11.2997833185827,-5.99147007660146,-300.035096285897
738532.50833592505659908056,-11.09668263802,-5.90838343455306,-300.072023682363
738532.50833601551130414009,-11.0043641468551,-5.75144199957274,-300.044328135014
738532.50833610596600919962,-11.1613055818354,-5.91761528366955,-299.988937040315
738532.50833619642071425915,-11.1151463362529,-5.89915158543657,-299.952009643849
738532.50833628687541931868,-11.0874507889035,-5.86222418897061,-299.952009643849
738532.50833637721370905638,-11.0505233924375,-5.8714560380871,-299.942777794732
738532.50833646766841411591,-11.078218939787,-5.84376049073763,-299.942777794732
738532.50833655812311917543,-11.078218939787,-5.89915158543657,-300.05355998413
738532.50833664857782423496,-11.041291543321,-5.76067384868923,-300.035096285897
738532.50833673903252929449,-11.1890011291849,-5.97300637836848,-300.072023682363
738532.50833682948723435402,-11.09668263802,-5.79760124515519,-300.044328135014
738532.50833691994193941355,-11.1428418836024,-5.94531083101901,-300.025864436781
738532.50833701028022915125,-11.041291543321,-5.70528275399029,-299.9243140965
738532.50833710073493421078,-11.2443922238838,-6.04686117130039,-299.979705191198
738532.50833719118963927031,-11.3182470168157,-5.97300637836848,-299.905850398267
738532.50833728164434432983,-11.1059144871364,-5.88991973632008,-299.822763756218
738532.50833737209904938936,-11.2443922238838,-5.89915158543657,-299.905850398267
738532.50833746255375444889,-11.1797692800684,-5.96377452925199,-299.970473342082
738532.50833755300845950842,-11.1890011291849,-5.85299233985412,-299.942777794732
738532.50833764334674924612,-11.09668263802,-5.8714560380871,-300.025864436781
738532.50833773380145430565,-11.2536240730003,-5.86222418897061,-300.016632587664
738532.50833782425615936518,-11.1705374309519,-5.90838343455306,-300.007400738548
738532.50833791471086442471,-11.1428418836024,-5.94531083101901,-299.988937040315
738532.50833800516556948423,-10.9305093539232,-5.85299233985412,-299.961241492965
738532.50833809562027454376,-10.4504531998657,-5.7883693960387,-299.89661854915
738532.50833818607497960329,-10.1181066316721,-5.67758720664083,-299.887386700034
738532.50833827641326934099,-10.5796990874966,-5.98223822748497,-299.979705191198
738532.50833836686797440052,-10.8289590136418,-6.06532486953337,-300.016632587664
738532.50833845732267946005,-11.09668263802,-6.14841151158177,-300.05355998413
738532.50833854777738451958,-11.1059144871364,-5.85299233985412,-299.961241492965
738532.50833863823208957911,-11.09668263802,-5.92684713278603,-299.970473342082
738532.50833872868679463863,-11.1428418836024,-5.83452864162114,-300.007400738548
738532.50833881914149969816,-11.1797692800684,-5.94531083101901,-300.072023682363
738532.50833890947978943586,-11.078218939787,-5.76067384868923,-299.979705191198
738532.50833899993449449539,-11.2443922238838,-5.98223822748497,-300.016632587664
738532.50833909038919955492,-11.1797692800684,-5.85299233985412,-300.035096285897
738532.50833918084390461445,-11.1151463362529,-5.84376049073763,-300.05355998413
738532.50833927129860967398,-11.1890011291849,-5.88991973632008,-299.979705191198
738532.50833936175331473351,-11.1797692800684,-5.88991973632008,-300.025864436781
738532.50833945220801979303,-11.0689870906705,-5.76067384868923,-300.007400738548
738532.50833954254630953074,-11.1336100344859,-5.84376049073763,-299.961241492965
738532.50833963300101459026,-11.1336100344859,-5.85299233985412,-300.035096285897
738532.50833972345571964979,-11.1982329783013,-5.84376049073763,-300.016632587664
738532.50833981391042470932,-11.1982329783013,-5.96377452925199,-300.035096285897
738532.50833990436512976885,-11.1243781853694,-5.76990569780572,-299.905850398267
738532.50833999481983482838,-11.1243781853694,-5.88991973632008,-300.016632587664
738532.50834008527453988791,-11.1243781853694,-5.76990569780572,-299.988937040315
738532.50834017561282962561,-11.1336100344859,-5.88991973632008,-299.979705191198
738532.50834026606753468513,-11.041291543321,-5.69605090487381,-300.025864436781
738532.50834035652223974466,-11.0689870906705,-5.80683309427168,-300.035096285897
738532.50834044697694480419,-10.9489730521561,-5.58526871547594,-300.016632587664
738532.50834053743164986372,-11.0874507889035,-5.79760124515519,-299.979705191198
738532.50834062788635492325,-11.1059144871364,-5.77913754692221,-299.988937040315
738532.50834071834105998278,-11.0505233924375,-5.75144199957274,-299.988937040315
738532.50834080867934972048,-11.0043641468551,-5.68681905575732,-299.804300057985
738532.50834089913405478001,-11.022827845088,-5.70528275399029,-299.9243140965
738532.50834098958875983953,-11.0043641468551,-5.69605090487381,-299.998168889431
738532.50834108004346489906,-10.9582049012726,-5.6129642628254,-299.9243140965
738532.50834117049816995859,-10.9120456556902,-5.63142796105838,-299.961241492965
738532.50834126095287501812,-10.7827997680593,-5.43755912961211,-299.89661854915
738532.50834135140758007765,-10.9212775048067,-5.64989165929136,-299.942777794732
738532.50834144174586981535,-10.9582049012726,-5.59450056459243,-299.915082247383
738532.50834153220057487488,-10.9674367503891,-5.72374645222327,-299.933545945616
738532.50834162265527993441,-10.9859004486221,-5.64065981017487,-299.9243140965
738532.50834171310998499393,-11.0043641468551,-5.73297830133976,-299.933545945616
738532.50834180356469005346,-11.0874507889035,-5.76990569780572,-299.942777794732
738532.50834189401939511299,-11.1151463362529,-5.84376049073763,-299.979705191198
738532.50834198447410017252,-11.1059144871364,-5.82529679250465,-299.988937040315
738532.50834207481238991022,-11.1890011291849,-5.91761528366955,-299.988937040315
738532.50834216526709496975,-11.1520737327189,-5.89915158543657,-299.998168889431
738532.50834225572180002928,-11.1613055818354,-5.86222418897061,-299.970473342082
738532.50834234617650508881,-11.1151463362529,-5.86222418897061,-300.025864436781
738532.50834243663121014833,-11.1243781853694,-5.81606494338816,-300.007400738548
738532.50834252708591520786,-11.2074648274178,-5.97300637836848,-300.035096285897
738532.50834261754062026739,-11.2074648274178,-5.88068788720359,-300.025864436781
738532.50834270787891000509,-11.1336100344859,-5.91761528366955,-299.961241492965
738532.50834279833361506462,-11.1059144871364,-5.77913754692221,-299.952009643849
738532.50834288878832012415,-11.1243781853694,-5.92684713278603,-299.961241492965
738532.50834297924302518368,-11.2166966765343,-5.89915158543657,-300.025864436781
738532.50834306969773024321,-11.2074648274178,-6.00070192571795,-300.035096285897
738532.50834316015243530273,-11.1520737327189,-5.83452864162114,-299.998168889431
738532.50834325060714036226,-11.1336100344859,-5.96377452925199,-300.016632587664
738532.50834334094543009996,-11.1520737327189,-5.83452864162114,-300.05355998413
738532.50834343140013515949,-11.1613055818354,-5.98223822748497,-300.035096285897
738532.50834352185484021902,-11.1520737327189,-5.91761528366955,-299.979705191198
738532.50834361230954527855,-11.1059144871364,-5.81606494338816,-300.016632587664
738532.50834370276425033808,-11.1797692800684,-5.9545426801355,-300.035096285897
738532.50834379321895539761,-11.1705374309519,-5.86222418897061,-299.998168889431
738532.50834388367366045713,-11.1520737327189,-5.93607898190252,-300.016632587664
738532.50834397401195019484,-11.2166966765343,-5.88991973632008,-300.025864436781
738532.50834406446665525436,-11.1982329783013,-5.98223822748497,-300.05355998413
738532.50834415492136031389,-11.1428418836024,-5.80683309427168,-300.044328135014
738532.50834424537606537342,-11.1982329783013,-6.00070192571795,-300.016632587664
738532.50834433583077043295,-11.1797692800684,-5.82529679250465,-299.915082247383
738532.50834442628547549248,-11.1705374309519,-5.96377452925199,-299.952009643849
738532.50834451674018055201,-11.2074648274178,-5.8714560380871,-299.998168889431
738532.50834460707847028971,-11.1243781853694,-5.91761528366955,-300.062791833247
738532.50834469753317534924,-11.0874507889035,-5.74221015045625,-300.016632587664
738532.50834478798788040876,-11.2259285256508,-6.01916562395093,-300.044328135014
738532.50834487844258546829,-11.2536240730003,-5.93607898190252,-300.007400738548
738532.50834496889729052782,-11.2259285256508,-6.01916562395093,-300.072023682363
738532.50834505935199558735,-11.1705374309519,-5.8714560380871,-300.007400738548
738532.50834514980670064688,-11.2351603747673,-6.01916562395093,-299.952009643849
738532.50834524014499038458,-11.2259285256508,-5.93607898190252,-299.961241492965
738532.50834533059969544411,-11.1982329783013,-5.9545426801355,-299.915082247383
738532.50834542105440050364,-11.1705374309519,-5.98223822748497,-299.9243140965
738532.50834551150910556316,-11.1428418836024,-5.80683309427168,-299.905850398267
738532.50834560196381062269,-11.1428418836024,-5.92684713278603,-299.952009643849
738532.50834569241851568222,-11.1428418836024,-5.79760124515519,-299.961241492965
738532.50834578287322074175,-11.1890011291849,-5.99147007660146,-300.025864436781
738532.50834587321151047945,-11.0320596942045,-5.69605090487381,-299.979705191198
738532.50834596366621553898,-11.2813196203497,-6.05609302041688,-299.961241492965
738532.50834605412092059851,-11.1520737327189,-5.81606494338816,-299.952009643849
738532.50834614457562565804,-11.1336100344859,-5.92684713278603,-299.988937040315
738532.50834623503033071756,-11.0874507889035,-5.79760124515519,-299.952009643849
738532.50834632548503577709,-11.1890011291849,-5.98223822748497,-299.998168889431
738532.50834641593974083662,-11.1705374309519,-5.88068788720359,-299.979705191198
738532.50834650627803057432,-11.1613055818354,-5.90838343455306,-300.05355998413
738532.50834659673273563385,-11.1705374309519,-5.90838343455306,-300.035096285897
738532.50834668718744069338,-11.1705374309519,-5.96377452925199,-299.961241492965
738532.50834677764214575291,-11.2074648274178,-5.93607898190252,-300.044328135014
738532.50834686809685081244,-11.1428418836024,-5.88991973632008,-300.007400738548
738532.50834695855155587196,-11.2351603747673,-6.01916562395093,-299.988937040315
738532.50834704900626093149,-11.2443922238838,-5.98223822748497,-299.970473342082
738532.50834713934455066919,-11.2813196203497,-6.05609302041688,-300.062791833247
738532.50834722979925572872,-11.2536240730003,-5.92684713278603,-300.035096285897
738532.50834732025396078825,-11.2351603747673,-6.02839747306742,-300.072023682363
738532.50834741070866584778,-11.2259285256508,-5.90838343455306,-299.988937040315
738532.50834750116337090731,-11.3090151676992,-6.04686117130039,-300.035096285897
738532.50834759161807596684,-11.2997833185827,-5.9545426801355,-300.035096285897
738532.50834768207278102636,-11.09668263802,-5.92684713278603,-299.961241492965
738532.50834777241107076406,-10.8751182592242,-5.90838343455306,-299.998168889431
738532.50834786286577582359,-10.5520035401471,-5.89915158543657,-299.887386700034
738532.50834795332048088312,-10.247352519303,-5.84376049073763,-299.795068208869
738532.50834804377518594265,-10.6535538804285,-5.98223822748497,-300.016632587664
738532.50834813422989100218,-10.9674367503891,-6.26842555009613,-300.099719229713
738532.50834822468459606171,-11.2166966765343,-6.1299478133488,-300.05355998413
738532.50834831513930112123,-11.2351603747673,-6.04686117130039,-300.025864436781
738532.50834840547759085894,-11.2166966765343,-5.92684713278603,-300.035096285897
738532.50834849593229591846,-11.2166966765343,-5.99147007660146,-300.035096285897
738532.50834858638700097799,-11.2074648274178,-5.86222418897061,-299.988937040315
738532.50834867684170603752,-11.1890011291849,-5.94531083101901,-300.044328135014
738532.50834876729641109705,-11.1797692800684,-5.80683309427168,-300.035096285897
738532.50834885775111615658,-11.2443922238838,-5.98223822748497,-299.952009643849
738532.50834894820582121611,-11.2628559221168,-5.8714560380871,-300.025864436781
738532.50834903854411095381,-11.2259285256508,-5.96377452925199,-300.044328135014
738532.50834912899881601334,-11.2166966765343,-5.86222418897061,-300.035096285897
738532.50834921945352107286,-11.2074648274178,-5.86222418897061,-299.970473342082
738532.50834930990822613239,-11.2536240730003,-5.92684713278603,-300.035096285897
738532.50834940036293119192,-11.2443922238838,-5.89915158543657,-300.05355998413
738532.50834949081763625145,-11.2166966765343,-5.91761528366955,-299.961241492965
738532.50834958127234131098,-11.2259285256508,-5.8714560380871,-299.979705191198
738532.50834967161063104868,-11.2166966765343,-5.94531083101901,-300.025864436781
738532.50834976206533610821,-11.1613055818354,-5.81606494338816,-299.961241492965
738532.50834985252004116774,-11.1428418836024,-5.88068788720359,-299.942777794732
738532.50834994297474622726,-11.2166966765343,-5.82529679250465,-299.933545945616
738532.50835003342945128679,-11.1797692800684,-5.92684713278603,-299.961241492965
738532.50835012388415634632,-11.1428418836024,-5.76067384868923,-299.9243140965
738532.50835021433886140585,-11.1705374309519,-5.91761528366955,-299.9243140965
738532.50835030467715114355,-11.09668263802,-5.71451460310678,-299.89661854915
738532.50835039513185620308,-11.1336100344859,-5.86222418897061,-299.979705191198
738532.50835048558656126261,-11.09668263802,-5.69605090487381,-299.933545945616
738532.50835057604126632214,-11.1151463362529,-5.84376049073763,-299.970473342082
738532.50835066649597138166,-11.0505233924375,-5.64065981017487,-299.961241492965
738532.50835075695067644119,-11.0320596942045,-5.74221015045625,-299.998168889431
738532.50835084740538150072,-11.0043641468551,-5.62219611194189,-299.961241492965
738532.50835093774367123842,-11.0135959959716,-5.73297830133976,-299.970473342082
738532.50835102819837629795,-10.9766685995056,-5.70528275399029,-300.025864436781
738532.50835111865308135748,-10.9582049012726,-5.57603686635945,-299.979705191198
738532.50835120910778641701,-10.9951322977386,-5.72374645222327,-299.933545945616
738532.50835129956249147654,-11.022827845088,-5.64065981017487,-299.988937040315
738532.50835139001719653606,-11.0874507889035,-5.82529679250465,-299.979705191198
738532.50835148035548627377,-11.1151463362529,-5.70528275399029,-299.905850398267
738532.50835157081019133329,-11.1151463362529,-5.84376049073763,-300.016632587664
738532.50835166126489639282,-11.2074648274178,-5.81606494338816,-300.035096285897
738532.50835175171960145235,-11.2443922238838,-5.98223822748497,-300.05355998413
738532.50835184217430651188,-11.2351603747673,-5.84376049073763,-299.970473342082
738532.50835193262901157141,-11.2351603747673,-5.96377452925199,-300.062791833247
738532.50835202308371663094,-11.2259285256508,-5.85299233985412,-300.08125553148
738532.50835211342200636864,-11.2443922238838,-5.97300637836848,-299.988937040315
738532.50835220387671142817,-11.2628559221168,-5.90838343455306,-300.05355998413
738532.50835229433141648769,-11.2074648274178,-5.93607898190252,-300.072023682363
738532.50835238478612154722,-11.2351603747673,-5.89915158543657,-300.025864436781
738532.50835247524082660675,-11.2628559221168,-5.97300637836848,-300.062791833247
738532.50835256569553166628,-11.2536240730003,-5.92684713278603,-300.072023682363
738532.50835265615023672581,-11.2074648274178,-5.89915158543657,-300.05355998413
738532.50835274648852646351,-11.2259285256508,-5.91761528366955,-299.998168889431
738532.50835283694323152304,-11.2628559221168,-5.9545426801355,-300.044328135014
738532.50835292739793658257,-11.2351603747673,-6.00993377483444,-300.072023682363
738532.50835301785264164209,-11.1982329783013,-5.83452864162114,-300.044328135014
738532.50835310830734670162,-11.2720877712333,-6.01916562395093,-300.016632587664
738532.50835319876205176115,-11.2166966765343,-5.85299233985412,-300.062791833247
738532.50835328921675682068,-11.2720877712333,-6.00993377483444,-300.090487380596
738532.50835337955504655838,-11.2720877712333,-5.89915158543657,-299.979705191198
738532.50835347000975161791,-11.2720877712333,-5.99147007660146,-300.05355998413
738532.50835356046445667744,-11.2351603747673,-5.88068788720359,-300.044328135014
738532.50835365091916173697,-11.2259285256508,-5.93607898190252,-300.099719229713
738532.50835374137386679649,-11.2351603747673,-5.90838343455306,-300.025864436781
738532.50835383182857185602,-11.2628559221168,-5.98223822748497,-300.08125553148
738532.50835392228327691555,-11.2351603747673,-5.92684713278603,-300.090487380596
738532.50835401262156665325,-11.2536240730003,-5.93607898190252,-299.988937040315
738532.50835410307627171278,-11.2813196203497,-5.98223822748497,-300.062791833247
738532.50835419353097677231,-11.2628559221168,-5.94531083101901,-300.090487380596
738532.50835428398568183184,-11.2813196203497,-5.99147007660146,-299.998168889431
738532.50835437444038689137,-11.2443922238838,-5.8714560380871,-299.998168889431
738532.50835446489509195089,-11.2443922238838,-5.97300637836848,-300.062791833247
738532.50835455534979701042,-11.2536240730003,-5.88991973632008,-299.942777794732
738532.50835464568808674812,-11.3090151676992,-6.05609302041688,-299.961241492965
738532.50835473614279180765,-11.2813196203497,-5.9545426801355,-299.952009643849
738532.50835482659749686718,-11.2443922238838,-5.98223822748497,-299.952009643849
738532.50835491705220192671,-11.2443922238838,-5.94531083101901,-299.915082247383
738532.50835500750690698624,-11.2813196203497,-6.00993377483444,-299.822763756218
738532.50835509796161204576,-11.2259285256508,-5.91761528366955,-299.933545945616
738532.50835518841631710529,-11.2813196203497,-5.99147007660146,-299.988937040315
738532.50835527875460684299,-11.3459425641652,-6.05609302041688,-300.05355998413
738532.50835536920931190252,-11.2628559221168,-5.96377452925199,-300.044328135014
738532.50835545966401696205,-11.2259285256508,-6.00070192571795,-299.988937040315
738532.50835555011872202158,-11.1982329783013,-5.90838343455306,-300.044328135014
738532.50835564057342708111,-11.2813196203497,-6.06532486953337,-300.007400738548
738532.50835573102813214064,-11.2443922238838,-5.94531083101901,-300.08125553148
738532.50835582148283720016,-11.2443922238838,-6.04686117130039,-300.072023682363
738532.50835591182112693787,-11.1520737327189,-5.88068788720359,-300.025864436781
738532.50835600227583199739,-11.2351603747673,-6.09302041688284,-300.016632587664
738532.50835609273053705692,-11.2443922238838,-5.94531083101901,-300.05355998413
738532.50835618318524211645,-11.2536240730003,-6.08378856776635,-300.108951078829
738532.50835627363994717598,-11.2443922238838,-5.92684713278603,-299.998168889431
738532.50835636409465223551,-11.2905514694662,-6.11148411511582,-300.072023682363
738532.50835645454935729504,-11.2259285256508,-5.88068788720359,-300.044328135014
738532.50835654488764703274,-11.3736381115146,-6.13917966246528,-300.05355998413
738532.50835663534235209227,-11.3644062623981,-6.12071596423231,-300.007400738548
738532.50835672579705715179,-11.3459425641652,-6.02839747306742,-300.08125553148
738532.50835681625176221132,-11.3367107150487,-6.08378856776635,-300.099719229713
738532.50835690670646727085,-11.3551744132817,-6.00993377483444,-299.979705191198
738532.50835699716117233038,-11.3090151676992,-6.08378856776635,-300.08125553148
738532.50835708761587738991,-11.3182470168157,-5.97300637836848,-300.062791833247
738532.50835717795416712761,-11.3367107150487,-6.09302041688284,-300.062791833247
738532.50835726840887218714,-11.3090151676992,-5.92684713278603,-300.044328135014
738532.50835735886357724667,-11.4013336588641,-6.1299478133488,-300.08125553148
738532.50835744931828230619,-11.2720877712333,-5.93607898190252,-300.072023682363
738532.50835753977298736572,-10.9674367503891,-6.00070192571795,-299.979705191198
738532.50835763022769242525,-10.6350901821955,-5.80683309427168,-299.952009643849
738532.50835772068239748478,-10.3119754631184,-5.91761528366955,-300.007400738548
738532.50835781102068722248,-10.6812494277779,-5.89915158543657,-299.988937040315
738532.50835790147539228201,-11.0320596942045,-6.36997589037751,-300.05355998413
738532.50835799193009734154,-11.2905514694662,-6.17610705893124,-300.035096285897
738532.50835808238480240107,-11.3459425641652,-6.16687520981475,-300.016632587664
738532.50835817283950746059,-11.2997833185827,-5.97300637836848,-299.961241492965
738532.50835826329421252012,-11.3090151676992,-6.0376293221839,-299.961241492965
738532.50835835374891757965,-11.2905514694662,-5.9545426801355,-299.942777794732
738532.50835844408720731735,-11.3367107150487,-6.01916562395093,-299.933545945616
738532.50835853454191237688,-11.2997833185827,-6.01916562395093,-299.850459303568
738532.50835862499661743641,-11.2628559221168,-5.84376049073763,-299.970473342082
738532.50835871545132249594,-11.3274788659322,-6.04686117130039,-300.035096285897
738532.50835880590602755547,-11.3367107150487,-5.91761528366955,-300.05355998413
738532.50835889636073261499,-11.2813196203497,-6.00070192571795,-300.062791833247
738532.50835898681543767452,-11.2259285256508,-5.7883693960387,-300.016632587664
738532.50835907715372741222,-11.3367107150487,-6.04686117130039,-300.016632587664
738532.50835916760843247175,-11.3367107150487,-5.90838343455306,-299.988937040315
738532.50835925806313753128,-11.2720877712333,-5.94531083101901,-300.016632587664
738532.50835934851784259081,-11.2628559221168,-5.85299233985412,-299.979705191198
738532.50835943897254765034,-11.3182470168157,-6.00070192571795,-300.007400738548
738532.50835952942725270987,-11.2997833185827,-5.88068788720359,-300.007400738548
738532.50835961988195776939,-11.2720877712333,-5.91761528366955,-300.044328135014
738532.50835971022024750710,-11.2443922238838,-5.8714560380871,-300.044328135014
738532.50835980067495256662,-11.2443922238838,-5.88991973632008,-300.035096285897
738532.50835989112965762615,-11.2166966765343,-5.86222418897061,-300.007400738548
738532.50835998158436268568,-11.2351603747673,-5.85299233985412,-300.062791833247
738532.50836007203906774521,-11.1982329783013,-5.84376049073763,-300.044328135014
738532.50836016249377280474,-11.1428418836024,-5.75144199957274,-299.952009643849
738532.50836025294847786427,-11.1428418836024,-5.82529679250465,-300.016632587664
738532.50836034328676760197,-11.1797692800684,-5.76990569780572,-300.007400738548
738532.50836043374147266150,-11.1705374309519,-5.85299233985412,-300.035096285897
738532.50836052419617772102,-11.1243781853694,-5.69605090487381,-300.016632587664
738532.50836061465088278055,-11.09668263802,-5.77913754692221,-300.016632587664
738532.50836070510558784008,-11.078218939787,-5.67758720664083,-300.025864436781
738532.50836079556029289961,-11.0505233924375,-5.69605090487381,-299.998168889431
738532.50836088601499795914,-11.022827845088,-5.62219611194189,-299.979705191198
738532.50836097635328769684,-11.078218939787,-5.71451460310678,-300.035096285897
738532.50836106680799275637,-11.0689870906705,-5.69605090487381,-299.988937040315
738532.50836115726269781590,-11.1797692800684,-5.79760124515519,-299.998168889431
738532.50836124771740287542,-11.2074648274178,-5.85299233985412,-300.044328135014
738532.50836133817210793495,-11.2351603747673,-5.85299233985412,-300.044328135014
738532.50836142862681299448,-11.2443922238838,-5.91761528366955,-300.035096285897
738532.50836151908151805401,-11.2720877712333,-5.8714560380871,-300.05355998413
738532.50836160941980779171,-11.2536240730003,-5.93607898190252,-300.044328135014
738532.50836169987451285124,-11.2628559221168,-5.86222418897061,-300.007400738548
738532.50836179032921791077,-11.2997833185827,-6.00070192571795,-299.998168889431
738532.50836188078392297029,-11.2997833185827,-5.88068788720359,-299.988937040315
738532.50836197123862802982,-11.2813196203497,-5.98223822748497,-299.868923001801
738532.50836206169333308935,-11.2443922238838,-5.79760124515519,-299.887386700034
738532.50836215214803814888,-11.2628559221168,-5.9545426801355,-299.998168889431
738532.50836224248632788658,-11.2813196203497,-5.91761528366955,-299.988937040315
738532.50836233294103294611,-11.3182470168157,-5.93607898190252,-299.998168889431
738532.50836242339573800564,-11.2997833185827,-5.9545426801355,-300.016632587664
738532.50836251385044306517,-11.2720877712333,-5.90838343455306,-299.952009643849
738532.50836260430514812469,-11.2166966765343,-5.89915158543657,-299.952009643849
738532.50836269475985318422,-11.2536240730003,-5.88991973632008,-299.952009643849
738532.50836278521455824375,-11.3274788659322,-6.05609302041688,-299.970473342082
738532.50836287555284798145,-11.3090151676992,-5.93607898190252,-299.952009643849
738532.50836296600755304098,-11.2720877712333,-6.00993377483444,-300.016632587664
738532.50836305646225810051,-11.2720877712333,-5.90838343455306,-299.998168889431
738532.50836314691696316004,-11.2997833185827,-6.04686117130039,-300.025864436781
738532.50836323737166821957,-11.2443922238838,-5.8714560380871,-300.05355998413
738532.50836332782637327909,-11.2443922238838,-6.00070192571795,-300.05355998413
738532.50836341828107833862,-11.3090151676992,-5.90838343455306,-299.961241492965
738532.50836350861936807632,-11.2813196203497,-6.02839747306742,-300.062791833247
738532.50836359907407313585,-11.2905514694662,-5.89915158543657,-300.044328135014
738532.50836368952877819538,-11.2443922238838,-5.99147007660146,-299.998168889431
738532.50836377998348325491,-11.2720877712333,-5.8714560380871,-300.016632587664
738532.50836387043818831444,-11.3090151676992,-6.0376293221839,-300.062791833247
738532.50836396089289337397,-11.2628559221168,-5.88991973632008,-300.007400738548
738532.50836405134759843349,-11.2905514694662,-6.00993377483444,-299.961241492965
738532.50836414168588817120,-11.2997833185827,-6.02839747306742,-300.044328135014
738532.50836423214059323072,-11.2905514694662,-5.90838343455306,-300.044328135014
738532.50836432259529829025,-11.2628559221168,-6.00070192571795,-300.035096285897
738532.50836441305000334978,-11.2813196203497,-5.88991973632008,-300.025864436781
738532.50836450350470840931,-11.3182470168157,-6.04686117130039,-300.05355998413
738532.50836459395941346884,-11.2720877712333,-5.86222418897061,-300.035096285897
738532.50836468441411852837,-11.2905514694662,-6.01916562395093,-300.062791833247
738532.50836477475240826607,-11.2536240730003,-5.84376049073763,-300.035096285897
738532.50836486520711332560,-11.2813196203497,-6.01916562395093,-300.099719229713
738532.50836495566181838512,-11.3274788659322,-5.91761528366955,-299.979705191198
738532.50836504611652344465,-11.3090151676992,-6.01916562395093,-300.05355998413
738532.50836513657122850418,-11.2628559221168,-5.8714560380871,-300.05355998413
738532.50836522702593356371,-11.2813196203497,-5.99147007660146,-299.998168889431
738532.50836531748063862324,-11.2166966765343,-5.85299233985412,-300.025864436781
738532.50836540781892836094,-11.2074648274178,-5.93607898190252,-300.044328135014
738532.50836549827363342047,-11.1982329783013,-5.85299233985412,-299.850459303568
738532.50836558872833848000,-11.2074648274178,-5.91761528366955,-299.933545945616
738532.50836567918304353952,-11.1890011291849,-5.8714560380871,-300.035096285897
738532.50836576963774859905,-11.1890011291849,-5.89915158543657,-300.035096285897
738532.50836586009245365858,-11.1982329783013,-5.88991973632008,-299.952009643849
738532.50836595054715871811,-11.2074648274178,-5.8714560380871,-299.942777794732
738532.50836604088544845581,-11.2351603747673,-5.97300637836848,-299.961241492965
738532.50836613134015351534,-11.2628559221168,-5.8714560380871,-299.9243140965
738532.50836622179485857487,-11.2813196203497,-6.00993377483444,-299.979705191198
738532.50836631224956363440,-11.2720877712333,-5.88068788720359,-300.016632587664
738532.50836640270426869392,-11.3274788659322,-6.0376293221839,-300.072023682363
738532.50836649315897375345,-11.3090151676992,-5.90838343455306,-300.044328135014
738532.50836658361367881298,-11.3090151676992,-5.98223822748497,-300.062791833247
738532.50836667395196855068,-11.3367107150487,-5.94531083101901,-300.062791833247
738532.50836676440667361021,-11.3459425641652,-6.00993377483444,-300.025864436781
738532.50836685486137866974,-11.2905514694662,-5.90838343455306,-300.035096285897
738532.50836694531608372927,-11.2997833185827,-5.94531083101901,-300.05355998413
738532.50836703577078878880,-11.3182470168157,-5.93607898190252,-300.007400738548
738532.50836712622549384832,-11.3828699606311,-5.9545426801355,-299.979705191198
738532.50836721668019890785,-11.2443922238838,-5.9545426801355,-299.988937040315
738532.50836730701848864555,-10.9859004486221,-5.88991973632008,-299.942777794732
738532.50836739747319370508,-10.5243079927976,-5.76067384868923,-299.9243140965
738532.50836748792789876461,-10.3027436140019,-5.73297830133976,-299.9243140965
738532.50836757838260382414,-10.7643360698263,-6.0376293221839,-299.979705191198
738532.50836766883730888367,-11.022827845088,-6.18533890804773,-300.007400738548
738532.50836775929201394320,-11.2443922238838,-6.18533890804773,-300.05355998413
738532.50836784974671900272,-11.2905514694662,-6.01916562395093,-299.988937040315
738532.50836794008500874043,-11.2905514694662,-5.99147007660146,-300.025864436781
738532.50836803053971379995,-11.2720877712333,-5.91761528366955,-300.007400738548
738532.50836812099441885948,-11.2813196203497,-5.92684713278603,-299.970473342082
738532.50836821144912391901,-11.2905514694662,-5.90838343455306,-299.9243140965
738532.50836830190382897854,-11.3182470168157,-5.93607898190252,-300.007400738548
738532.50836839235853403807,-11.2905514694662,-5.90838343455306,-300.05355998413
738532.50836848281323909760,-11.2628559221168,-5.83452864162114,-299.979705191198
738532.50836857315152883530,-11.2351603747673,-5.85299233985412,-300.016632587664
738532.50836866360623389482,-11.2720877712333,-5.82529679250465,-300.016632587664
738532.50836875406093895435,-11.3090151676992,-5.94531083101901,-300.035096285897
738532.50836884451564401388,-11.2997833185827,-5.84376049073763,-300.007400738548
738532.50836893497034907341,-11.2628559221168,-5.91761528366955,-300.025864436781
738532.50836902542505413294,-11.2813196203497,-5.81606494338816,-299.859691152684
738532.50836911587975919247,-11.2536240730003,-5.90838343455306,-299.887386700034
738532.50836920621804893017,-11.1890011291849,-5.72374645222327,-299.998168889431
738532.50836929667275398970,-11.2166966765343,-5.89915158543657,-300.044328135014
738532.50836938712745904922,-11.2536240730003,-5.7883693960387,-299.942777794732
738532.50836947758216410875,-11.2536240730003,-5.91761528366955,-300.044328135014
738532.50836956803686916828,-11.2166966765343,-5.75144199957274,-299.988937040315
738532.50836965849157422781,-11.1982329783013,-5.8714560380871,-300.007400738548
738532.50836974894627928734,-11.1613055818354,-5.79760124515519,-299.970473342082
738532.50836983928456902504,-11.1982329783013,-5.77913754692221,-300.016632587664
738532.50836992973927408457,-11.1613055818354,-5.80683309427168,-300.035096285897
738532.50837002019397914410,-11.1705374309519,-5.74221015045625,-299.979705191198
738532.50837011064868420362,-11.1613055818354,-5.81606494338816,-300.035096285897
738532.50837020110338926315,-11.09668263802,-5.64989165929136,-300.007400738548
738532.50837029155809432268,-11.0320596942045,-5.70528275399029,-299.979705191198
738532.50837038201279938221,-11.041291543321,-5.59450056459243,-299.878154850917
738532.50837047235108911991,-11.0505233924375,-5.73297830133976,-299.979705191198
738532.50837056280579417944,-11.0505233924375,-5.6129642628254,-299.961241492965
738532.50837065326049923897,-11.0135959959716,-5.68681905575732,-299.961241492965
738532.50837074371520429850,-11.0505233924375,-5.59450056459243,-299.942777794732
738532.50837083416990935802,-11.0689870906705,-5.74221015045625,-299.961241492965
738532.50837092462461441755,-11.1336100344859,-5.69605090487381,-299.979705191198
738532.50837101507931947708,-11.1243781853694,-5.79760124515519,-299.942777794732
738532.50837110541760921478,-11.1520737327189,-5.72374645222327,-300.035096285897
738532.50837119587231427431,-11.2259285256508,-5.88991973632008,-300.05355998413
738532.50837128632701933384,-11.2628559221168,-5.86222418897061,-299.942777794732
738532.50837137678172439337,-11.2074648274178,-5.86222418897061,-299.961241492965
738532.50837146723642945290,-11.2536240730003,-5.86222418897061,-299.998168889431
738532.50837155769113451242,-11.2997833185827,-5.9545426801355,-299.970473342082
738532.50837164814583957195,-11.3090151676992,-6.00993377483444,-299.979705191198
738532.50837173848412930965,-11.2905514694662,-5.86222418897061,-299.970473342082
738532.50837182893883436918,-11.2628559221168,-5.97300637836848,-299.988937040315
738532.50837191939353942871,-11.2443922238838,-5.80683309427168,-299.952009643849
738532.50837200984824448824,-11.2997833185827,-6.08378856776635,-299.979705191198
738532.50837210030294954777,-11.2443922238838,-5.85299233985412,-299.970473342082
738532.50837219075765460730,-11.2443922238838,-5.94531083101901,-300.025864436781
738532.50837228121235966682,-11.2351603747673,-5.82529679250465,-299.942777794732
738532.50837237155064940453,-11.2351603747673,-5.92684713278603,-299.961241492965
738532.50837246200535446405,-11.2720877712333,-5.89915158543657,-299.952009643849
738532.50837255246005952358,-11.3090151676992,-6.00993377483444,-299.905850398267
738532.50837264291476458311,-11.2720877712333,-5.90838343455306,-299.915082247383
738532.50837273336946964264,-11.2536240730003,-5.93607898190252,-299.979705191198
738532.50837282382417470217,-11.2628559221168,-5.90838343455306,-300.007400738548
738532.50837291427887976170,-11.2628559221168,-5.93607898190252,-300.016632587664
738532.50837300461716949940,-11.2351603747673,-5.88991973632008,-300.016632587664
738532.50837309507187455893,-11.2628559221168,-5.90838343455306,-300.016632587664
738532.50837318552657961845,-11.2259285256508,-5.90838343455306,-300.044328135014
738532.50837327598128467798,-11.1982329783013,-5.84376049073763,-299.998168889431
738532.50837336643598973751,-11.2351603747673,-5.91761528366955,-299.998168889431
738532.50837345689069479704,-11.3182470168157,-5.9545426801355,-300.016632587664
738532.50837354734539985657,-11.3182470168157,-6.02839747306742,-300.044328135014
738532.50837363768368959427,-11.2536240730003,-5.8714560380871,-300.025864436781
738532.50837372813839465380,-11.3274788659322,-6.00993377483444,-300.007400738548
738532.50837381859309971333,-11.2905514694662,-5.90838343455306,-300.044328135014
738532.50837390904780477285,-11.1890011291849,-5.8714560380871,-300.025864436781
738532.50837399950250983238,-11.1243781853694,-5.75144199957274,-300.007400738548
738532.50837408995721489191,-11.2905514694662,-5.9545426801355,-300.025864436781
738532.50837418041191995144,-11.2997833185827,-5.96377452925199,-300.05355998413
738532.50837427075020968914,-11.3459425641652,-5.98223822748497,-300.044328135014
738532.50837436120491474867,-11.1982329783013,-5.88068788720359,-300.007400738548
738532.50837445165961980820,-11.1705374309519,-5.80683309427168,-300.05355998413
738532.50837454211432486773,-11.4105655079806,-6.07455671864986,-300.007400738548
738532.50837463256902992725,-11.1797692800684,-5.79760124515519,-299.979705191198
738532.50837472302373498678,-11.2536240730003,-5.98223822748497,-299.998168889431
738532.50837481336202472448,-11.2813196203497,-5.90838343455306,-299.988937040315
738532.50837490381672978401,-11.2905514694662,-6.00993377483444,-299.979705191198
738532.50837499427143484354,-11.2074648274178,-5.7883693960387,-299.859691152684
738532.50837508472613990307,-11.2074648274178,-5.94531083101901,-299.905850398267
738532.50837517518084496260,-11.2351603747673,-5.88068788720359,-299.9243140965
738532.50837526563555002213,-11.2074648274178,-5.9545426801355,-299.942777794732
738532.50837535609025508165,-11.2351603747673,-5.89915158543657,-299.942777794732
738532.50837544642854481936,-11.1520737327189,-5.81606494338816,-299.89661854915
738532.50837553688324987888,-11.1982329783013,-5.89915158543657,-299.9243140965
738532.50837562733795493841,-11.09668263802,-5.76990569780572,-299.933545945616
738532.50837571779265999794,-11.1613055818354,-5.89915158543657,-299.952009643849
738532.50837580824736505747,-11.1428418836024,-5.76990569780572,-299.868923001801
738532.50837589870207011700,-11.1613055818354,-5.86222418897061,-299.970473342082
738532.50837598915677517653,-11.059755241554,-5.68681905575732,-299.942777794732
738532.50837607949506491423,-11.3274788659322,-6.06532486953337,-299.850459303568
738532.50837616994976997375,-11.2997833185827,-5.89915158543657,-299.831995605335
738532.50837626040447503328,-11.2259285256508,-5.91761528366955,-299.988937040315
738532.50837635085918009281,-11.2166966765343,-5.7883693960387,-299.915082247383
738532.50837644131388515234,-11.3551744132817,-6.05609302041688,-299.942777794732
738532.50837653176859021187,-11.2166966765343,-5.7883693960387,-299.915082247383
738532.50837662222329527140,-11.1520737327189,-5.83452864162114,-299.961241492965
738532.50837671256158500910,-11.2443922238838,-5.82529679250465,-299.961241492965
738532.50837680301629006863,-11.3551744132817,-6.04686117130039,-300.007400738548
738532.50837689347099512815,-11.2905514694662,-5.86222418897061,-299.988937040315
738532.50837698392570018768,-11.2905514694662,-5.92684713278603,-299.961241492965
738532.50837707438040524721,-11.2351603747673,-5.84376049073763,-299.998168889431
738532.50837716483511030674,-11.09668263802,-5.98223822748497,-299.961241492965
738532.50837725528981536627,-10.8658864101077,-5.94531083101901,-299.961241492965
738532.50837734562810510397,-10.2658162175359,-5.62219611194189,-299.831995605335
738532.50837743608281016350,-10.3581347087008,-5.82529679250465,-299.952009643849
738532.50837752653751522303,-10.8197271645253,-5.98223822748497,-300.007400738548
738532.50837761699222028255,-11.1890011291849,-6.39767143772698,-300.05355998413
738532.50837770744692534208,-11.2074648274178,-5.99147007660146,-300.016632587664
738532.50837779790163040161,-11.2997833185827,-6.12071596423231,-300.044328135014
738532.50837788835633546114,-11.1613055818354,-5.79760124515519,-300.007400738548
738532.50837797869462519884,-11.3182470168157,-6.05609302041688,-300.025864436781
738532.50837806914933025837,-11.2536240730003,-5.88068788720359,-300.035096285897
738532.50837815960403531790,-11.1705374309519,-5.8714560380871,-300.007400738548
738532.50837825005874037743,-11.2536240730003,-5.85299233985412,-299.952009643849
738532.50837834051344543695,-11.1613055818354,-5.85299233985412,-300.016632587664
738532.50837843096815049648,-11.2628559221168,-5.82529679250465,-300.007400738548
738532.50837852142285555601,-11.2720877712333,-5.91761528366955,-299.942777794732
738532.50837861176114529371,-11.2905514694662,-5.89915158543657,-299.998168889431
738532.50837870221585035324,-11.3367107150487,-5.98223822748497,-300.007400738548
738532.50837879267055541277,-11.1336100344859,-5.76067384868923,-299.979705191198
738532.50837888312526047230,-11.1705374309519,-5.82529679250465,-300.007400738548
738532.50837897357996553183,-11.2813196203497,-5.93607898190252,-300.016632587664
738532.50837906403467059135,-11.2536240730003,-5.91761528366955,-300.016632587664
738532.50837915448937565088,-11.2259285256508,-5.96377452925199,-300.025864436781
738532.50837924482766538858,-11.2166966765343,-5.84376049073763,-299.952009643849
738532.50837933528237044811,-11.2074648274178,-5.9545426801355,-299.952009643849
738532.50837942573707550764,-11.2074648274178,-5.85299233985412,-299.89661854915
738532.50837951619178056717,-11.1797692800684,-5.92684713278603,-299.952009643849
738532.50837960664648562670,-11.1428418836024,-5.81606494338816,-299.859691152684
738532.50837969710119068623,-11.1151463362529,-5.86222418897061,-299.831995605335
738532.50837978755589574575,-11.0505233924375,-5.76067384868923,-299.9243140965
738532.50837987789418548346,-11.1797692800684,-5.92684713278603,-299.942777794732
738532.50837996834889054298,-11.1520737327189,-5.88068788720359,-299.887386700034
738532.50838005880359560251,-11.0689870906705,-5.84376049073763,-299.961241492965
738532.50838014925830066204,-11.0320596942045,-5.7883693960387,-299.979705191198
738532.50838023971300572157,-10.9859004486221,-5.70528275399029,-299.905850398267
738532.50838033016771078110,-10.9951322977386,-5.76990569780572,-299.9243140965
738532.50838042062241584063,-10.9859004486221,-5.72374645222327,-299.915082247383
738532.50838051096070557833,-10.9489730521561,-5.77913754692221,-299.915082247383
738532.50838060141541063786,-10.9766685995056,-5.66835535752434,-299.878154850917
738532.50838069187011569738,-11.0043641468551,-5.77913754692221,-299.878154850917
738532.50838078232482075691,-11.059755241554,-5.70528275399029,-299.9243140965
738532.50838087277952581644,-11.2443922238838,-6.06532486953337,-299.942777794732
738532.50838096323423087597,-11.2074648274178,-5.90838343455306,-299.933545945616
738532.50838105368893593550,-11.2351603747673,-6.02839747306742,-299.952009643849
738532.50838114402722567320,-11.1243781853694,-5.92684713278603,-299.998168889431
738532.50838123448193073273,-11.2259285256508,-6.08378856776635,-300.05355998413
738532.50838132493663579226,-11.2813196203497,-6.1299478133488,-300.044328135014
738532.50838141539134085178,-11.1890011291849,-6.01916562395093,-299.998168889431
738532.50838150584604591131,-11.2813196203497,-6.12071596423231,-300.035096285897
738532.50838159630075097084,-11.2720877712333,-6.05609302041688,-300.035096285897
738532.50838168675545603037,-11.1890011291849,-6.05609302041688,-299.970473342082
738532.50838177709374576807,-11.2536240730003,-6.0376293221839,-300.025864436781
738532.50838186754845082760,-11.2259285256508,-6.1299478133488,-300.035096285897
738532.50838195800315588713,-11.1797692800684,-5.90838343455306,-299.942777794732
738532.50838204845786094666,-11.1613055818354,-6.01916562395093,-300.007400738548
738532.50838213891256600618,-11.2536240730003,-5.96377452925199,-300.016632587664
738532.50838222936727106571,-11.2536240730003,-6.04686117130039,-300.025864436781
738532.50838231982197612524,-11.2813196203497,-5.91761528366955,-299.988937040315
738532.50838241016026586294,-11.059755241554,-5.86222418897061,-300.016632587664
738532.50838250061497092247,-11.2074648274178,-5.88068788720359,-300.007400738548
738532.50838259106967598200,-11.3182470168157,-6.17610705893124,-300.007400738548
738532.50838268152438104153,-11.1705374309519,-5.86222418897061,-300.035096285897
738532.50838277197908610106,-11.2259285256508,-6.01916562395093,-300.025864436781
738532.50838286243379116058,-11.2628559221168,-6.0376293221839,-300.035096285897
738532.50838295288849622011,-11.2074648274178,-5.88068788720359,-299.988937040315
738532.50838304322678595781,-11.078218939787,-5.86222418897061,-300.025864436781
738532.50838313368149101734,-11.2813196203497,-6.01916562395093,-299.970473342082
738532.50838322413619607687,-11.2813196203497,-6.14841151158177,-299.878154850917
738532.50838331459090113640,-11.1982329783013,-5.93607898190252,-300.035096285897
738532.50838340504560619593,-11.1613055818354,-6.07455671864986,-300.044328135014
738532.50838349550031125546,-11.2074648274178,-6.02839747306742,-299.9243140965
738532.50838358595501631498,-11.2720877712333,-6.18533890804773,-299.970473342082
738532.50838367629330605268,-11.1982329783013,-5.91761528366955,-299.970473342082
738532.50838376674801111221,-11.1705374309519,-6.0376293221839,-299.933545945616
738532.50838385720271617174,-11.1428418836024,-5.92684713278603,-299.933545945616
738532.50838394765742123127,-11.3182470168157,-6.2961210974456,-300.007400738548
738532.50838403811212629080,-11.1151463362529,-5.97300637836848,-299.979705191198
738532.50838412856683135033,-11.1336100344859,-6.14841151158177,-300.016632587664
738532.50838421902153640985,-10.9859004486221,-5.88991973632008,-299.998168889431
738532.50838430935982614756,-11.2443922238838,-6.27765739921262,-300.062791833247
738532.50838439981453120708,-11.1982329783013,-6.16687520981475,-300.062791833247
738532.50838449026923626661,-11.059755241554,-6.1299478133488,-300.05355998413
738532.50838458072394132614,-11.1243781853694,-6.1299478133488,-299.988937040315
738532.50838467117864638567,-11.1059144871364,-6.19457075716422,-300.090487380596
738532.50838476163335144520,-11.1613055818354,-6.36074404126102,-300.072023682363
738532.50838485208805650473,-11.1243781853694,-6.1299478133488,-300.044328135014
738532.50838494242634624243,-11.1428418836024,-6.26842555009613,-299.998168889431
738532.50838503288105130196,-11.022827845088,-6.20380260628071,-300.05355998413
738532.50838512333575636148,-11.1613055818354,-6.39767143772698,-300.099719229713
738532.50838521379046142101,-11.0135959959716,-6.06532486953337,-299.979705191198
738532.50838530424516648054,-11.1428418836024,-6.2961210974456,-299.998168889431
738532.50838539469987154007,-11.078218939787,-6.00993377483444,-299.970473342082
738532.50838548515457659960,-11.1151463362529,-6.14841151158177,-300.007400738548
738532.50838557549286633730,-11.1059144871364,-5.97300637836848,-300.016632587664
738532.50838566594757139683,-11.2074648274178,-6.05609302041688,-300.035096285897
738532.50838575640227645636,-11.041291543321,-5.7883693960387,-300.025864436781
738532.50838584685698151588,-11.078218939787,-5.79760124515519,-299.9243140965
738532.50838593731168657541,-11.1520737327189,-5.7883693960387,-299.9243140965
738532.50838602776639163494,-11.3828699606311,-6.00070192571795,-299.942777794732
738532.50838611822109669447,-11.2813196203497,-5.88068788720359,-299.905850398267
738532.50838620855938643217,-11.3828699606311,-5.92684713278603,-299.952009643849
738532.50838629901409149170,-11.4013336588641,-5.97300637836848,-300.044328135014
738532.50838638946879655123,-11.3736381115146,-5.88991973632008,-300.007400738548
738532.50838647992350161076,-11.4013336588641,-6.0376293221839,-300.025864436781
738532.50838657037820667028,-11.4844203009125,-5.96377452925199,-300.044328135014
738532.50838666083291172981,-11.3921018097476,-5.99147007660146,-299.979705191198
738532.50838675128761678934,-11.1797692800684,-5.81606494338816,-299.804300057985
738532.50838684162590652704,-10.9582049012726,-6.02839747306742,-299.998168889431
738532.50838693208061158657,-10.5520035401471,-5.89915158543657,-299.961241492965
738532.50838702253531664610,-10.1550340281381,-5.88991973632008,-299.915082247383
738532.50838711299002170563,-10.6166264839625,-6.05609302041688,-300.007400738548
738532.50838720344472676516,-10.9397412030396,-6.34228034302805,-300.099719229713
738532.50838729389943182468,-11.1428418836024,-6.17610705893124,-300.044328135014
738532.50838738435413688421,-11.2536240730003,-6.07455671864986,-300.007400738548
738532.50838747469242662191,-11.3182470168157,-6.13917966246528,-300.05355998413
738532.50838756514713168144,-11.4197973570971,-6.09302041688284,-300.05355998413
738532.50838765560183674097,-11.3828699606311,-6.11148411511582,-299.970473342082
738532.50838774605654180050,-11.4197973570971,-6.00993377483444,-299.998168889431
738532.50838783651124686003,-11.2813196203497,-5.97300637836848,-299.952009643849
738532.50838792696595191956,-11.5028839991455,-6.01916562395093,-299.942777794732
738532.50838801742065697908,-11.3828699606311,-6.0376293221839,-299.961241492965
738532.50838810775894671679,-11.456724753563,-5.93607898190252,-299.933545945616
738532.50838819821365177631,-11.4290292062136,-6.07455671864986,-299.979705191198
738532.50838828866835683584,-11.3274788659322,-5.77913754692221,-299.988937040315
738532.50838837912306189537,-11.3367107150487,-5.99147007660146,-300.05355998413
738532.50838846957776695490,-11.4474929044465,-5.91761528366955,-299.998168889431
738532.50838856003247201443,-11.4290292062136,-5.97300637836848,-299.988937040315
738532.50838865048717707396,-11.4013336588641,-5.99147007660146,-299.979705191198
738532.50838874082546681166,-11.3644062623981,-5.92684713278603,-299.961241492965
738532.50838883128017187119,-11.2628559221168,-5.91761528366955,-299.979705191198
738532.50838892173487693071,-11.456724753563,-6.00993377483444,-299.988937040315
738532.50838901218958199024,-11.3459425641652,-6.04686117130039,-299.970473342082
738532.50838910264428704977,-11.3551744132817,-5.94531083101901,-299.988937040315
738532.50838919309899210930,-11.1982329783013,-5.93607898190252,-300.044328135014
738532.50838928355369716883,-11.3644062623981,-5.9545426801355,-299.979705191198
738532.50838937389198690653,-11.3551744132817,-6.12071596423231,-299.979705191198
738532.50838946434669196606,-11.1982329783013,-5.75144199957274,-299.979705191198
738532.50838955480139702559,-11.3551744132817,-6.08378856776635,-299.998168889431
738532.50838964525610208511,-11.1613055818354,-5.69605090487381,-299.933545945616
738532.50838973571080714464,-11.1520737327189,-5.85299233985412,-299.998168889431
738532.50838982616551220417,-11.3182470168157,-5.83452864162114,-299.961241492965
738532.50838991662021726370,-11.0874507889035,-5.77913754692221,-299.988937040315
738532.50839000695850700140,-11.1151463362529,-5.63142796105838,-299.933545945616
738532.50839009741321206093,-11.1059144871364,-5.75144199957274,-299.970473342082
738532.50839018786791712046,-11.2074648274178,-5.74221015045625,-299.776604510636
738532.50839027832262217999,-11.1797692800684,-5.84376049073763,-299.905850398267
738532.50839036877732723951,-11.09668263802,-5.7883693960387,-299.961241492965
738532.50839045923203229904,-11.1982329783013,-5.69605090487381,-299.970473342082
738532.50839054968673735857,-11.3459425641652,-6.0376293221839,-300.016632587664
738532.50839064002502709627,-11.3367107150487,-5.84376049073763,-299.998168889431
738532.50839073047973215580,-11.3551744132817,-6.0376293221839,-300.044328135014
738532.50839082093443721533,-11.3551744132817,-5.85299233985412,-300.007400738548
738532.50839091138914227486,-11.4105655079806,-6.07455671864986,-300.05355998413
738532.50839100184384733438,-11.4013336588641,-5.88068788720359,-299.942777794732
738532.50839109229855239391,-11.3921018097476,-6.05609302041688,-299.961241492965
738532.50839118275325745344,-11.3459425641652,-5.83452864162114,-299.933545945616
738532.50839127309154719114,-11.456724753563,-6.10225226599933,-299.933545945616
738532.50839136354625225067,-11.4105655079806,-5.93607898190252,-299.942777794732
738532.50839145400095731020,-11.4290292062136,-6.10225226599933,-300.016632587664
738532.50839154445566236973,-11.3367107150487,-5.91761528366955,-299.961241492965
738532.50839163491036742926,-11.3644062623981,-6.0376293221839,-300.016632587664
738532.50839172536507248878,-11.3828699606311,-5.98223822748497,-299.905850398267
738532.50839181581977754831,-11.4013336588641,-6.05609302041688,-299.961241492965
738532.50839190615806728601,-11.2997833185827,-5.90838343455306,-299.952009643849
738532.50839199661277234554,-11.4659566026795,-6.07455671864986,-299.979705191198
738532.50839208706747740507,-11.4659566026795,-6.09302041688284,-299.998168889431
738532.50839217752218246460,-11.4474929044465,-6.00993377483444,-299.970473342082
738532.50839226797688752413,-11.4474929044465,-6.13917966246528,-299.970473342082
738532.50839235843159258366,-11.3828699606311,-5.90838343455306,-299.961241492965
738532.50839244888629764318,-11.3644062623981,-6.05609302041688,-300.007400738548
738532.50839253922458738089,-11.3736381115146,-5.91761528366955,-299.970473342082
738532.50839262967929244041,-11.3182470168157,-6.00993377483444,-300.007400738548
738532.50839272013399749994,-11.4197973570971,-5.98223822748497,-299.998168889431
738532.50839281058870255947,-11.4382610553301,-6.10225226599933,-300.062791833247
738532.50839290104340761900,-11.493652150029,-6.07455671864986,-300.025864436781
738532.50839299149811267853,-11.493652150029,-6.13917966246528,-299.988937040315
738532.50839308195281773806,-11.3921018097476,-5.99147007660146,-300.025864436781
738532.50839317229110747576,-11.3644062623981,-5.96377452925199,-300.025864436781
738532.50839326274581253529,-11.4290292062136,-6.04686117130039,-300.016632587664
738532.50839335320051759481,-11.4382610553301,-6.01916562395093,-300.007400738548
738532.50839344365522265434,-11.2997833185827,-5.92684713278603,-299.961241492965
738532.50839353410992771387,-11.3551744132817,-5.92684713278603,-299.988937040315
738532.50839362456463277340,-11.4659566026795,-6.11148411511582,-300.007400738548
738532.50839371501933783293,-11.493652150029,-6.02839747306742,-299.859691152684
738532.50839380535762757063,-11.475188451796,-6.13917966246528,-299.988937040315
738532.50839389581233263016,-11.456724753563,-5.97300637836848,-299.942777794732
738532.50839398626703768969,-11.5028839991455,-6.16687520981475,-300.007400738548
738532.50839407672174274921,-11.4290292062136,-5.91761528366955,-300.025864436781
738532.50839416717644780874,-11.3828699606311,-5.97300637836848,-300.05355998413
738532.50839425763115286827,-11.4382610553301,-5.99147007660146,-300.044328135014
738532.50839434808585792780,-11.3644062623981,-5.92684713278603,-300.025864436781
738532.50839443842414766550,-11.512115848262,-6.09302041688284,-300.08125553148
738532.50839452887885272503,-11.3367107150487,-5.88991973632008,-300.016632587664
738532.50839461933355778456,-11.4197973570971,-6.01916562395093,-300.035096285897
738532.50839470978826284409,-11.5305795464949,-6.08378856776635,-300.035096285897
738532.50839480024296790361,-11.2905514694662,-5.9545426801355,-300.044328135014
738532.50839489069767296314,-11.3551744132817,-5.91761528366955,-299.998168889431
738532.50839498115237802267,-11.4013336588641,-6.10225226599933,-300.062791833247
738532.50839507149066776037,-11.3274788659322,-5.89915158543657,-300.016632587664
738532.50839516194537281990,-11.3551744132817,-6.08378856776635,-300.016632587664
738532.50839525240007787943,-11.3736381115146,-5.94531083101901,-300.016632587664
738532.50839534285478293896,-11.2997833185827,-6.01916562395093,-300.062791833247
738532.50839543330948799849,-11.3459425641652,-5.8714560380871,-300.05355998413
738532.50839552376419305801,-11.4013336588641,-6.12071596423231,-300.062791833247
738532.50839561421889811754,-11.4659566026795,-5.98223822748497,-299.988937040315
738532.50839570455718785524,-11.3736381115146,-6.07455671864986,-300.08125553148
738532.50839579501189291477,-11.493652150029,-5.99147007660146,-300.044328135014
738532.50839588546659797430,-11.5490432447279,-6.2130344553972,-299.998168889431
738532.50839597592130303383,-11.4844203009125,-5.98223822748497,-300.025864436781
738532.50839606637600809336,-11.4659566026795,-5.99147007660146,-300.062791833247
738532.50839615683071315289,-11.4844203009125,-6.1299478133488,-300.090487380596
738532.50839624728541821241,-11.475188451796,-5.96377452925199,-299.979705191198
738532.50839633762370795012,-11.4013336588641,-6.05609302041688,-300.08125553148
738532.50839642807841300964,-11.4197973570971,-5.88991973632008,-300.05355998413
738532.50839651853311806917,-11.5767387920774,-6.17610705893124,-299.970473342082
738532.50839660898782312870,-11.4197973570971,-5.88991973632008,-299.952009643849
738532.50839669944252818823,-11.2443922238838,-6.07455671864986,-299.915082247383
738532.50839678989723324776,-11.022827845088,-5.9545426801355,-299.878154850917
738532.50839688035193830729,-10.5335398419141,-6.00070192571795,-299.841227454451
738532.50839697069022804499,-10.5704672383801,-5.84376049073763,-299.878154850917
738532.50839706114493310452,-10.9766685995056,-6.2961210974456,-300.035096285897
738532.50839715159963816404,-11.2166966765343,-6.15764336069826,-300.025864436781
738532.50839724205434322357,-11.3551744132817,-6.13917966246528,-299.915082247383
738532.50839733250904828310,-11.4105655079806,-6.00070192571795,-299.942777794732
738532.50839742296375334263,-11.4290292062136,-6.09302041688284,-299.979705191198
738532.50839751330204308033,-11.475188451796,-6.00993377483444,-299.979705191198
738532.50839760375674813986,-11.512115848262,-6.11148411511582,-300.007400738548
738532.50839769421145319939,-11.4105655079806,-5.94531083101901,-299.988937040315
738532.50839778466615825891,-11.4844203009125,-6.04686117130039,-299.979705191198
738532.50839787512086331844,-11.4290292062136,-6.07455671864986,-300.007400738548
738532.50839796557556837797,-11.3921018097476,-5.86222418897061,-299.979705191198
738532.50839805603027343750,-11.475188451796,-6.1299478133488,-300.044328135014
738532.50839814636856317520,-11.4844203009125,-5.96377452925199,-299.961241492965
738532.50839823682326823473,-11.3644062623981,-6.00070192571795,-299.998168889431
738532.50839832727797329426,-11.3921018097476,-5.88068788720359,-300.007400738548
738532.50839841773267835379,-11.512115848262,-6.13917966246528,-300.044328135014
738532.50839850818738341331,-11.4197973570971,-5.90838343455306,-299.998168889431
738532.50839859864208847284,-11.4197973570971,-6.0376293221839,-300.044328135014
738532.50839868909679353237,-11.4382610553301,-5.91761528366955,-300.016632587664
738532.50839877943508327007,-11.4197973570971,-6.00070192571795,-300.044328135014
738532.50839886988978832960,-11.3090151676992,-5.80683309427168,-299.970473342082
738532.50839896034449338913,-11.2536240730003,-5.81606494338816,-300.016632587664
738532.50839905079919844866,-11.4844203009125,-6.02839747306742,-300.044328135014
738532.50839914125390350819,-11.3459425641652,-5.90838343455306,-299.933545945616
738532.50839923170860856771,-11.3367107150487,-5.90838343455306,-300.016632587664
738532.50839932216331362724,-11.3921018097476,-5.92684713278603,-299.998168889431
738532.50839941250160336494,-11.3274788659322,-5.93607898190252,-299.998168889431
738532.50839950295630842447,-11.2166966765343,-5.74221015045625,-299.970473342082
738532.50839959341101348400,-11.2259285256508,-5.86222418897061,-300.016632587664
738532.50839968386571854353,-11.1982329783013,-5.69605090487381,-299.942777794732
738532.50839977432042360306,-11.2166966765343,-5.83452864162114,-299.905850398267
738532.50839986477512866259,-11.2720877712333,-5.77913754692221,-299.89661854915
738532.50839995522983372211,-11.2443922238838,-5.84376049073763,-299.915082247383
738532.50840004556812345982,-11.1428418836024,-5.66835535752434,-299.887386700034
738532.50840013602282851934,-11.1613055818354,-5.75144199957274,-299.961241492965
738532.50840022647753357887,-11.2259285256508,-5.76990569780572,-300.016632587664
738532.50840031693223863840,-11.2905514694662,-5.84376049073763,-300.016632587664
738532.50840040738694369793,-11.1982329783013,-5.77913754692221,-299.961241492965
738532.50840049784164875746,-11.3182470168157,-5.8714560380871,-299.970473342082
738532.50840058829635381699,-11.3182470168157,-5.91761528366955,-299.970473342082
738532.50840067863464355469,-11.3736381115146,-5.89915158543657,-299.961241492965
738532.50840076908934861422,-11.5028839991455,-6.1299478133488,-299.961241492965
738532.50840085954405367374,-11.4382610553301,-5.94531083101901,-299.952009643849
738532.50840094999875873327,-11.3644062623981,-6.00993377483444,-299.952009643849
738532.50840104045346379280,-11.3921018097476,-5.88991973632008,-300.016632587664
738532.50840113090816885233,-11.4290292062136,-6.08378856776635,-300.05355998413
738532.50840122136287391186,-11.456724753563,-5.94531083101901,-299.988937040315
738532.50840131170116364956,-11.3921018097476,-6.06532486953337,-300.05355998413
738532.50840140215586870909,-11.456724753563,-5.9545426801355,-300.062791833247
738532.50840149261057376862,-11.456724753563,-6.1299478133488,-300.05355998413
738532.50840158306527882814,-11.493652150029,-5.98223822748497,-299.970473342082
738532.50840167351998388767,-11.4844203009125,-6.0376293221839,-300.016632587664
738532.50840176397468894720,-11.4197973570971,-6.0376293221839,-300.062791833247
738532.50840185442939400673,-11.4197973570971,-5.96377452925199,-299.998168889431
738532.50840194476768374443,-11.3736381115146,-6.01916562395093,-300.025864436781
738532.50840203522238880396,-11.4105655079806,-5.96377452925199,-300.062791833247
738532.50840212567709386349,-11.3828699606311,-6.06532486953337,-300.05355998413
738532.50840221613179892302,-11.4197973570971,-5.9545426801355,-299.998168889431
738532.50840230658650398254,-11.4290292062136,-6.14841151158177,-300.05355998413
738532.50840239704120904207,-11.4474929044465,-5.98223822748497,-299.952009643849
738532.50840248749591410160,-11.3274788659322,-6.05609302041688,-299.988937040315
738532.50840257783420383930,-11.4105655079806,-5.94531083101901,-300.025864436781
738532.50840266828890889883,-11.475188451796,-6.19457075716422,-300.072023682363
738532.50840275874361395836,-11.3274788659322,-5.84376049073763,-300.044328135014
738532.50840284919831901789,-11.4474929044465,-6.13917966246528,-300.025864436781
738532.50840293965302407742,-11.512115848262,-6.00993377483444,-300.062791833247
738532.50840303010772913694,-11.4659566026795,-6.13917966246528,-300.072023682363
738532.50840312056243419647,-11.2813196203497,-5.7883693960387,-299.998168889431
738532.50840321090072393417,-11.5398113956114,-6.17610705893124,-300.062791833247
738532.50840330135542899370,-11.493652150029,-5.9545426801355,-300.08125553148
738532.50840339181013405323,-11.4197973570971,-5.98223822748497,-300.072023682363
738532.50840348226483911276,-11.4105655079806,-5.98223822748497,-300.025864436781
738532.50840357271954417229,-11.4474929044465,-5.84376049073763,-300.072023682363
738532.50840366317424923182,-11.5398113956114,-6.09302041688284,-300.072023682363
738532.50840375362895429134,-11.512115848262,-5.88991973632008,-299.970473342082
738532.50840384396724402905,-11.4105655079806,-5.9545426801355,-300.044328135014
738532.50840393442194908857,-11.3921018097476,-5.72374645222327,-299.998168889431
738532.50840402487665414810,-11.5582750938444,-6.04686117130039,-300.007400738548
738532.50840411533135920763,-11.4844203009125,-5.81606494338816,-299.988937040315
738532.50840420578606426716,-11.512115848262,-6.00070192571795,-300.016632587664
738532.50840429624076932669,-11.4844203009125,-5.81606494338816,-299.89661854915
738532.50840438669547438622,-11.456724753563,-5.96377452925199,-299.915082247383
738532.50840447703376412392,-11.4382610553301,-5.86222418897061,-299.998168889431
738532.50840456748846918344,-11.3828699606311,-5.97300637836848,-300.016632587664
738532.50840465794317424297,-11.5213476973785,-6.02839747306742,-299.988937040315
738532.50840474839787930250,-11.5213476973785,-6.10225226599933,-300.016632587664
738532.50840483885258436203,-11.4474929044465,-5.98223822748497,-300.007400738548
738532.50840492930728942156,-11.4013336588641,-5.99147007660146,-299.979705191198
738532.50840501976199448109,-11.3921018097476,-5.91761528366955,-299.998168889431
738532.50840511010028421879,-11.493652150029,-5.92684713278603,-299.942777794732
738532.50840520055498927832,-11.3828699606311,-5.81606494338816,-299.9243140965
738532.50840529100969433784,-11.4382610553301,-5.79760124515519,-299.9243140965
738532.50840538146439939737,-11.4474929044465,-5.89915158543657,-299.933545945616
738532.50840547191910445690,-11.4197973570971,-5.75144199957274,-299.933545945616
738532.50840556237380951643,-11.2997833185827,-5.76990569780572,-299.942777794732
738532.50840565282851457596,-11.2813196203497,-5.65912350840785,-299.9243140965
738532.50840574316680431366,-11.4290292062136,-5.93607898190252,-299.961241492965
738532.50840583362150937319,-11.3828699606311,-5.76990569780572,-299.961241492965
738532.50840592407621443272,-11.4105655079806,-5.88991973632008,-299.988937040315
738532.50840601453091949224,-11.4290292062136,-5.85299233985412,-299.988937040315
738532.50840610498562455177,-11.5028839991455,-6.00070192571795,-299.970473342082
738532.50840619544032961130,-11.4105655079806,-5.91761528366955,-299.961241492965
738532.50840628589503467083,-11.4290292062136,-5.97300637836848,-299.970473342082
738532.50840637623332440853,-11.4382610553301,-6.02839747306742,-299.988937040315
738532.50840646668802946806,-11.5213476973785,-6.09302041688284,-300.044328135014
738532.50840655714273452759,-11.4013336588641,-6.05609302041688,-299.952009643849
738532.50840664759743958712,-11.4197973570971,-6.00070192571795,-299.988937040315
738532.50840673805214464664,-11.5675069429609,-6.19457075716422,-299.979705191198
738532.50840682850684970617,-11.475188451796,-5.99147007660146,-300.016632587664
738532.50840691896155476570,-11.4197973570971,-6.04686117130039,-300.044328135014
738532.50840700929984450340,-11.5398113956114,-5.99147007660146,-299.998168889431
738532.50840709975454956293,-11.493652150029,-6.12071596423231,-300.044328135014
738532.50840719020925462246,-11.3090151676992,-5.93607898190252,-300.025864436781
738532.50840728066395968199,-11.0874507889035,-5.9545426801355,-299.998168889431
738532.50840737111866474152,-10.5243079927976,-5.67758720664083,-299.878154850917
738532.50840746157336980104,-10.3858302560503,-5.7883693960387,-299.915082247383
738532.50840755202807486057,-10.8751182592242,-6.00993377483444,-300.016632587664
738532.50840764236636459827,-11.2351603747673,-6.31458479567858,-300.007400738548
738532.50840773282106965780,-11.4197973570971,-6.23149815363018,-300.08125553148
738532.50840782327577471733,-11.4382610553301,-6.06532486953337,-299.979705191198
738532.50840791373047977686,-11.3921018097476,-6.0376293221839,-299.89661854915
738532.50840800418518483639,-11.3459425641652,-5.89915158543657,-299.988937040315
738532.50840809463988989592,-11.493652150029,-6.1299478133488,-300.05355998413
738532.50840818509459495544,-11.456724753563,-5.96377452925199,-300.035096285897
738532.50840827543288469315,-11.3921018097476,-6.01916562395093,-300.007400738548
738532.50840836588758975267,-11.456724753563,-5.94531083101901,-300.044328135014
738532.50840845634229481220,-11.3182470168157,-5.9545426801355,-300.044328135014
738532.50840854679699987173,-11.5028839991455,-5.98223822748497,-300.007400738548
738532.50840863725170493126,-11.512115848262,-6.12071596423231,-299.961241492965
738532.50840872770640999079,-11.4105655079806,-5.89915158543657,-299.905850398267
738532.50840881816111505032,-11.3921018097476,-6.01916562395093,-299.961241492965
738532.50840890849940478802,-11.4105655079806,-5.89915158543657,-299.878154850917
738532.50840899895410984755,-11.4197973570971,-6.00070192571795,-299.868923001801
738532.50840908940881490707,-11.3551744132817,-5.83452864162114,-299.905850398267
738532.50840917986351996660,-11.3644062623981,-5.86222418897061,-299.905850398267
738532.50840927031822502613,-11.3644062623981,-5.94531083101901,-299.905850398267
738532.50840936077293008566,-11.4197973570971,-5.90838343455306,-299.89661854915
738532.50840945122763514519,-11.3921018097476,-6.00070192571795,-299.89661854915
738532.50840954156592488289,-11.2166966765343,-5.70528275399029,-299.905850398267
738532.50840963202062994242,-11.3182470168157,-5.94531083101901,-299.952009643849
738532.50840972247533500195,-11.4105655079806,-5.90838343455306,-299.933545945616
738532.50840981293004006147,-11.3182470168157,-5.94531083101901,-299.970473342082
738532.50840990338474512100,-11.2905514694662,-5.77913754692221,-299.952009643849
738532.50840999383945018053,-11.3090151676992,-5.89915158543657,-299.979705191198
738532.50841008429415524006,-11.2074648274178,-5.70528275399029,-299.915082247383
738532.50841017463244497776,-11.078218939787,-5.71451460310678,-299.979705191198
738532.50841026508715003729,-11.2166966765343,-5.70528275399029,-299.878154850917
738532.50841035554185509682,-11.1613055818354,-5.75144199957274,-299.9243140965
738532.50841044599656015635,-11.1982329783013,-5.69605090487381,-299.933545945616
738532.50841053645126521587,-11.059755241554,-5.65912350840785,-299.942777794732
738532.50841062690597027540,-11.078218939787,-5.59450056459243,-299.952009643849
738532.50841071736067533493,-11.2997833185827,-5.88068788720359,-299.988937040315
738532.50841080769896507263,-11.2536240730003,-5.77913754692221,-299.942777794732
738532.50841089815367013216,-11.2074648274178,-5.79760124515519,-299.878154850917
738532.50841098860837519169,-11.2443922238838,-5.90838343455306,-299.933545945616
738532.50841107906308025122,-11.3090151676992,-5.83452864162114,-299.9243140965
738532.50841116951778531075,-11.2905514694662,-5.93607898190252,-300.016632587664
738532.50841125997249037027,-11.2536240730003,-5.76990569780572,-299.979705191198
738532.50841135042719542980,-11.4013336588641,-6.05609302041688,-299.933545945616
738532.50841144076548516750,-11.4382610553301,-5.98223822748497,-299.89661854915
738532.50841153122019022703,-11.3921018097476,-6.02839747306742,-300.044328135014
738532.50841162167489528656,-11.3182470168157,-5.84376049073763,-299.961241492965
738532.50841171212960034609,-11.3644062623981,-5.98223822748497,-300.016632587664
738532.50841180258430540562,-11.2905514694662,-5.85299233985412,-300.025864436781
738532.50841189303901046515,-11.3459425641652,-5.9545426801355,-300.025864436781
738532.50841198349371552467,-11.3921018097476,-5.9545426801355,-299.915082247383
738532.50841207383200526237,-11.3828699606311,-5.98223822748497,-299.933545945616
738532.50841216428671032190,-11.3090151676992,-5.91761528366955,-299.942777794732
738532.50841225474141538143,-11.3644062623981,-5.96377452925199,-299.89661854915
738532.50841234519612044096,-11.2720877712333,-5.91761528366955,-299.933545945616
738532.50841243565082550049,-11.2259285256508,-5.79760124515519,-299.979705191198
738532.50841252610553056002,-11.3551744132817,-5.99147007660146,-299.952009643849
738532.50841261656023561954,-11.4197973570971,-5.99147007660146,-300.007400738548
738532.50841270689852535725,-11.3274788659322,-6.00070192571795,-300.007400738548
738532.50841279735323041677,-11.3459425641652,-5.89915158543657,-299.988937040315
738532.50841288780793547630,-11.4105655079806,-6.04686117130039,-299.952009643849
738532.50841297826264053583,-11.3828699606311,-5.9545426801355,-299.988937040315
738532.50841306871734559536,-11.3367107150487,-5.86222418897061,-300.007400738548
738532.50841315917205065489,-11.3182470168157,-5.85299233985412,-299.952009643849
738532.50841324962675571442,-11.4105655079806,-6.0376293221839,-299.961241492965
738532.50841333996504545212,-11.3459425641652,-5.96377452925199,-299.942777794732
738532.50841343041975051165,-11.2997833185827,-5.90838343455306,-299.961241492965
738532.50841352087445557117,-11.3551744132817,-5.96377452925199,-299.970473342082
738532.50841361132916063070,-11.4013336588641,-5.97300637836848,-299.942777794732
738532.50841370178386569023,-11.2813196203497,-5.88991973632008,-299.988937040315
738532.50841379223857074976,-11.3367107150487,-5.89915158543657,-299.9243140965
738532.50841388269327580929,-11.3090151676992,-5.96377452925199,-299.942777794732
738532.50841397303156554699,-11.3736381115146,-5.92684713278603,-299.9243140965
738532.50841406348627060652,-11.3736381115146,-6.01916562395093,-299.961241492965
738532.50841415394097566605,-11.3182470168157,-5.8714560380871,-299.961241492965
738532.50841424439568072557,-11.3644062623981,-6.00993377483444,-299.970473342082
738532.50841433485038578510,-11.4290292062136,-5.9545426801355,-299.998168889431
738532.50841442530509084463,-11.4105655079806,-6.10225226599933,-300.05355998413
738532.50841451575979590416,-11.3551744132817,-5.8714560380871,-299.878154850917
738532.50841460609808564186,-11.3459425641652,-5.98223822748497,-299.979705191198
738532.50841469655279070139,-11.3274788659322,-5.8714560380871,-299.988937040315
738532.50841478700749576092,-11.3182470168157,-5.91761528366955,-299.979705191198
738532.50841487746220082045,-11.2628559221168,-5.91761528366955,-299.887386700034
738532.50841496791690587997,-11.3090151676992,-5.91761528366955,-299.850459303568
738532.50841505837161093950,-11.1982329783013,-5.88991973632008,-299.961241492965
738532.50841514882631599903,-11.2166966765343,-5.84376049073763,-299.961241492965
738532.50841523916460573673,-11.3551744132817,-6.09302041688284,-300.025864436781
738532.50841532961931079626,-11.3274788659322,-5.94531083101901,-299.988937040315
738532.50841542007401585579,-11.2720877712333,-6.00070192571795,-299.979705191198
738532.50841551052872091532,-11.2443922238838,-5.85299233985412,-299.988937040315
738532.50841560098342597485,-11.2628559221168,-5.99147007660146,-300.025864436781
738532.50841569143813103437,-11.3367107150487,-5.93607898190252,-300.025864436781
738532.50841578189283609390,-11.2351603747673,-5.99147007660146,-299.979705191198
738532.50841587223112583160,-11.2443922238838,-5.81606494338816,-299.979705191198
738532.50841596268583089113,-11.456724753563,-6.15764336069826,-300.035096285897
738532.50841605314053595066,-11.4013336588641,-5.98223822748497,-299.988937040315
738532.50841614359524101019,-11.4197973570971,-6.12071596423231,-299.970473342082
738532.50841623404994606972,-11.3459425641652,-5.97300637836848,-299.942777794732
738532.50841632450465112925,-11.3551744132817,-6.05609302041688,-299.942777794732
738532.50841641495935618877,-11.3367107150487,-5.93607898190252,-299.952009643849
738532.50841650529764592648,-11.3551744132817,-6.0376293221839,-299.979705191198
738532.50841659575235098600,-11.3459425641652,-5.98223822748497,-300.025864436781
738532.50841668620705604553,-11.3459425641652,-5.94531083101901,-299.979705191198
738532.50841677666176110506,-11.4474929044465,-6.10225226599933,-300.062791833247
738532.50841686711646616459,-11.3736381115146,-5.9545426801355,-300.016632587664
738532.50841695757117122412,-11.1336100344859,-6.01916562395093,-300.007400738548
738532.50841704802587628365,-10.6904812768944,-5.72374645222327,-299.942777794732
738532.50841713836416602135,-10.4042939542833,-5.92684713278603,-299.933545945616
738532.50841722881887108088,-10.5520035401471,-5.7883693960387,-299.998168889431
738532.50841731927357614040,-10.9489730521561,-6.26842555009613,-300.072023682363
738532.50841740972828119993,-11.1613055818354,-6.16687520981475,-300.118182927946
738532.50841750018298625946,-11.3459425641652,-6.18533890804773,-300.099719229713
738532.50841759063769131899,-11.2813196203497,-5.94531083101901,-300.007400738548
738532.50841768109239637852,-11.4013336588641,-6.11148411511582,-299.887386700034
738532.50841777143068611622,-11.3459425641652,-5.97300637836848,-299.952009643849
738532.50841786188539117575,-11.3551744132817,-5.97300637836848,-300.007400738548
738532.50841795234009623528,-11.3367107150487,-5.88991973632008,-300.007400738548
738532.50841804279480129480,-11.3182470168157,-5.91761528366955,-300.035096285897
738532.50841813324950635433,-11.3090151676992,-5.8714560380871,-300.05355998413
738532.50841822370421141386,-11.2905514694662,-5.88068788720359,-299.970473342082
738532.50841831415891647339,-11.2259285256508,-5.84376049073763,-299.933545945616
738532.50841840449720621109,-11.1705374309519,-5.73297830133976,-299.952009643849
738532.50841849495191127062,-11.3274788659322,-5.98223822748497,-299.970473342082
738532.50841858540661633015,-11.3274788659322,-5.86222418897061,-299.979705191198
738532.50841867586132138968,-11.3551744132817,-6.00993377483444,-299.979705191198
738532.50841876631602644920,-11.3090151676992,-5.88068788720359,-299.970473342082
738532.50841885677073150873,-11.3551744132817,-6.02839747306742,-300.016632587664
738532.50841894722543656826,-11.2628559221168,-5.86222418897061,-299.952009643849
738532.50841903756372630596,-11.1890011291849,-5.84376049073763,-299.9243140965
738532.50841912801843136549,-11.2074648274178,-5.7883693960387,-299.942777794732
738532.50841921847313642502,-11.1797692800684,-5.7883693960387,-299.979705191198
738532.50841930892784148455,-11.2720877712333,-5.89915158543657,-299.970473342082
738532.50841939938254654408,-11.2628559221168,-5.88991973632008,-299.961241492965
738532.50841948983725160360,-11.1613055818354,-5.81606494338816,-299.970473342082
738532.50841958029195666313,-11.2720877712333,-5.93607898190252,-299.961241492965
738532.50841967063024640083,-11.2166966765343,-5.88991973632008,-300.044328135014
738532.50841976108495146036,-11.1890011291849,-5.7883693960387,-299.979705191198
738532.50841985153965651989,-11.1336100344859,-5.81606494338816,-300.007400738548
738532.50841994199436157942,-11.1520737327189,-5.74221015045625,-299.988937040315
738532.50842003244906663895,-11.1428418836024,-5.82529679250465,-299.998168889431
738532.50842012290377169847,-10.9674367503891,-5.52064577166051,-299.970473342082
738532.50842021335847675800,-10.9766685995056,-5.66835535752434,-299.942777794732
738532.50842030369676649570,-11.1059144871364,-5.67758720664083,-299.988937040315
738532.50842039415147155523,-11.1059144871364,-5.76990569780572,-299.998168889431
738532.50842048460617661476,-11.1982329783013,-5.83452864162114,-300.007400738548
738532.50842057506088167429,-11.1520737327189,-5.7883693960387,-299.979705191198
738532.50842066551558673382,-11.1797692800684,-5.82529679250465,-300.035096285897
738532.50842075597029179335,-11.2166966765343,-5.82529679250465,-300.007400738548
738532.50842084630858153105,-11.1705374309519,-5.85299233985412,-299.970473342082
738532.50842093676328659058,-11.2536240730003,-5.84376049073763,-300.044328135014
738532.50842102721799165010,-11.3644062623981,-6.0376293221839,-300.072023682363
738532.50842111767269670963,-11.2813196203497,-5.86222418897061,-299.952009643849
738532.50842120812740176916,-11.3459425641652,-6.00070192571795,-300.05355998413
738532.50842129858210682869,-11.3551744132817,-5.88991973632008,-300.044328135014
738532.50842138903681188822,-11.3090151676992,-5.97300637836848,-299.998168889431
738532.50842147937510162592,-11.3367107150487,-5.86222418897061,-300.016632587664
738532.50842156982980668545,-11.3551744132817,-6.00993377483444,-300.062791833247
738532.50842166028451174498,-11.3459425641652,-5.8714560380871,-300.007400738548
738532.50842175073921680450,-11.3090151676992,-5.97300637836848,-299.970473342082
738532.50842184119392186403,-11.2720877712333,-5.79760124515519,-299.942777794732
738532.50842193164862692356,-11.2813196203497,-5.93607898190252,-299.785836359752
738532.50842202210333198309,-11.2813196203497,-5.81606494338816,-299.850459303568
