time_dn,ecg_projection_ll_ra_mV,ecg_projection_la_ra_mV,ecg_projection_vx_rl_mV
738532.49841080524493008852,-19.0176091799676,-6.45306253242592,-300.275124362926
738532.49841089569963514805,-18.9899136326182,-6.41613513595996,-300.293588061159
738532.49841098615434020758,-19.0083773308512,-6.43459883419294,-300.302819910276
738532.49841107660904526711,-18.8329721976379,-6.26842555009613,-300.23819696646
738532.49841116706375032663,-19.0176091799676,-6.44383068330943,-300.312051759392
738532.49841125751845538616,-18.9437543870357,-6.41613513595996,-300.302819910276
738532.49841134797316044569,-18.9068269905698,-6.35151219214454,-300.26589251381
738532.49841143842786550522,-19.0176091799676,-6.48998992889187,-300.284356212043
738532.49841152888257056475,-18.9714499343852,-6.379207739494,-300.256660664693
738532.49841161933727562428,-18.9991454817347,-6.4622943815424,-300.339747306742
738532.49841170979198068380,-18.9714499343852,-6.36997589037751,-300.312051759392
738532.49841180036310106516,-18.8606677449873,-6.35151219214454,-300.127414777062
738532.49841189081780612469,-19.0176091799676,-6.41613513595996,-300.210501419111
738532.49841198127251118422,-19.0360728782006,-6.54538102359081,-300.312051759392
738532.49841207172721624374,-18.8975951414533,-6.30535294656209,-300.26589251381
738532.49841216218192130327,-18.9160588396863,-6.4622943815424,-300.330515457625
738532.49841225263662636280,-19.0822321237831,-6.50845362712485,-300.293588061159
738532.49841234309133142233,-19.0176091799676,-6.52691732535783,-300.275124362926
738532.49841243354603648186,-18.9160588396863,-6.35151219214454,-300.275124362926
738532.49841252400074154139,-18.8514358958708,-6.31458479567858,-300.284356212043
738532.49841261445544660091,-18.9991454817347,-6.52691732535783,-300.330515457625
738532.49841270491015166044,-19.0176091799676,-6.4622943815424,-300.26589251381
738532.49841279548127204180,-18.9991454817347,-6.51768547624134,-300.330515457625
738532.49841288593597710133,-19.0083773308512,-6.42536698507645,-300.321283608509
738532.49841297639068216085,-18.9345225379192,-6.4622943815424,-300.228965117344
738532.49841306684538722038,-18.9714499343852,-6.38843958861049,-300.228965117344
738532.49841315730009227991,-19.0730002746666,-6.58230842005676,-300.247428815577
738532.49841324775479733944,-18.9345225379192,-6.379207739494,-300.201269569994
738532.49841333820950239897,-18.9529862361522,-6.47152623065889,-300.23819696646
738532.49841342866420745850,-18.9991454817347,-6.38843958861049,-300.284356212043
738532.49841351911891251802,-19.0083773308512,-6.51768547624134,-300.330515457625
738532.49841360957361757755,-18.8975951414533,-6.31458479567858,-300.275124362926
738532.49841370014473795891,-19.0360728782006,-6.5546128727073,-300.358211004975
738532.49841379059944301844,-19.0730002746666,-6.47152623065889,-300.275124362926
738532.49841388105414807796,-19.0453047273171,-6.54538102359081,-300.256660664693
738532.49841397150885313749,-18.9160588396863,-6.30535294656209,-300.26589251381
738532.49841406196355819702,-18.9714499343852,-6.47152623065889,-300.23819696646
738532.49841415241826325655,-19.0545365764336,-6.48075807977538,-300.23819696646
738532.49841424287296831608,-18.9252906888028,-6.40690328684347,-300.228965117344
738532.49841433332767337561,-19.0730002746666,-6.53614917447432,-300.23819696646
738532.49841442378237843513,-19.0637684255501,-6.50845362712485,-300.219733268227
738532.49841451423708349466,-18.9345225379192,-6.49922177800836,-300.228965117344
738532.49841460469178855419,-18.9437543870357,-6.38843958861049,-300.228965117344
738532.49841469526290893555,-18.9806817835017,-6.53614917447432,-300.247428815577
738532.49841478571761399508,-18.8237403485214,-6.27765739921262,-300.219733268227
738532.49841487617231905460,-18.8329721976379,-6.38843958861049,-300.247428815577
738532.49841496662702411413,-18.8698995941038,-6.34228034302805,-300.228965117344
738532.49841505708172917366,-18.8422040467544,-6.379207739494,-300.23819696646
738532.49841514753643423319,-19.0545365764336,-6.48998992889187,-300.256660664693
738532.49841523799113929272,-19.0545365764336,-6.58230842005676,-300.256660664693
738532.49841532844584435225,-18.9991454817347,-6.42536698507645,-300.136646626179
738532.49841541890054941177,-19.0545365764336,-6.53614917447432,-300.210501419111
738532.49841550935525447130,-19.1099276711325,-6.5546128727073,-300.275124362926
738532.49841559980995953083,-19.0545365764336,-6.5546128727073,-300.256660664693
738532.49841569038107991219,-18.9991454817347,-6.47152623065889,-300.256660664693
738532.49841578083578497171,-18.9899136326182,-6.4622943815424,-300.312051759392
738532.49841587129049003124,-18.8791314432203,-6.379207739494,-300.321283608509
738532.49841596174519509077,-19.0176091799676,-6.48998992889187,-300.302819910276
738532.49841605219990015030,-19.0176091799676,-6.53614917447432,-300.275124362926
738532.49841614265460520983,-19.0637684255501,-6.51768547624134,-300.312051759392
738532.49841623310931026936,-19.0914639728996,-6.54538102359081,-300.302819910276
738532.49841632356401532888,-19.0545365764336,-6.47152623065889,-300.293588061159
738532.49841641401872038841,-18.8975951414533,-6.59154026917325,-300.321283608509
738532.49841650447342544794,-18.4821619312113,-6.44383068330943,-300.247428815577
738532.49841659504454582930,-17.9467146824549,-6.33304849391156,-300.210501419111
738532.49841668549925088882,-18.0205694753868,-6.34228034302805,-300.23819696646
738532.49841677595395594835,-18.4729300820948,-6.67462691122166,-300.348979155858
738532.49841686640866100788,-18.6483352153081,-6.53614917447432,-300.348979155858
738532.49841695686336606741,-19.1006958220161,-6.73924985503708,-300.293588061159
738532.49841704731807112694,-19.0268410290841,-6.60077211828974,-300.330515457625
738532.49841713777277618647,-18.8975951414533,-6.39767143772698,-300.330515457625
738532.49841722822748124599,-19.0360728782006,-6.5546128727073,-300.275124362926
738532.49841731868218630552,-19.0360728782006,-6.51768547624134,-300.284356212043
738532.49841740913689136505,-19.0545365764336,-6.58230842005676,-300.247428815577
738532.49841749959159642458,-18.9714499343852,-6.41613513595996,-300.201269569994
738532.49841759016271680593,-18.8883632923368,-6.41613513595996,-300.228965117344
738532.49841768061742186546,-18.9345225379192,-6.36997589037751,-300.219733268227
738532.49841777107212692499,-19.0545365764336,-6.58230842005676,-300.275124362926
738532.49841786152683198452,-18.9437543870357,-6.379207739494,-300.312051759392
738532.49841795198153704405,-18.9806817835017,-6.51768547624134,-300.210501419111
738532.49841804243624210358,-18.9622180852687,-6.38843958861049,-300.155110324412
738532.49841813289094716311,-19.0176091799676,-6.5546128727073,-300.228965117344
738532.49841822334565222263,-18.9714499343852,-6.47152623065889,-300.247428815577
738532.49841831380035728216,-18.8514358958708,-6.33304849391156,-300.210501419111
738532.49841840425506234169,-19.0268410290841,-6.53614917447432,-300.256660664693
738532.49841849470976740122,-18.9899136326182,-6.4622943815424,-300.247428815577
738532.49841858528088778257,-18.8329721976379,-6.36074404126102,-300.275124362926
738532.49841867573559284210,-18.8698995941038,-6.33304849391156,-300.210501419111
738532.49841876619029790163,-18.8791314432203,-6.42536698507645,-300.228965117344
738532.49841885664500296116,-18.9806817835017,-6.43459883419294,-300.136646626179
738532.49841894709970802069,-18.9068269905698,-6.44383068330943,-300.136646626179
738532.49841903755441308022,-18.8698995941038,-6.30535294656209,-300.201269569994
738532.49841912800911813974,-18.8422040467544,-6.40690328684347,-300.210501419111
738532.49841921846382319927,-18.7498855555895,-6.20380260628071,-300.173574022645
738532.49841930891852825880,-18.8145084994049,-6.36997589037751,-300.228965117344
738532.49841939937323331833,-18.8237403485214,-6.26842555009613,-300.228965117344
738532.49841948982793837786,-18.685262611774,-6.24996185186316,-300.26589251381
738532.49841958039905875921,-18.759117404706,-6.20380260628071,-300.219733268227
738532.49841967085376381874,-18.685262611774,-6.22226630451369,-300.219733268227
738532.49841976130846887827,-18.703726310007,-6.19457075716422,-300.256660664693
738532.49841985176317393780,-18.740653706473,-6.31458479567858,-300.256660664693
738532.49841994221787899733,-18.7960448011719,-6.26842555009613,-300.201269569994
738532.49842003267258405685,-18.8052766502884,-6.36074404126102,-300.247428815577
738532.49842012312728911638,-18.8698995941038,-6.44383068330943,-300.302819910276
738532.49842021358199417591,-18.8791314432203,-6.36997589037751,-300.312051759392
738532.49842030403669923544,-18.9252906888028,-6.51768547624134,-300.330515457625
738532.49842039449140429497,-18.9806817835017,-6.45306253242592,-300.23819696646
738532.49842048506252467632,-18.9437543870357,-6.53614917447432,-300.312051759392
738532.49842057551722973585,-18.9529862361522,-6.43459883419294,-300.312051759392
738532.49842066597193479538,-18.9252906888028,-6.50845362712485,-300.284356212043
738532.49842075642663985491,-18.9068269905698,-6.38843958861049,-300.302819910276
738532.49842084688134491444,-18.9899136326182,-6.58230842005676,-300.247428815577
738532.49842093733604997396,-18.9345225379192,-6.43459883419294,-300.228965117344
738532.49842102779075503349,-19.0083773308512,-6.58230842005676,-300.228965117344
738532.49842111824546009302,-18.8975951414533,-6.38843958861049,-300.219733268227
738532.49842120870016515255,-18.9991454817347,-6.56384472182379,-300.256660664693
738532.49842129915487021208,-18.9529862361522,-6.48075807977538,-300.293588061159
738532.49842138960957527161,-19.0360728782006,-6.61000396740623,-300.321283608509
738532.49842148018069565296,-18.9437543870357,-6.48075807977538,-300.321283608509
738532.49842157063540071249,-18.9529862361522,-6.49922177800836,-300.339747306742
738532.49842166109010577202,-18.8698995941038,-6.39767143772698,-300.247428815577
738532.49842175154481083155,-18.9068269905698,-6.44383068330943,-300.284356212043
738532.49842184199951589108,-19.0637684255501,-6.61923581652272,-300.302819910276
738532.49842193245422095060,-19.0268410290841,-6.52691732535783,-300.284356212043
738532.49842202290892601013,-19.0083773308512,-6.59154026917325,-300.302819910276
738532.49842211336363106966,-18.9714499343852,-6.45306253242592,-300.284356212043
738532.49842220381833612919,-18.9991454817347,-6.59154026917325,-300.302819910276
738532.49842229427304118872,-18.9714499343852,-6.47152623065889,-300.284356212043
738532.49842238472774624825,-19.0268410290841,-6.60077211828974,-300.23819696646
738532.49842247529886662960,-18.9991454817347,-6.51768547624134,-300.192037720878
738532.49842256575357168913,-18.9345225379192,-6.49922177800836,-300.23819696646
738532.49842265620827674866,-18.9899136326182,-6.52691732535783,-300.312051759392
738532.49842274666298180819,-19.0822321237831,-6.62846766563921,-300.321283608509
738532.49842283711768686771,-19.0453047273171,-6.5546128727073,-300.293588061159
738532.49842292757239192724,-18.9806817835017,-6.51768547624134,-300.275124362926
738532.49842301802709698677,-18.9437543870357,-6.48075807977538,-300.293588061159
738532.49842310848180204630,-19.0360728782006,-6.54538102359081,-300.293588061159
738532.49842319893650710583,-19.0268410290841,-6.58230842005676,-300.256660664693
738532.49842328939121216536,-18.9899136326182,-6.48998992889187,-300.293588061159
738532.49842337996233254671,-18.9806817835017,-6.54538102359081,-300.247428815577
738532.49842347041703760624,-18.8791314432203,-6.379207739494,-300.23819696646
738532.49842356087174266577,-18.9345225379192,-6.52691732535783,-300.312051759392
738532.49842365132644772530,-19.0360728782006,-6.50845362712485,-300.23819696646
738532.49842374178115278482,-19.0453047273171,-6.61923581652272,-300.284356212043
738532.49842383223585784435,-18.9899136326182,-6.50845362712485,-300.312051759392
738532.49842392269056290388,-19.0083773308512,-6.62846766563921,-300.293588061159
738532.49842401314526796341,-19.0176091799676,-6.6376995147557,-300.293588061159
738532.49842410359997302294,-18.9622180852687,-6.59154026917325,-300.26589251381
738532.49842419405467808247,-19.0730002746666,-6.73924985503708,-300.275124362926
738532.49842428450938314199,-19.0268410290841,-6.68385876033815,-300.302819910276
738532.49842437508050352335,-19.0360728782006,-6.71155430768761,-300.330515457625
738532.49842446553520858288,-19.0083773308512,-6.6376995147557,-300.376674703207
738532.49842455598991364241,-18.8329721976379,-6.52691732535783,-300.348979155858
738532.49842464644461870193,-18.8883632923368,-6.51768547624134,-300.302819910276
738532.49842473689932376146,-19.1099276711325,-6.83156834620197,-300.358211004975
738532.49842482735402882099,-18.9252906888028,-6.57307657094027,-300.339747306742
738532.49842491780873388052,-18.9160588396863,-6.66539506210517,-300.26589251381
738532.49842500826343894005,-18.8791314432203,-6.53614917447432,-300.330515457625
738532.49842509871814399958,-18.9437543870357,-6.7207861568041,-300.367442854091
738532.49842518917284905910,-18.8975951414533,-6.52691732535783,-300.275124362926
738532.49842527962755411863,-18.9068269905698,-6.6376995147557,-300.321283608509
738532.49842537019867449999,-19.0360728782006,-6.65616321298868,-300.358211004975
738532.49842546065337955952,-19.1006958220161,-6.85003204443495,-300.348979155858
738532.49842555110808461905,-19.0637684255501,-6.7207861568041,-300.321283608509
738532.49842564156278967857,-19.119159520249,-6.85003204443495,-300.367442854091
738532.49842573201749473810,-19.0176091799676,-6.7207861568041,-300.385906552324
738532.49842582247219979763,-19.1099276711325,-6.73001800592059,-300.284356212043
738532.49842591292690485716,-19.0545365764336,-6.76694540238655,-300.284356212043
738532.49842600338160991669,-19.0637684255501,-6.68385876033815,-300.192037720878
738532.49842609383631497622,-19.0914639728996,-6.81310464796899,-300.321283608509
738532.49842618429102003574,-18.9991454817347,-6.61000396740623,-300.312051759392
738532.49842627474572509527,-19.137623218482,-6.86849574266793,-300.339747306742
738532.49842636531684547663,-19.0637684255501,-6.62846766563921,-300.247428815577
738532.49842645577155053616,-19.1099276711325,-6.76694540238655,-300.348979155858
738532.49842654622625559568,-18.9714499343852,-6.6376995147557,-300.312051759392
738532.49842663668096065521,-18.6021759697256,-6.6376995147557,-300.275124362926
738532.49842672713566571474,-18.2236701559496,-6.53614917447432,-300.192037720878
738532.49842681759037077427,-18.0574968718528,-6.69309060945463,-300.256660664693
738532.49842690804507583380,-18.4821619312113,-6.77617725150304,-300.330515457625
738532.49842699849978089333,-18.8052766502884,-7.07159642323069,-300.330515457625
738532.49842708895448595285,-18.9252906888028,-6.77617725150304,-300.358211004975
738532.49842717940919101238,-19.0360728782006,-6.83156834620197,-300.339747306742
738532.49842726998031139374,-18.9252906888028,-6.61923581652272,-300.256660664693
738532.49842736043501645327,-18.9899136326182,-6.66539506210517,-300.302819910276
738532.49842745088972151279,-18.9991454817347,-6.6376995147557,-300.321283608509
738532.49842754134442657232,-19.0453047273171,-6.69309060945463,-300.321283608509
738532.49842763179913163185,-19.119159520249,-6.82233649708548,-300.284356212043
738532.49842772225383669138,-19.1006958220161,-6.66539506210517,-300.321283608509
738532.49842781270854175091,-18.9806817835017,-6.6376995147557,-300.312051759392
738532.49842790316324681044,-19.0268410290841,-6.59154026917325,-300.302819910276
738532.49842799361795186996,-18.9252906888028,-6.58230842005676,-300.293588061159
738532.49842808407265692949,-19.0730002746666,-6.6376995147557,-300.302819910276
738532.49842817452736198902,-18.9714499343852,-6.61923581652272,-300.312051759392
738532.49842826509848237038,-18.9529862361522,-6.50845362712485,-300.228965117344
738532.49842835555318742990,-18.9714499343852,-6.61000396740623,-300.302819910276
738532.49842844600789248943,-18.9068269905698,-6.50845362712485,-300.293588061159
738532.49842853646259754896,-19.0914639728996,-6.71155430768761,-300.275124362926
738532.49842862691730260849,-18.9622180852687,-6.58230842005676,-300.302819910276
738532.49842871737200766802,-18.9899136326182,-6.61923581652272,-300.302819910276
738532.49842880782671272755,-18.9529862361522,-6.56384472182379,-300.247428815577
738532.49842889828141778708,-18.9899136326182,-6.58230842005676,-300.293588061159
738532.49842898873612284660,-18.8514358958708,-6.48075807977538,-300.284356212043
738532.49842907919082790613,-18.9068269905698,-6.49922177800836,-300.247428815577
738532.49842916964553296566,-18.9437543870357,-6.60077211828974,-300.173574022645
738532.49842926021665334702,-18.9252906888028,-6.50845362712485,-300.210501419111
738532.49842935067135840654,-18.72219000824,-6.379207739494,-300.210501419111
738532.49842944112606346607,-18.6944944608905,-6.26842555009613,-299.988937040315
738532.49842953158076852560,-18.7498855555895,-6.379207739494,-300.072023682363
738532.49842962203547358513,-18.8883632923368,-6.48075807977538,-300.247428815577
738532.49842971249017864466,-18.8698995941038,-6.49922177800836,-300.247428815577
738532.49842980294488370419,-18.685262611774,-6.28688924832911,-300.182805871761
738532.49842989339958876371,-18.7960448011719,-6.41613513595996,-300.247428815577
738532.49842998385429382324,-18.8145084994049,-6.4622943815424,-300.256660664693
738532.49843007430899888277,-18.8145084994049,-6.4622943815424,-300.228965117344
738532.49843016488011926413,-18.7960448011719,-6.44383068330943,-300.26589251381
738532.49843025533482432365,-18.7775811029389,-6.379207739494,-300.26589251381
738532.49843034578952938318,-18.7314218573565,-6.36074404126102,-300.247428815577
738532.49843043624423444271,-19.0268410290841,-6.61923581652272,-300.293588061159
738532.49843052669893950224,-18.9160588396863,-6.59154026917325,-300.312051759392
738532.49843061715364456177,-18.8975951414533,-6.48075807977538,-300.284356212043
738532.49843070760834962130,-18.9899136326182,-6.64693136387219,-300.302819910276
738532.49843079806305468082,-18.9345225379192,-6.48075807977538,-300.275124362926
738532.49843088851775974035,-19.0730002746666,-6.73001800592059,-300.330515457625
738532.49843097897246479988,-19.0268410290841,-6.56384472182379,-300.275124362926
738532.49843106942716985941,-18.9622180852687,-6.61923581652272,-300.284356212043
738532.49843115999829024076,-18.9622180852687,-6.48998992889187,-300.302819910276
738532.49843125045299530029,-19.0360728782006,-6.68385876033815,-300.312051759392
738532.49843134090770035982,-18.8883632923368,-6.42536698507645,-300.358211004975
738532.49843143136240541935,-18.9068269905698,-6.48075807977538,-300.256660664693
738532.49843152181711047888,-18.9714499343852,-6.57307657094027,-300.275124362926
738532.49843161227181553841,-19.0545365764336,-6.61000396740623,-300.293588061159
738532.49843170272652059793,-18.9437543870357,-6.57307657094027,-300.330515457625
738532.49843179318122565746,-18.8791314432203,-6.44383068330943,-300.247428815577
738532.49843188363593071699,-19.0360728782006,-6.69309060945463,-300.256660664693
738532.49843197409063577652,-19.1283913693655,-6.66539506210517,-300.23819696646
738532.49843206454534083605,-19.0545365764336,-6.70232245857112,-300.312051759392
738532.49843215511646121740,-19.0360728782006,-6.60077211828974,-300.302819910276
738532.49843224557116627693,-18.9899136326182,-6.66539506210517,-300.339747306742
738532.49843233602587133646,-18.8791314432203,-6.44383068330943,-300.293588061159
738532.49843242648057639599,-18.9714499343852,-6.6376995147557,-300.275124362926
738532.49843251693528145552,-18.9252906888028,-6.49922177800836,-300.201269569994
738532.49843260738998651505,-18.9899136326182,-6.61923581652272,-300.256660664693
738532.49843269784469157457,-18.9252906888028,-6.47152623065889,-300.284356212043
738532.49843278829939663410,-19.0914639728996,-6.7207861568041,-300.321283608509
738532.49843287875410169363,-19.0545365764336,-6.61000396740623,-300.26589251381
738532.49843296920880675316,-18.9068269905698,-6.51768547624134,-300.118182927946
738532.49843305966351181269,-19.0637684255501,-6.62846766563921,-300.256660664693
738532.49843315023463219404,-19.0822321237831,-6.67462691122166,-300.358211004975
738532.49843324068933725357,-19.0822321237831,-6.65616321298868,-300.348979155858
738532.49843333114404231310,-19.0637684255501,-6.60077211828974,-300.348979155858
738532.49843342159874737263,-18.9899136326182,-6.6376995147557,-300.348979155858
738532.49843351205345243216,-18.9345225379192,-6.49922177800836,-300.348979155858
738532.49843360250815749168,-19.0453047273171,-6.7207861568041,-300.312051759392
738532.49843369296286255121,-19.1006958220161,-6.67462691122166,-300.358211004975
738532.49843378341756761074,-18.9252906888028,-6.61923581652272,-300.385906552324
738532.49843387387227267027,-18.8975951414533,-6.48075807977538,-300.330515457625
738532.49843396432697772980,-18.9806817835017,-6.66539506210517,-300.367442854091
738532.49843405489809811115,-19.0914639728996,-6.74848170415357,-300.358211004975
738532.49843414535280317068,-19.0730002746666,-6.75771355327006,-300.376674703207
738532.49843423580750823021,-19.0083773308512,-6.64693136387219,-300.339747306742
738532.49843432626221328974,-18.9529862361522,-6.62846766563921,-300.376674703207
738532.49843441671691834927,-18.9529862361522,-6.60077211828974,-300.385906552324
738532.49843450717162340879,-18.9991454817347,-6.68385876033815,-300.348979155858
738532.49843459762632846832,-18.9714499343852,-6.65616321298868,-300.348979155858
738532.49843468808103352785,-18.9437543870357,-6.61923581652272,-300.26589251381
738532.49843477853573858738,-19.0268410290841,-6.8038727988525,-300.312051759392
738532.49843486899044364691,-18.8514358958708,-6.58230842005676,-300.284356212043
738532.49843495944514870644,-19.0176091799676,-6.74848170415357,-300.302819910276
738532.49843505001626908779,-19.1468550675985,-6.81310464796899,-300.339747306742
738532.49843514047097414732,-18.9806817835017,-6.70232245857112,-300.385906552324
738532.49843523092567920685,-19.0453047273171,-6.68385876033815,-300.339747306742
738532.49843532138038426638,-19.0453047273171,-6.76694540238655,-300.376674703207
738532.49843541183508932590,-19.119159520249,-6.75771355327006,-300.358211004975
738532.49843550228979438543,-19.137623218482,-6.82233649708548,-300.330515457625
738532.49843559274449944496,-19.0730002746666,-6.73924985503708,-300.302819910276
738532.49843568319920450449,-18.8698995941038,-6.57307657094027,-300.293588061159
738532.49843577365390956402,-19.1930143131809,-6.87772759178442,-300.339747306742
738532.49843586410861462355,-19.1837824640645,-6.84080019531846,-300.358211004975
738532.49843595456331968307,-19.0360728782006,-6.70232245857112,-300.302819910276
738532.49843604513444006443,-19.0268410290841,-6.59154026917325,-300.330515457625
738532.49843613558914512396,-19.1468550675985,-6.75771355327006,-300.339747306742
738532.49843622604385018349,-19.0453047273171,-6.78540910061953,-300.293588061159
738532.49843631649855524302,-18.5098574785607,-6.65616321298868,-300.302819910276
738532.49843640695326030254,-18.0574968718528,-6.51768547624134,-300.228965117344
738532.49843649740796536207,-18.3344523453475,-6.67462691122166,-300.118182927946
738532.49843658786267042160,-18.6298715170751,-6.75771355327006,-300.284356212043
738532.49843667831737548113,-19.0268410290841,-6.98850978118229,-300.39513840144
738532.49843676877208054066,-19.137623218482,-6.85003204443495,-300.385906552324
738532.49843685922678560019,-18.9529862361522,-6.62846766563921,-300.312051759392
738532.49843694979790598154,-18.9991454817347,-6.5546128727073,-300.312051759392
738532.49843704025261104107,-19.1006958220161,-6.69309060945463,-300.302819910276
738532.49843713070731610060,-19.0730002746666,-6.62846766563921,-300.293588061159
738532.49843722116202116013,-19.119159520249,-6.65616321298868,-300.293588061159
738532.49843731161672621965,-19.1099276711325,-6.6376995147557,-300.284356212043
738532.49843740207143127918,-19.137623218482,-6.65616321298868,-300.312051759392
738532.49843749252613633871,-19.0545365764336,-6.61000396740623,-300.385906552324
738532.49843758298084139824,-18.8791314432203,-6.36074404126102,-300.367442854091
738532.49843767343554645777,-19.1930143131809,-6.70232245857112,-300.293588061159
738532.49843776389025151730,-19.1006958220161,-6.56384472182379,-300.348979155858
738532.49843785434495657682,-19.0453047273171,-6.5546128727073,-300.358211004975
738532.49843794491607695818,-19.0545365764336,-6.49922177800836,-300.302819910276
738532.49843803537078201771,-19.1006958220161,-6.61923581652272,-300.358211004975
738532.49843812582548707724,-19.0914639728996,-6.54538102359081,-300.376674703207
738532.49843821628019213676,-19.0268410290841,-6.54538102359081,-300.321283608509
738532.49843830673489719629,-19.0453047273171,-6.47152623065889,-300.312051759392
738532.49843839718960225582,-19.0453047273171,-6.57307657094027,-300.367442854091
738532.49843848764430731535,-19.0730002746666,-6.49922177800836,-300.367442854091
738532.49843857809901237488,-19.0176091799676,-6.52691732535783,-300.312051759392
738532.49843866855371743441,-18.9899136326182,-6.40690328684347,-300.330515457625
738532.49843875900842249393,-19.0176091799676,-6.51768547624134,-300.339747306742
738532.49843884946312755346,-18.8791314432203,-6.30535294656209,-300.23819696646
738532.49843894003424793482,-18.9806817835017,-6.48998992889187,-300.293588061159
738532.49843903048895299435,-18.9899136326182,-6.52691732535783,-300.321283608509
738532.49843912094365805387,-18.9714499343852,-6.40690328684347,-300.321283608509
738532.49843921139836311340,-18.8975951414533,-6.43459883419294,-300.247428815577
738532.49843930185306817293,-18.8606677449873,-6.28688924832911,-300.312051759392
738532.49843939230777323246,-18.9068269905698,-6.44383068330943,-300.312051759392
738532.49843948276247829199,-18.8606677449873,-6.32381664479507,-300.275124362926
738532.49843957321718335152,-18.7868129520554,-6.35151219214454,-300.312051759392
738532.49843966367188841105,-18.8329721976379,-6.28688924832911,-300.330515457625
738532.49843975412659347057,-18.9437543870357,-6.48075807977538,-300.284356212043
738532.49843984458129853010,-18.9991454817347,-6.42536698507645,-300.293588061159
738532.49843993515241891146,-19.0268410290841,-6.54538102359081,-300.348979155858
738532.49844002560712397099,-19.0083773308512,-6.42536698507645,-300.173574022645
738532.49844011606182903051,-19.0637684255501,-6.54538102359081,-300.23819696646
738532.49844020651653409004,-18.9437543870357,-6.36997589037751,-300.302819910276
738532.49844029697123914957,-19.1653187658315,-6.66539506210517,-300.367442854091
738532.49844038742594420910,-19.0730002746666,-6.53614917447432,-300.293588061159
738532.49844047788064926863,-19.0637684255501,-6.52691732535783,-300.358211004975
738532.49844056833535432816,-19.1283913693655,-6.61000396740623,-300.321283608509
738532.49844065879005938768,-19.1468550675985,-6.61000396740623,-300.339747306742
738532.49844074924476444721,-19.0914639728996,-6.59154026917325,-300.348979155858
738532.49844083981588482857,-19.0083773308512,-6.47152623065889,-300.321283608509
738532.49844093027058988810,-19.0268410290841,-6.5546128727073,-300.358211004975
738532.49844102072529494762,-19.0730002746666,-6.49922177800836,-300.367442854091
738532.49844111118000000715,-19.1653187658315,-6.66539506210517,-300.39513840144
738532.49844120163470506668,-19.1283913693655,-6.59154026917325,-300.376674703207
738532.49844129208941012621,-19.1099276711325,-6.62846766563921,-300.284356212043
738532.49844138254411518574,-19.0176091799676,-6.47152623065889,-300.293588061159
738532.49844147299882024527,-18.9991454817347,-6.50845362712485,-300.312051759392
738532.49844156345352530479,-19.1099276711325,-6.57307657094027,-300.302819910276
738532.49844165390823036432,-19.0545365764336,-6.53614917447432,-300.321283608509
738532.49844174436293542385,-19.137623218482,-6.61923581652272,-300.376674703207
738532.49844183493405580521,-18.9437543870357,-6.43459883419294,-300.376674703207
738532.49844192538876086473,-19.0822321237831,-6.61000396740623,-300.367442854091
738532.49844201584346592426,-19.2114780114139,-6.66539506210517,-300.385906552324
738532.49844210629817098379,-19.1099276711325,-6.61923581652272,-300.404370250557
738532.49844219675287604332,-19.1468550675985,-6.61000396740623,-300.339747306742
738532.49844228720758110285,-19.0914639728996,-6.62846766563921,-300.39513840144
738532.49844237766228616238,-19.119159520249,-6.56384472182379,-300.385906552324
738532.49844246811699122190,-19.1006958220161,-6.65616321298868,-300.376674703207
738532.49844255857169628143,-19.0453047273171,-6.49922177800836,-300.358211004975
738532.49844264902640134096,-19.0914639728996,-6.65616321298868,-300.441297647023
738532.49844273948110640049,-19.119159520249,-6.61000396740623,-300.39513840144
738532.49844283005222678185,-19.1099276711325,-6.60077211828974,-300.413602099673
738532.49844292050693184137,-18.9806817835017,-6.4622943815424,-300.348979155858
738532.49844301096163690090,-19.0453047273171,-6.52691732535783,-300.367442854091
738532.49844310141634196043,-19.1468550675985,-6.67462691122166,-300.441297647023
738532.49844319187104701996,-19.2299417096469,-6.71155430768761,-300.413602099673
738532.49844328232575207949,-19.1099276711325,-6.61000396740623,-300.302819910276
738532.49844337278045713902,-19.119159520249,-6.57307657094027,-300.385906552324
738532.49844346323516219854,-19.119159520249,-6.65616321298868,-300.459761345256
738532.49844355368986725807,-19.1283913693655,-6.59154026917325,-300.302819910276
738532.49844364414457231760,-18.9252906888028,-6.48075807977538,-300.284356212043
738532.49844373471569269896,-19.1099276711325,-6.57307657094027,-300.367442854091
738532.49844382517039775848,-19.174550614948,-6.73001800592059,-300.432065797906
738532.49844391562510281801,-19.0637684255501,-6.54538102359081,-300.339747306742
738532.49844400607980787754,-18.9622180852687,-6.54538102359081,-300.376674703207
738532.49844409653451293707,-19.137623218482,-6.6376995147557,-300.358211004975
738532.49844418698921799660,-19.0914639728996,-6.69309060945463,-300.385906552324
738532.49844427744392305613,-18.9899136326182,-6.48998992889187,-300.321283608509
738532.49844436789862811565,-19.0083773308512,-6.61923581652272,-300.339747306742
738532.49844445835333317518,-19.0360728782006,-6.49922177800836,-300.330515457625
738532.49844454880803823471,-19.1099276711325,-6.65616321298868,-300.404370250557
738532.49844463926274329424,-19.119159520249,-6.66539506210517,-300.339747306742
738532.49844472983386367559,-19.0914639728996,-6.58230842005676,-300.330515457625
738532.49844482028856873512,-19.0268410290841,-6.58230842005676,-300.348979155858
738532.49844491074327379465,-19.156086916715,-6.61000396740623,-300.293588061159
738532.49844500119797885418,-19.2484054078799,-6.8038727988525,-300.330515457625
738532.49844509165268391371,-19.1468550675985,-6.61000396740623,-300.321283608509
738532.49844518210738897324,-19.1283913693655,-6.7207861568041,-300.376674703207
738532.49844527256209403276,-19.174550614948,-6.62846766563921,-300.339747306742
738532.49844536301679909229,-19.174550614948,-6.73924985503708,-300.367442854091
738532.49844545347150415182,-19.0914639728996,-6.5546128727073,-300.330515457625
738532.49844554392620921135,-19.0730002746666,-6.62846766563921,-300.376674703207
738532.49844563438091427088,-19.174550614948,-6.58230842005676,-300.404370250557
738532.49844572495203465223,-19.1653187658315,-6.74848170415357,-300.42283394879
738532.49844581540673971176,-18.8329721976379,-6.61000396740623,-300.348979155858
738532.49844590586144477129,-18.306756797998,-6.50845362712485,-300.339747306742
738532.49844599631614983082,-17.9559465315714,-6.43459883419294,-300.358211004975
738532.49844608677085489035,-18.4544663838618,-6.71155430768761,-300.376674703207
738532.49844617722555994987,-18.7498855555895,-6.84080019531846,-300.450529496139
738532.49844626768026500940,-19.1099276711325,-6.92388683736686,-300.478225043489
738532.49844635813497006893,-19.1283913693655,-6.74848170415357,-300.478225043489
738532.49844644858967512846,-19.0453047273171,-6.61923581652272,-300.413602099673
738532.49844653904438018799,-19.0730002746666,-6.69309060945463,-300.450529496139
738532.49844662949908524752,-19.0914639728996,-6.59154026917325,-300.450529496139
738532.49844672007020562887,-19.1653187658315,-6.76694540238655,-300.441297647023
738532.49844681052491068840,-19.1099276711325,-6.58230842005676,-300.413602099673
738532.49844690097961574793,-19.0730002746666,-6.64693136387219,-300.42283394879
738532.49844699143432080746,-19.0545365764336,-6.54538102359081,-300.42283394879
738532.49844708188902586699,-19.1006958220161,-6.67462691122166,-300.302819910276
738532.49844717234373092651,-19.1653187658315,-6.64693136387219,-300.321283608509
738532.49844726279843598604,-19.137623218482,-6.66539506210517,-300.432065797906
738532.49844735325314104557,-19.0176091799676,-6.49922177800836,-300.385906552324
738532.49844744370784610510,-19.0914639728996,-6.61923581652272,-300.42283394879
738532.49844753416255116463,-19.0268410290841,-6.53614917447432,-300.432065797906
738532.49844762473367154598,-19.0360728782006,-6.5546128727073,-300.441297647023
738532.49844771518837660551,-19.137623218482,-6.64693136387219,-300.39513840144
738532.49844780564308166504,-19.0637684255501,-6.58230842005676,-300.413602099673
738532.49844789609778672457,-19.1006958220161,-6.68385876033815,-300.413602099673
738532.49844798655249178410,-19.0637684255501,-6.58230842005676,-300.339747306742
738532.49844807700719684362,-19.0176091799676,-6.5546128727073,-300.39513840144
738532.49844816746190190315,-18.8698995941038,-6.33304849391156,-300.293588061159
738532.49844825791660696268,-19.1099276711325,-6.66539506210517,-300.358211004975
738532.49844834837131202221,-18.9160588396863,-6.36997589037751,-300.321283608509
738532.49844843882601708174,-18.8145084994049,-6.34228034302805,-300.284356212043
738532.49844852928072214127,-19.0083773308512,-6.47152623065889,-300.348979155858
738532.49844861985184252262,-19.0360728782006,-6.57307657094027,-300.385906552324
738532.49844871030654758215,-18.9991454817347,-6.51768547624134,-300.321283608509
738532.49844880076125264168,-18.8883632923368,-6.45306253242592,-300.293588061159
738532.49844889121595770121,-18.8422040467544,-6.379207739494,-300.376674703207
738532.49844898167066276073,-18.759117404706,-6.28688924832911,-300.284356212043
738532.49844907212536782026,-18.7868129520554,-6.35151219214454,-300.284356212043
738532.49844916258007287979,-18.7314218573565,-6.25919370097964,-300.275124362926
738532.49844925303477793932,-18.72219000824,-6.32381664479507,-300.358211004975
738532.49844934348948299885,-18.9068269905698,-6.44383068330943,-300.275124362926
738532.49844943394418805838,-18.9622180852687,-6.56384472182379,-300.312051759392
738532.49844952439889311790,-18.9622180852687,-6.47152623065889,-300.26589251381
738532.49844961497001349926,-19.0268410290841,-6.61923581652272,-300.367442854091
738532.49844970542471855879,-19.0730002746666,-6.57307657094027,-300.312051759392
738532.49844979587942361832,-19.0914639728996,-6.70232245857112,-300.376674703207
738532.49844988633412867785,-19.1006958220161,-6.61000396740623,-300.39513840144
738532.49844997678883373737,-19.0360728782006,-6.61923581652272,-300.42283394879
738532.49845006724353879690,-19.0637684255501,-6.52691732535783,-300.404370250557
738532.49845015769824385643,-19.0083773308512,-6.59154026917325,-300.404370250557
738532.49845024815294891596,-18.9529862361522,-6.42536698507645,-300.432065797906
738532.49845033860765397549,-19.1006958220161,-6.60077211828974,-300.459761345256
738532.49845042906235903502,-19.2114780114139,-6.76694540238655,-300.42283394879
738532.49845051963347941637,-19.0730002746666,-6.5546128727073,-300.367442854091
738532.49845061008818447590,-18.9899136326182,-6.5546128727073,-300.376674703207
738532.49845070054288953543,-19.119159520249,-6.61923581652272,-300.321283608509
738532.49845079099759459496,-19.1099276711325,-6.70232245857112,-300.413602099673
738532.49845088145229965448,-19.0176091799676,-6.48998992889187,-300.413602099673
738532.49845097190700471401,-18.9714499343852,-6.56384472182379,-300.441297647023
738532.49845106236170977354,-18.9437543870357,-6.43459883419294,-300.385906552324
738532.49845115281641483307,-19.1837824640645,-6.76694540238655,-300.441297647023
738532.49845124327111989260,-19.2022461622974,-6.67462691122166,-300.432065797906
738532.49845133372582495213,-19.0730002746666,-6.68385876033815,-300.432065797906
738532.49845142418053001165,-19.0360728782006,-6.51768547624134,-300.385906552324
738532.49845151475165039301,-19.1653187658315,-6.74848170415357,-300.432065797906
738532.49845160520635545254,-19.0637684255501,-6.54538102359081,-300.39513840144
738532.49845169566106051207,-19.0176091799676,-6.59154026917325,-300.39513840144
738532.49845178611576557159,-19.0545365764336,-6.51768547624134,-300.432065797906
738532.49845187657047063112,-19.1006958220161,-6.6376995147557,-300.39513840144
738532.49845196702517569065,-19.1468550675985,-6.6376995147557,-300.367442854091
738532.49845205747988075018,-19.1099276711325,-6.6376995147557,-300.385906552324
738532.49845214793458580971,-18.9991454817347,-6.49922177800836,-300.339747306742
738532.49845223838929086924,-18.8791314432203,-6.35151219214454,-300.284356212043
738532.49845232884399592876,-19.1468550675985,-6.7207861568041,-300.348979155858
738532.49845241929870098829,-19.156086916715,-6.61923581652272,-300.367442854091
738532.49845250986982136965,-19.0637684255501,-6.62846766563921,-300.348979155858
738532.49845260032452642918,-19.0176091799676,-6.48998992889187,-300.358211004975
738532.49845269077923148870,-19.156086916715,-6.73924985503708,-300.385906552324
738532.49845278123393654823,-19.1283913693655,-6.61000396740623,-300.385906552324
738532.49845287168864160776,-19.1099276711325,-6.66539506210517,-300.385906552324
738532.49845296214334666729,-19.0822321237831,-6.5546128727073,-300.330515457625
738532.49845305259805172682,-19.119159520249,-6.62846766563921,-300.413602099673
738532.49845314305275678635,-19.0730002746666,-6.5546128727073,-300.404370250557
738532.49845323350746184587,-19.0453047273171,-6.60077211828974,-300.348979155858
738532.49845332396216690540,-18.8698995941038,-6.38843958861049,-300.39513840144
738532.49845341441687196493,-19.0268410290841,-6.58230842005676,-300.459761345256
738532.49845350498799234629,-19.1006958220161,-6.6376995147557,-300.358211004975
738532.49845359544269740582,-19.0268410290841,-6.57307657094027,-300.367442854091
738532.49845368589740246534,-18.9437543870357,-6.49922177800836,-300.358211004975
738532.49845377635210752487,-19.0176091799676,-6.5546128727073,-300.413602099673
738532.49845386680681258440,-19.0176091799676,-6.57307657094027,-300.339747306742
738532.49845395726151764393,-19.0453047273171,-6.52691732535783,-300.330515457625
738532.49845404771622270346,-18.9899136326182,-6.53614917447432,-300.39513840144
738532.49845413817092776299,-18.9806817835017,-6.44383068330943,-300.358211004975
738532.49845422862563282251,-19.0453047273171,-6.57307657094027,-300.293588061159
738532.49845431908033788204,-18.9529862361522,-6.41613513595996,-300.376674703207
738532.49845440965145826340,-19.1099276711325,-6.61000396740623,-300.432065797906
738532.49845450010616332293,-18.9529862361522,-6.41613513595996,-300.450529496139
738532.49845459056086838245,-19.1653187658315,-6.64693136387219,-300.432065797906
738532.49845468101557344198,-19.2945646534623,-6.77617725150304,-300.432065797906
738532.49845477147027850151,-19.1653187658315,-6.64693136387219,-300.42283394879
738532.49845486192498356104,-19.1468550675985,-6.64693136387219,-300.42283394879
738532.49845495237968862057,-19.1930143131809,-6.66539506210517,-300.358211004975
738532.49845504283439368010,-19.1653187658315,-6.66539506210517,-300.450529496139
738532.49845513328909873962,-19.1930143131809,-6.59154026917325,-300.441297647023
738532.49845522374380379915,-19.0730002746666,-6.61000396740623,-300.367442854091
738532.49845531419850885868,-18.8883632923368,-6.58230842005676,-300.404370250557
738532.49845540476962924004,-18.4360026856288,-6.54538102359081,-300.358211004975
738532.49845549522433429956,-18.0021057771538,-6.38843958861049,-300.321283608509
738532.49845558567903935909,-18.306756797998,-6.61000396740623,-300.385906552324
738532.49845567613374441862,-18.5652485732597,-6.64693136387219,-300.450529496139
738532.49845576658844947815,-18.6298715170751,-6.53614917447432,-300.459761345256
738532.49845585704315453768,-19.2576372569964,-6.86849574266793,-300.385906552324
738532.49845594749785959721,-19.1930143131809,-6.83156834620197,-300.441297647023
738532.49845603795256465673,-19.0822321237831,-6.6376995147557,-300.376674703207
738532.49845612840726971626,-19.137623218482,-6.61000396740623,-300.330515457625
738532.49845621886197477579,-19.174550614948,-6.65616321298868,-300.330515457625
738532.49845630931667983532,-19.1099276711325,-6.5546128727073,-300.302819910276
738532.49845639988780021667,-19.0914639728996,-6.58230842005676,-300.312051759392
738532.49845649034250527620,-19.0822321237831,-6.48075807977538,-300.302819910276
738532.49845658079721033573,-19.0914639728996,-6.58230842005676,-300.358211004975
738532.49845667125191539526,-19.0730002746666,-6.48075807977538,-300.348979155858
738532.49845676170662045479,-18.8606677449873,-6.36997589037751,-300.339747306742
738532.49845685216132551432,-18.7960448011719,-6.20380260628071,-300.321283608509
738532.49845694261603057384,-19.2761009552293,-6.8038727988525,-300.385906552324
738532.49845703307073563337,-19.1930143131809,-6.61000396740623,-300.348979155858
738532.49845712352544069290,-18.9622180852687,-6.48075807977538,-300.358211004975
738532.49845721398014575243,-19.0360728782006,-6.44383068330943,-300.367442854091
738532.49845730455126613379,-19.0545365764336,-6.56384472182379,-300.385906552324
738532.49845739500597119331,-19.0083773308512,-6.42536698507645,-300.385906552324
738532.49845748546067625284,-19.156086916715,-6.68385876033815,-300.293588061159
738532.49845757591538131237,-19.1006958220161,-6.53614917447432,-300.39513840144
738532.49845766637008637190,-19.0822321237831,-6.60077211828974,-300.219733268227
738532.49845775682479143143,-18.9714499343852,-6.40690328684347,-300.247428815577
738532.49845784727949649096,-19.0176091799676,-6.52691732535783,-300.293588061159
738532.49845793773420155048,-19.0268410290841,-6.56384472182379,-300.367442854091
738532.49845802818890661001,-18.8145084994049,-6.26842555009613,-300.348979155858
738532.49845811864361166954,-18.9068269905698,-6.44383068330943,-300.293588061159
738532.49845820909831672907,-18.9252906888028,-6.36074404126102,-300.321283608509
738532.49845829966943711042,-18.9899136326182,-6.54538102359081,-300.302819910276
738532.49845839012414216995,-18.8145084994049,-6.27765739921262,-300.358211004975
738532.49845848057884722948,-18.8237403485214,-6.38843958861049,-300.321283608509
738532.49845857103355228901,-18.7683492538224,-6.2130344553972,-300.23819696646
738532.49845866148825734854,-18.8329721976379,-6.35151219214454,-300.339747306742
738532.49845875194296240807,-18.8698995941038,-6.2961210974456,-300.321283608509
738532.49845884239766746759,-18.9437543870357,-6.45306253242592,-300.330515457625
738532.49845893285237252712,-18.9437543870357,-6.39767143772698,-300.330515457625
738532.49845902330707758665,-18.9899136326182,-6.48075807977538,-300.367442854091
738532.49845911376178264618,-19.0637684255501,-6.49922177800836,-300.367442854091
738532.49845920421648770571,-19.1283913693655,-6.61000396740623,-300.367442854091
738532.49845929478760808706,-19.156086916715,-6.62846766563921,-300.39513840144
738532.49845938524231314659,-19.0453047273171,-6.53614917447432,-300.385906552324
738532.49845947569701820612,-19.1283913693655,-6.61000396740623,-300.367442854091
738532.49845956615172326565,-19.0268410290841,-6.49922177800836,-300.413602099673
738532.49845965660642832518,-19.0914639728996,-6.61000396740623,-300.376674703207
738532.49845974706113338470,-19.0822321237831,-6.53614917447432,-300.358211004975
738532.49845983751583844423,-19.0637684255501,-6.62846766563921,-300.339747306742
738532.49845992797054350376,-19.0637684255501,-6.52691732535783,-300.312051759392
738532.49846001842524856329,-19.1468550675985,-6.69309060945463,-300.321283608509
738532.49846010887995362282,-19.0545365764336,-6.50845362712485,-300.293588061159
738532.49846019933465868235,-19.1099276711325,-6.62846766563921,-300.339747306742
738532.49846028990577906370,-19.174550614948,-6.62846766563921,-300.367442854091
738532.49846038036048412323,-19.0822321237831,-6.58230842005676,-300.358211004975
738532.49846047081518918276,-19.1006958220161,-6.57307657094027,-300.26589251381
738532.49846056126989424229,-19.0822321237831,-6.57307657094027,-300.321283608509
738532.49846065172459930182,-19.0730002746666,-6.57307657094027,-300.312051759392
738532.49846074217930436134,-19.0453047273171,-6.53614917447432,-300.302819910276
738532.49846083263400942087,-18.8422040467544,-6.35151219214454,-300.293588061159
738532.49846092308871448040,-19.0545365764336,-6.52691732535783,-300.339747306742
738532.49846101354341953993,-19.0637684255501,-6.58230842005676,-300.348979155858
738532.49846110399812459946,-18.9806817835017,-6.44383068330943,-300.330515457625
738532.49846119456924498081,-19.174550614948,-6.70232245857112,-300.201269569994
738532.49846128502395004034,-19.1837824640645,-6.64693136387219,-300.284356212043
738532.49846137547865509987,-19.1653187658315,-6.64693136387219,-300.348979155858
738532.49846146593336015940,-19.1006958220161,-6.48075807977538,-300.348979155858
738532.49846155638806521893,-19.119159520249,-6.60077211828974,-300.358211004975
738532.49846164684277027845,-19.1006958220161,-6.50845362712485,-300.376674703207
738532.49846173729747533798,-19.0268410290841,-6.45306253242592,-300.376674703207
738532.49846182775218039751,-18.9899136326182,-6.41613513595996,-300.376674703207
738532.49846191820688545704,-19.0730002746666,-6.49922177800836,-300.339747306742
738532.49846200866159051657,-19.0637684255501,-6.52691732535783,-300.339747306742
738532.49846209911629557610,-19.0822321237831,-6.49922177800836,-300.339747306742
738532.49846218968741595745,-18.8791314432203,-6.36074404126102,-300.348979155858
738532.49846228014212101698,-19.1006958220161,-6.52691732535783,-300.358211004975
738532.49846237059682607651,-19.2299417096469,-6.7207861568041,-300.367442854091
738532.49846246105153113604,-19.174550614948,-6.59154026917325,-300.358211004975
738532.49846255150623619556,-19.0545365764336,-6.58230842005676,-300.39513840144
738532.49846264196094125509,-19.0730002746666,-6.47152623065889,-300.376674703207
738532.49846273241564631462,-19.0453047273171,-6.53614917447432,-300.376674703207
738532.49846282287035137415,-19.1653187658315,-6.54538102359081,-300.284356212043
738532.49846291332505643368,-19.0268410290841,-6.52691732535783,-300.312051759392
738532.49846300377976149321,-18.9714499343852,-6.36997589037751,-300.302819910276
738532.49846309423446655273,-19.0453047273171,-6.56384472182379,-300.284356212043
738532.49846318480558693409,-19.119159520249,-6.53614917447432,-300.302819910276
738532.49846327526029199362,-19.0730002746666,-6.61000396740623,-300.385906552324
738532.49846336571499705315,-19.0083773308512,-6.47152623065889,-300.376674703207
738532.49846345616970211267,-19.0453047273171,-6.58230842005676,-300.348979155858
738532.49846354662440717220,-18.9991454817347,-6.53614917447432,-300.376674703207
738532.49846363707911223173,-18.9160588396863,-6.38843958861049,-300.385906552324
738532.49846372753381729126,-18.9529862361522,-6.49922177800836,-300.39513840144
738532.49846381798852235079,-19.0545365764336,-6.50845362712485,-300.348979155858
738532.49846390844322741032,-18.9991454817347,-6.53614917447432,-300.404370250557
738532.49846399889793246984,-18.8698995941038,-6.30535294656209,-300.385906552324
738532.49846408946905285120,-19.2207098605304,-6.74848170415357,-300.413602099673
738532.49846417992375791073,-19.119159520249,-6.52691732535783,-300.404370250557
738532.49846427037846297026,-19.1930143131809,-6.69309060945463,-300.404370250557
738532.49846436083316802979,-19.1468550675985,-6.5546128727073,-300.376674703207
738532.49846445128787308931,-19.1283913693655,-6.6376995147557,-300.385906552324
738532.49846454174257814884,-19.0360728782006,-6.44383068330943,-300.385906552324
738532.49846463219728320837,-19.0545365764336,-6.5546128727073,-300.42283394879
738532.49846472265198826790,-19.0822321237831,-6.48998992889187,-300.164342173528
738532.49846481310669332743,-19.1283913693655,-6.61923581652272,-300.302819910276
738532.49846490356139838696,-19.1006958220161,-6.49922177800836,-300.404370250557
738532.49846499401610344648,-19.174550614948,-6.62846766563921,-300.450529496139
738532.49846508458722382784,-19.0268410290841,-6.53614917447432,-300.321283608509
738532.49846517504192888737,-18.703726310007,-6.48998992889187,-300.348979155858
738532.49846526549663394690,-18.1036561174352,-6.22226630451369,-300.302819910276
738532.49846535595133900642,-18.0113376262703,-6.33304849391156,-300.312051759392
738532.49846544640604406595,-18.3529160435804,-6.51768547624134,-300.321283608509
738532.49846553686074912548,-18.703726310007,-6.69309060945463,-300.432065797906
738532.49846562731545418501,-18.9622180852687,-6.83156834620197,-300.432065797906
738532.49846571777015924454,-19.0360728782006,-6.58230842005676,-300.321283608509
738532.49846580822486430407,-19.0637684255501,-6.6376995147557,-300.339747306742
738532.49846589867956936359,-18.9622180852687,-6.43459883419294,-300.321283608509
738532.49846598913427442312,-19.0637684255501,-6.61000396740623,-300.302819910276
738532.49846607970539480448,-19.1099276711325,-6.5546128727073,-300.275124362926
738532.49846617016009986401,-19.0360728782006,-6.54538102359081,-300.284356212043
738532.49846626061480492353,-18.9991454817347,-6.45306253242592,-300.302819910276
738532.49846635106950998306,-19.0268410290841,-6.48075807977538,-300.293588061159
738532.49846644152421504259,-19.0822321237831,-6.48998992889187,-300.312051759392
738532.49846653197892010212,-19.0822321237831,-6.49922177800836,-300.302819910276
738532.49846662243362516165,-19.0453047273171,-6.47152623065889,-300.330515457625
738532.49846671288833022118,-18.9529862361522,-6.36997589037751,-300.348979155858
738532.49846680334303528070,-18.9806817835017,-6.43459883419294,-300.293588061159
738532.49846689379774034023,-18.9991454817347,-6.40690328684347,-300.348979155858
738532.49846698425244539976,-18.9622180852687,-6.45306253242592,-300.358211004975
738532.49846707482356578112,-18.9529862361522,-6.36074404126102,-300.367442854091
738532.49846716527827084064,-19.0637684255501,-6.5546128727073,-300.367442854091
738532.49846725573297590017,-18.9899136326182,-6.42536698507645,-300.367442854091
738532.49846734618768095970,-19.0083773308512,-6.50845362712485,-300.404370250557
738532.49846743664238601923,-18.9529862361522,-6.39767143772698,-300.321283608509
738532.49846752709709107876,-18.9345225379192,-6.40690328684347,-300.358211004975
738532.49846761755179613829,-18.8422040467544,-6.30535294656209,-300.358211004975
738532.49846770800650119781,-18.7775811029389,-6.24073000274667,-300.376674703207
738532.49846779846120625734,-18.8975951414533,-6.38843958861049,-300.358211004975
738532.49846788891591131687,-18.9345225379192,-6.38843958861049,-300.404370250557
738532.49846797948703169823,-18.8883632923368,-6.379207739494,-300.376674703207
738532.49846806994173675776,-18.8145084994049,-6.27765739921262,-300.284356212043
738532.49846816039644181728,-18.8329721976379,-6.34228034302805,-300.330515457625
738532.49846825085114687681,-18.7129581591235,-6.14841151158177,-300.210501419111
738532.49846834130585193634,-18.6391033661916,-6.17610705893124,-300.145878475295
738532.49846843176055699587,-18.5467848750267,-6.00070192571795,-300.182805871761
738532.49846852221526205540,-18.8975951414533,-6.43459883419294,-300.284356212043
738532.49846861266996711493,-18.8329721976379,-6.24996185186316,-300.293588061159
738532.49846870312467217445,-18.8791314432203,-6.41613513595996,-300.293588061159
738532.49846879357937723398,-18.9068269905698,-6.33304849391156,-300.26589251381
738532.49846888403408229351,-18.9252906888028,-6.4622943815424,-300.321283608509
738532.49846897460520267487,-18.8975951414533,-6.35151219214454,-300.330515457625
738532.49846906505990773439,-18.9437543870357,-6.51768547624134,-300.348979155858
738532.49846915551461279392,-19.0360728782006,-6.48998992889187,-300.339747306742
738532.49846924596931785345,-19.0083773308512,-6.4622943815424,-300.339747306742
738532.49846933642402291298,-18.9714499343852,-6.48075807977538,-300.339747306742
738532.49846942687872797251,-19.0453047273171,-6.48998992889187,-300.348979155858
738532.49846951733343303204,-19.0176091799676,-6.53614917447432,-300.367442854091
738532.49846960778813809156,-19.0822321237831,-6.51768547624134,-300.376674703207
738532.49846969824284315109,-19.0268410290841,-6.56384472182379,-300.339747306742
738532.49846978869754821062,-18.9437543870357,-6.38843958861049,-300.321283608509
738532.49846987915225327015,-19.0268410290841,-6.57307657094027,-300.339747306742
738532.49846996972337365150,-19.0268410290841,-6.47152623065889,-300.367442854091
738532.49847006017807871103,-18.9899136326182,-6.54538102359081,-300.385906552324
738532.49847015063278377056,-18.8791314432203,-6.30535294656209,-300.358211004975
738532.49847024108748883009,-18.9806817835017,-6.52691732535783,-300.330515457625
738532.49847033154219388962,-18.9622180852687,-6.39767143772698,-300.321283608509
738532.49847042199689894915,-18.9991454817347,-6.52691732535783,-300.385906552324
738532.49847051245160400867,-19.0083773308512,-6.44383068330943,-300.367442854091
738532.49847060290630906820,-19.0730002746666,-6.58230842005676,-300.312051759392
738532.49847069336101412773,-19.0545365764336,-6.49922177800836,-300.358211004975
738532.49847078381571918726,-19.0176091799676,-6.51768547624134,-300.339747306742
738532.49847087438683956861,-19.0545365764336,-6.51768547624134,-300.302819910276
738532.49847096484154462814,-19.0083773308512,-6.49922177800836,-300.312051759392
738532.49847105529624968767,-18.9252906888028,-6.38843958861049,-300.293588061159
738532.49847114575095474720,-18.8514358958708,-6.27765739921262,-300.256660664693
738532.49847123620565980673,-18.9252906888028,-6.4622943815424,-300.312051759392
738532.49847132666036486626,-18.9806817835017,-6.39767143772698,-300.348979155858
738532.49847141711506992579,-19.0268410290841,-6.5546128727073,-300.339747306742
738532.49847150756977498531,-19.0822321237831,-6.53614917447432,-300.385906552324
738532.49847159802448004484,-18.9991454817347,-6.51768547624134,-300.432065797906
738532.49847168847918510437,-19.0360728782006,-6.47152623065889,-300.367442854091
738532.49847177893389016390,-19.0453047273171,-6.57307657094027,-300.275124362926
738532.49847186950501054525,-19.0176091799676,-6.4622943815424,-300.293588061159
738532.49847195995971560478,-18.9529862361522,-6.4622943815424,-300.358211004975
738532.49847205041442066431,-18.9252906888028,-6.36997589037751,-300.348979155858
738532.49847214086912572384,-19.0730002746666,-6.56384472182379,-300.39513840144
738532.49847223132383078337,-18.9529862361522,-6.43459883419294,-300.376674703207
738532.49847232177853584290,-19.0268410290841,-6.50845362712485,-300.39513840144
738532.49847241223324090242,-19.0453047273171,-6.51768547624134,-300.413602099673
738532.49847250268794596195,-19.0637684255501,-6.54538102359081,-300.367442854091
738532.49847259314265102148,-19.0360728782006,-6.52691732535783,-300.39513840144
738532.49847268359735608101,-18.9806817835017,-6.45306253242592,-300.39513840144
738532.49847277405206114054,-18.9622180852687,-6.49922177800836,-300.367442854091
738532.49847286462318152189,-18.8883632923368,-6.38843958861049,-300.404370250557
738532.49847295507788658142,-18.7775811029389,-6.32381664479507,-300.39513840144
738532.49847304553259164095,-18.8237403485214,-6.2961210974456,-300.358211004975
738532.49847313598729670048,-18.9899136326182,-6.53614917447432,-300.376674703207
738532.49847322644200176001,-18.8237403485214,-6.30535294656209,-300.330515457625
738532.49847331689670681953,-18.8883632923368,-6.38843958861049,-300.284356212043
738532.49847340735141187906,-19.0545365764336,-6.48998992889187,-300.348979155858
738532.49847349780611693859,-19.0730002746666,-6.5546128727073,-300.348979155858
738532.49847358826082199812,-19.0637684255501,-6.52691732535783,-300.312051759392
738532.49847367871552705765,-19.0268410290841,-6.4622943815424,-300.312051759392
738532.49847376917023211718,-19.0083773308512,-6.48075807977538,-300.321283608509
738532.49847385974135249853,-19.0453047273171,-6.48075807977538,-300.321283608509
738532.49847395019605755806,-19.0176091799676,-6.49922177800836,-300.339747306742
738532.49847404065076261759,-18.9160588396863,-6.34228034302805,-300.385906552324
738532.49847413110546767712,-19.0545365764336,-6.52691732535783,-300.321283608509
738532.49847422156017273664,-18.9252906888028,-6.32381664479507,-300.302819910276
738532.49847431201487779617,-19.0730002746666,-6.58230842005676,-300.330515457625
738532.49847440246958285570,-19.119159520249,-6.51768547624134,-300.312051759392
738532.49847449292428791523,-19.0730002746666,-6.50845362712485,-300.358211004975
738532.49847458337899297476,-18.9991454817347,-6.44383068330943,-300.376674703207
738532.49847467383369803429,-18.6944944608905,-6.51768547624134,-300.330515457625
738532.49847476440481841564,-18.1221198156682,-6.23149815363018,-300.173574022645
738532.49847485485952347517,-17.9282509842219,-6.38843958861049,-300.201269569994
738532.49847494531422853470,-18.1775109103671,-6.379207739494,-300.312051759392
738532.49847503576893359423,-18.685262611774,-6.67462691122166,-300.413602099673
738532.49847512622363865376,-18.9345225379192,-6.78540910061953,-300.385906552324
738532.49847521667834371328,-18.8606677449873,-6.44383068330943,-300.376674703207
738532.49847530713304877281,-18.7960448011719,-6.36997589037751,-300.321283608509
738532.49847539758775383234,-19.0545365764336,-6.54538102359081,-300.256660664693
738532.49847548804245889187,-19.0822321237831,-6.58230842005676,-300.348979155858
738532.49847557849716395140,-19.0453047273171,-6.4622943815424,-300.367442854091
738532.49847566895186901093,-18.9714499343852,-6.49922177800836,-300.385906552324
738532.49847575952298939228,-19.0083773308512,-6.40690328684347,-300.367442854091
738532.49847584997769445181,-18.9622180852687,-6.4622943815424,-300.348979155858
738532.49847594043239951134,-18.9160588396863,-6.31458479567858,-300.348979155858
738532.49847603088710457087,-18.9529862361522,-6.45306253242592,-300.376674703207
738532.49847612134180963039,-18.9622180852687,-6.36997589037751,-300.247428815577
738532.49847621179651468992,-18.9345225379192,-6.45306253242592,-300.284356212043
738532.49847630225121974945,-18.8145084994049,-6.25919370097964,-300.275124362926
738532.49847639270592480898,-18.9991454817347,-6.51768547624134,-300.256660664693
738532.49847648316062986851,-18.9345225379192,-6.36074404126102,-300.293588061159
738532.49847657361533492804,-18.8237403485214,-6.35151219214454,-300.358211004975
738532.49847666407003998756,-18.9899136326182,-6.45306253242592,-300.330515457625
738532.49847675464116036892,-18.9899136326182,-6.42536698507645,-300.302819910276
738532.49847684509586542845,-18.8975951414533,-6.42536698507645,-300.358211004975
738532.49847693555057048798,-18.8791314432203,-6.31458479567858,-300.376674703207
738532.49847702600527554750,-18.8698995941038,-6.41613513595996,-300.284356212043
738532.49847711645998060703,-18.8329721976379,-6.26842555009613,-300.339747306742
738532.49847720691468566656,-18.8329721976379,-6.36997589037751,-300.385906552324
738532.49847729736939072609,-18.7775811029389,-6.22226630451369,-300.302819910276
738532.49847738782409578562,-18.7498855555895,-6.2961210974456,-300.330515457625
738532.49847747827880084515,-18.7129581591235,-6.16687520981475,-300.312051759392
738532.49847756873350590467,-18.8145084994049,-6.36997589037751,-300.312051759392
738532.49847765930462628603,-18.6944944608905,-6.19457075716422,-300.284356212043
738532.49847774975933134556,-18.6944944608905,-6.26842555009613,-300.312051759392
738532.49847784021403640509,-18.6483352153081,-6.13917966246528,-300.330515457625
738532.49847793066874146461,-18.6298715170751,-6.18533890804773,-300.228965117344
738532.49847802112344652414,-18.6667989135411,-6.18533890804773,-300.293588061159
738532.49847811157815158367,-18.6760307626576,-6.22226630451369,-300.321283608509
738532.49847820203285664320,-18.740653706473,-6.25919370097964,-300.26589251381
738532.49847829248756170273,-18.7775811029389,-6.2961210974456,-300.348979155858
738532.49847838294226676226,-18.8791314432203,-6.39767143772698,-300.358211004975
738532.49847847339697182178,-18.8514358958708,-6.36074404126102,-300.348979155858
738532.49847856385167688131,-18.8791314432203,-6.41613513595996,-300.312051759392
738532.49847865442279726267,-18.9437543870357,-6.40690328684347,-300.358211004975
738532.49847874487750232220,-18.9622180852687,-6.52691732535783,-300.367442854091
738532.49847883533220738173,-18.8698995941038,-6.36074404126102,-300.302819910276
738532.49847892578691244125,-19.0083773308512,-6.59154026917325,-300.284356212043
738532.49847901624161750078,-18.9714499343852,-6.44383068330943,-300.302819910276
738532.49847910669632256031,-18.8791314432203,-6.39767143772698,-300.302819910276
738532.49847919715102761984,-18.8883632923368,-6.36997589037751,-300.339747306742
738532.49847928760573267937,-18.9160588396863,-6.4622943815424,-300.339747306742
738532.49847937806043773890,-18.9714499343852,-6.48998992889187,-300.293588061159
738532.49847946851514279842,-18.9252906888028,-6.42536698507645,-300.358211004975
738532.49847955896984785795,-18.8791314432203,-6.38843958861049,-300.385906552324
738532.49847964954096823931,-18.8975951414533,-6.40690328684347,-300.367442854091
738532.49847973999567329884,-18.9437543870357,-6.48075807977538,-300.39513840144
738532.49847983045037835836,-18.9806817835017,-6.48075807977538,-300.312051759392
738532.49847992090508341789,-18.8975951414533,-6.4622943815424,-300.367442854091
738532.49848001135978847742,-18.8329721976379,-6.34228034302805,-300.358211004975
738532.49848010181449353695,-18.9345225379192,-6.48998992889187,-300.385906552324
738532.49848019226919859648,-18.9345225379192,-6.39767143772698,-300.330515457625
738532.49848028272390365601,-18.9437543870357,-6.49922177800836,-300.413602099673
738532.49848037317860871553,-18.8883632923368,-6.35151219214454,-300.376674703207
738532.49848046363331377506,-18.9437543870357,-6.51768547624134,-300.339747306742
738532.49848055408801883459,-18.9252906888028,-6.43459883419294,-300.376674703207
738532.49848064465913921595,-18.8975951414533,-6.41613513595996,-300.39513840144
738532.49848073511384427547,-18.9252906888028,-6.45306253242592,-300.413602099673
738532.49848082556854933500,-18.9437543870357,-6.45306253242592,-300.330515457625
738532.49848091602325439453,-18.9991454817347,-6.52691732535783,-300.376674703207
738532.49848100647795945406,-18.9345225379192,-6.43459883419294,-300.367442854091
738532.49848109693266451359,-18.8052766502884,-6.35151219214454,-300.339747306742
738532.49848118738736957312,-18.9068269905698,-6.39767143772698,-300.376674703207
738532.49848127784207463264,-18.9899136326182,-6.5546128727073,-300.39513840144
738532.49848136829677969217,-18.9714499343852,-6.44383068330943,-300.348979155858
738532.49848145875148475170,-18.9714499343852,-6.54538102359081,-300.385906552324
738532.49848154932260513306,-18.9252906888028,-6.38843958861049,-300.348979155858
738532.49848163977731019258,-18.9529862361522,-6.49922177800836,-300.358211004975
738532.49848173023201525211,-18.9529862361522,-6.42536698507645,-300.339747306742
738532.49848182068672031164,-18.8791314432203,-6.4622943815424,-300.358211004975
738532.49848191114142537117,-18.9160588396863,-6.36997589037751,-300.275124362926
738532.49848200159613043070,-18.9437543870357,-6.51768547624134,-300.339747306742
738532.49848209205083549023,-18.8883632923368,-6.33304849391156,-300.293588061159
738532.49848218250554054976,-18.9899136326182,-6.54538102359081,-300.312051759392
738532.49848227296024560928,-19.0083773308512,-6.4622943815424,-300.321283608509
738532.49848236341495066881,-18.9806817835017,-6.53614917447432,-300.293588061159
738532.49848245386965572834,-18.9529862361522,-6.51768547624134,-300.210501419111
738532.49848254444077610970,-18.9252906888028,-6.41613513595996,-300.312051759392
738532.49848263489548116922,-18.8791314432203,-6.45306253242592,-300.312051759392
738532.49848272535018622875,-18.8052766502884,-6.2961210974456,-300.302819910276
738532.49848281580489128828,-18.8145084994049,-6.40690328684347,-300.312051759392
738532.49848290625959634781,-18.759117404706,-6.24996185186316,-300.293588061159
738532.49848299671430140734,-18.9622180852687,-6.53614917447432,-300.330515457625
738532.49848308716900646687,-18.9529862361522,-6.40690328684347,-300.321283608509
738532.49848317762371152639,-18.8514358958708,-6.41613513595996,-300.367442854091
738532.49848326807841658592,-18.9714499343852,-6.43459883419294,-300.339747306742
738532.49848335853312164545,-18.9806817835017,-6.50845362712485,-300.348979155858
738532.49848344898782670498,-19.0268410290841,-6.45306253242592,-300.339747306742
738532.49848353955894708633,-19.0083773308512,-6.51768547624134,-300.376674703207
738532.49848363001365214586,-18.9622180852687,-6.42536698507645,-300.330515457625
738532.49848372046835720539,-18.9991454817347,-6.49922177800836,-300.348979155858
738532.49848381092306226492,-18.9806817835017,-6.42536698507645,-300.376674703207
738532.49848390137776732445,-18.9899136326182,-6.4622943815424,-300.404370250557
738532.49848399183247238398,-18.9622180852687,-6.41613513595996,-300.376674703207
738532.49848408228717744350,-18.9714499343852,-6.4622943815424,-300.376674703207
738532.49848417274188250303,-18.9160588396863,-6.33304849391156,-300.39513840144
738532.49848426319658756256,-19.0268410290841,-6.47152623065889,-300.42283394879
738532.49848435365129262209,-18.9437543870357,-6.53614917447432,-300.339747306742
738532.49848444422241300344,-18.6391033661916,-6.40690328684347,-300.330515457625
738532.49848453467711806297,-18.2236701559496,-6.43459883419294,-300.302819910276
738532.49848462513182312250,-17.872859889523,-6.30535294656209,-300.275124362926
738532.49848471558652818203,-18.2790612506485,-6.52691732535783,-300.358211004975
738532.49848480604123324156,-18.6206396679586,-6.6376995147557,-300.441297647023
738532.49848489649593830109,-18.8975951414533,-6.6376995147557,-300.441297647023
738532.49848498695064336061,-18.9160588396863,-6.44383068330943,-300.339747306742
738532.49848507740534842014,-18.9437543870357,-6.48075807977538,-300.404370250557
738532.49848516786005347967,-18.9345225379192,-6.40690328684347,-300.404370250557
738532.49848525831475853920,-18.9437543870357,-6.43459883419294,-300.321283608509
738532.49848534876946359873,-18.9806817835017,-6.4622943815424,-300.376674703207
738532.49848543934058398008,-18.9437543870357,-6.39767143772698,-300.376674703207
738532.49848552979528903961,-18.9714499343852,-6.45306253242592,-300.39513840144
738532.49848562024999409914,-19.0083773308512,-6.44383068330943,-300.367442854091
738532.49848571070469915867,-18.9345225379192,-6.39767143772698,-300.404370250557
738532.49848580115940421820,-18.9714499343852,-6.36997589037751,-300.367442854091
738532.49848589161410927773,-18.9252906888028,-6.38843958861049,-300.164342173528
738532.49848598206881433725,-18.9068269905698,-6.31458479567858,-300.302819910276
738532.49848607252351939678,-18.9160588396863,-6.41613513595996,-300.441297647023
738532.49848616297822445631,-18.9899136326182,-6.38843958861049,-300.376674703207
738532.49848625343292951584,-18.9437543870357,-6.40690328684347,-300.330515457625
738532.49848634388763457537,-18.8422040467544,-6.27765739921262,-300.330515457625
738532.49848643445875495672,-18.9345225379192,-6.39767143772698,-300.302819910276
738532.49848652491346001625,-18.9529862361522,-6.39767143772698,-300.275124362926
738532.49848661536816507578,-18.9437543870357,-6.40690328684347,-300.26589251381
738532.49848670582287013531,-18.9068269905698,-6.36997589037751,-300.284356212043
738532.49848679627757519484,-18.8422040467544,-6.2961210974456,-300.321283608509
738532.49848688673228025436,-18.8329721976379,-6.33304849391156,-300.293588061159
738532.49848697718698531389,-18.8791314432203,-6.30535294656209,-300.26589251381
738532.49848706764169037342,-18.7868129520554,-6.26842555009613,-300.321283608509
738532.49848715809639543295,-18.7775811029389,-6.19457075716422,-300.321283608509
738532.49848724855110049248,-18.759117404706,-6.24996185186316,-300.312051759392
738532.49848733900580555201,-18.759117404706,-6.17610705893124,-300.339747306742
738532.49848742957692593336,-18.6944944608905,-6.2130344553972,-300.293588061159
738532.49848752003163099289,-18.6298715170751,-6.04686117130039,-300.247428815577
738532.49848761048633605242,-18.6391033661916,-6.18533890804773,-300.284356212043
738532.49848770094104111195,-18.5375530259102,-5.99147007660146,-300.26589251381
738532.49848779139574617147,-18.7129581591235,-6.25919370097964,-300.275124362926
738532.49848788185045123100,-18.7960448011719,-6.24073000274667,-300.302819910276
738532.49848797230515629053,-18.7775811029389,-6.33304849391156,-300.330515457625
738532.49848806275986135006,-18.8422040467544,-6.27765739921262,-300.339747306742
738532.49848815321456640959,-18.8606677449873,-6.30535294656209,-300.321283608509
738532.49848824366927146912,-18.9252906888028,-6.44383068330943,-300.385906552324
738532.49848833424039185047,-18.9529862361522,-6.39767143772698,-300.376674703207
738532.49848842469509691000,-18.8791314432203,-6.39767143772698,-300.367442854091
738532.49848851514980196953,-18.9622180852687,-6.379207739494,-300.404370250557
738532.49848860560450702906,-18.9068269905698,-6.43459883419294,-300.385906552324
738532.49848869605921208858,-18.9437543870357,-6.36997589037751,-300.39513840144
738532.49848878651391714811,-18.9714499343852,-6.48998992889187,-300.39513840144
738532.49848887696862220764,-18.9714499343852,-6.379207739494,-300.367442854091
738532.49848896742332726717,-18.8606677449873,-6.379207739494,-300.413602099673
738532.49848905787803232670,-19.0083773308512,-6.41613513595996,-300.358211004975
738532.49848914833273738623,-19.0176091799676,-6.54538102359081,-300.404370250557
738532.49848923878744244576,-18.9806817835017,-6.41613513595996,-300.39513840144
738532.49848932935856282711,-18.9437543870357,-6.47152623065889,-300.376674703207
738532.49848941981326788664,-18.8606677449873,-6.2961210974456,-300.23819696646
738532.49848951026797294617,-18.9714499343852,-6.47152623065889,-300.321283608509
738532.49848960072267800570,-18.9345225379192,-6.36997589037751,-300.413602099673
738532.49848969117738306522,-18.8791314432203,-6.379207739494,-300.358211004975
738532.49848978163208812475,-18.9345225379192,-6.40690328684347,-300.42283394879
738532.49848987208679318428,-18.9437543870357,-6.45306253242592,-300.432065797906
738532.49848996254149824381,-18.8883632923368,-6.36997589037751,-300.42283394879
738532.49849005299620330334,-18.9068269905698,-6.33304849391156,-300.348979155858
738532.49849014345090836287,-18.9160588396863,-6.43459883419294,-300.385906552324
738532.49849023390561342239,-18.9529862361522,-6.36074404126102,-300.312051759392
738532.49849032447673380375,-18.9899136326182,-6.51768547624134,-300.339747306742
738532.49849041493143886328,-18.9529862361522,-6.38843958861049,-300.312051759392
738532.49849050538614392281,-18.9529862361522,-6.48998992889187,-300.404370250557
738532.49849059584084898233,-18.9714499343852,-6.42536698507645,-300.339747306742
738532.49849068629555404186,-18.9806817835017,-6.48075807977538,-300.358211004975
738532.49849077675025910139,-18.9068269905698,-6.32381664479507,-300.348979155858
738532.49849086720496416092,-18.9622180852687,-6.44383068330943,-300.330515457625
738532.49849095765966922045,-18.8606677449873,-6.30535294656209,-300.302819910276
738532.49849104811437427998,-18.8791314432203,-6.36997589037751,-300.348979155858
738532.49849113856907933950,-19.0176091799676,-6.47152623065889,-300.376674703207
738532.49849122914019972086,-18.9899136326182,-6.44383068330943,-300.367442854091
738532.49849131959490478039,-18.8698995941038,-6.34228034302805,-300.376674703207
738532.49849141004960983992,-18.9899136326182,-6.43459883419294,-300.39513840144
738532.49849150050431489944,-19.0083773308512,-6.48075807977538,-300.358211004975
738532.49849159095901995897,-18.9714499343852,-6.39767143772698,-300.321283608509
738532.49849168141372501850,-18.9714499343852,-6.45306253242592,-300.385906552324
738532.49849177186843007803,-18.9806817835017,-6.39767143772698,-300.348979155858
738532.49849186232313513756,-18.9345225379192,-6.44383068330943,-300.330515457625
738532.49849195277784019709,-18.9345225379192,-6.36074404126102,-300.302819910276
738532.49849204323254525661,-18.9806817835017,-6.47152623065889,-300.312051759392
738532.49849213368725031614,-18.8698995941038,-6.2961210974456,-300.348979155858
738532.49849222425837069750,-18.9160588396863,-6.41613513595996,-300.321283608509
738532.49849231471307575703,-18.9714499343852,-6.41613513595996,-300.321283608509
738532.49849240516778081656,-18.9345225379192,-6.39767143772698,-300.312051759392
738532.49849249562248587608,-19.0176091799676,-6.47152623065889,-300.275124362926
738532.49849258607719093561,-18.9714499343852,-6.40690328684347,-300.321283608509
738532.49849267653189599514,-18.9345225379192,-6.39767143772698,-300.39513840144
738532.49849276698660105467,-18.9714499343852,-6.43459883419294,-300.330515457625
738532.49849285744130611420,-18.9437543870357,-6.4622943815424,-300.376674703207
738532.49849294789601117373,-18.9252906888028,-6.379207739494,-300.284356212043
738532.49849303835071623325,-18.8422040467544,-6.36997589037751,-300.293588061159
738532.49849312880542129278,-18.8422040467544,-6.30535294656209,-300.358211004975
738532.49849321937654167414,-18.7775811029389,-6.35151219214454,-300.39513840144
738532.49849330983124673367,-18.8698995941038,-6.34228034302805,-300.376674703207
738532.49849340028595179319,-18.8514358958708,-6.38843958861049,-300.330515457625
738532.49849349074065685272,-18.9068269905698,-6.34228034302805,-300.39513840144
738532.49849358119536191225,-18.8606677449873,-6.39767143772698,-300.413602099673
738532.49849367165006697178,-18.8975951414533,-6.32381664479507,-300.321283608509
738532.49849376210477203131,-19.0360728782006,-6.48998992889187,-300.330515457625
738532.49849385255947709084,-19.0730002746666,-6.53614917447432,-300.39513840144
738532.49849394301418215036,-19.0360728782006,-6.47152623065889,-300.404370250557
738532.49849403346888720989,-18.9991454817347,-6.48075807977538,-300.339747306742
738532.49849412392359226942,-18.9899136326182,-6.40690328684347,-300.385906552324
738532.49849421449471265078,-18.9806817835017,-6.4622943815424,-300.432065797906
738532.49849430494941771030,-18.9068269905698,-6.33304849391156,-300.376674703207
738532.49849439540412276983,-19.0176091799676,-6.53614917447432,-300.385906552324
738532.49849448585882782936,-18.9806817835017,-6.39767143772698,-300.39513840144
738532.49849457631353288889,-18.9991454817347,-6.4622943815424,-300.441297647023
738532.49849466676823794842,-18.8975951414533,-6.25919370097964,-300.339747306742
738532.49849475722294300795,-18.8422040467544,-6.48075807977538,-300.413602099673
738532.49849484767764806747,-18.5467848750267,-6.36997589037751,-300.339747306742
738532.49849493813235312700,-18.0298013245033,-6.31458479567858,-300.256660664693
738532.49849502858705818653,-17.9467146824549,-6.22226630451369,-300.302819910276
738532.49849511915817856789,-18.4267708365123,-6.59154026917325,-300.42283394879
738532.49849520961288362741,-18.740653706473,-6.62846766563921,-300.385906552324
738532.49849530006758868694,-18.9068269905698,-6.57307657094027,-300.413602099673
738532.49849539052229374647,-18.9345225379192,-6.41613513595996,-300.404370250557
738532.49849548097699880600,-18.9252906888028,-6.45306253242592,-300.376674703207
738532.49849557143170386553,-18.9252906888028,-6.379207739494,-300.348979155858
738532.49849566188640892506,-18.9529862361522,-6.379207739494,-300.358211004975
738532.49849575234111398458,-18.9529862361522,-6.47152623065889,-300.404370250557
738532.49849584279581904411,-18.8975951414533,-6.2961210974456,-300.330515457625
738532.49849593325052410364,-18.9160588396863,-6.40690328684347,-300.312051759392
738532.49849602370522916317,-18.9345225379192,-6.28688924832911,-300.302819910276
738532.49849611427634954453,-18.8883632923368,-6.36997589037751,-300.302819910276
738532.49849620473105460405,-19.0268410290841,-6.39767143772698,-300.302819910276
738532.49849629518575966358,-18.9991454817347,-6.47152623065889,-300.339747306742
738532.49849638564046472311,-18.9252906888028,-6.28688924832911,-300.339747306742
738532.49849647609516978264,-18.8698995941038,-6.34228034302805,-300.23819696646
738532.49849656654987484217,-18.8606677449873,-6.24996185186316,-300.256660664693
738532.49849665700457990170,-18.8606677449873,-6.35151219214454,-300.404370250557
738532.49849674745928496122,-18.9806817835017,-6.40690328684347,-300.404370250557
738532.49849683791399002075,-18.9437543870357,-6.42536698507645,-300.339747306742
738532.49849692836869508028,-18.8606677449873,-6.27765739921262,-300.376674703207
738532.49849701882340013981,-18.8698995941038,-6.31458479567858,-300.358211004975
738532.49849710939452052116,-18.8237403485214,-6.28688924832911,-300.293588061159
738532.49849719984922558069,-18.8975951414533,-6.34228034302805,-300.367442854091
738532.49849729030393064022,-18.8237403485214,-6.26842555009613,-300.339747306742
738532.49849738075863569975,-18.7314218573565,-6.15764336069826,-300.284356212043
738532.49849747121334075928,-18.7960448011719,-6.24996185186316,-300.348979155858
738532.49849756166804581881,-18.8052766502884,-6.16687520981475,-300.330515457625
738532.49849765212275087833,-18.7960448011719,-6.27765739921262,-300.339747306742
738532.49849774257745593786,-18.72219000824,-6.13917966246528,-300.247428815577
738532.49849783303216099739,-18.6944944608905,-6.20380260628071,-300.321283608509
738532.49849792348686605692,-18.5929441206091,-6.00993377483444,-300.293588061159
738532.49849801405798643827,-18.6114078188421,-6.10225226599933,-300.26589251381
738532.49849810451269149780,-18.6944944608905,-6.15764336069826,-300.302819910276
738532.49849819496739655733,-18.6760307626576,-6.15764336069826,-300.302819910276
738532.49849828542210161686,-18.6760307626576,-6.1299478133488,-300.302819910276
738532.49849837587680667639,-18.72219000824,-6.19457075716422,-300.302819910276
738532.49849846633151173592,-18.7868129520554,-6.26842555009613,-300.348979155858
738532.49849855678621679544,-18.8422040467544,-6.2961210974456,-300.348979155858
738532.49849864724092185497,-18.8237403485214,-6.30535294656209,-300.312051759392
738532.49849873769562691450,-18.9714499343852,-6.42536698507645,-300.376674703207
738532.49849882815033197403,-18.9160588396863,-6.42536698507645,-300.376674703207
738532.49849891860503703356,-18.9068269905698,-6.34228034302805,-300.302819910276
738532.49849900917615741491,-18.8422040467544,-6.34228034302805,-300.376674703207
738532.49849909963086247444,-18.9806817835017,-6.39767143772698,-300.330515457625
738532.49849919008556753397,-18.9714499343852,-6.48075807977538,-300.321283608509
738532.49849928054027259350,-18.9252906888028,-6.32381664479507,-300.275124362926
738532.49849937099497765303,-18.9345225379192,-6.44383068330943,-300.302819910276
738532.49849946144968271255,-18.9252906888028,-6.36997589037751,-300.293588061159
738532.49849955190438777208,-18.8883632923368,-6.35151219214454,-300.293588061159
738532.49849964235909283161,-18.7868129520554,-6.25919370097964,-300.293588061159
738532.49849973281379789114,-18.9437543870357,-6.39767143772698,-300.284356212043
738532.49849982326850295067,-18.8883632923368,-6.379207739494,-300.312051759392
738532.49849991372320801020,-18.6575670644246,-6.10225226599933,-300.256660664693
738532.49850000429432839155,-19.0637684255501,-6.58230842005676,-300.312051759392
738532.49850009474903345108,-19.0268410290841,-6.48075807977538,-300.219733268227
738532.49850018520373851061,-18.9437543870357,-6.47152623065889,-300.293588061159
738532.49850027565844357014,-18.8883632923368,-6.33304849391156,-300.358211004975
738532.49850036611314862967,-18.9068269905698,-6.43459883419294,-300.367442854091
738532.49850045656785368919,-18.9160588396863,-6.35151219214454,-300.275124362926
738532.49850054702255874872,-18.8606677449873,-6.41613513595996,-300.348979155858
738532.49850063747726380825,-18.7683492538224,-6.19457075716422,-300.293588061159
738532.49850072793196886778,-18.8975951414533,-6.43459883419294,-300.321283608509
738532.49850081838667392731,-18.9252906888028,-6.35151219214454,-300.339747306742
738532.49850090884137898684,-18.9160588396863,-6.45306253242592,-300.358211004975
738532.49850099941249936819,-18.8145084994049,-6.24073000274667,-300.376674703207
738532.49850108986720442772,-19.0176091799676,-6.53614917447432,-300.404370250557
738532.49850118032190948725,-19.0083773308512,-6.44383068330943,-300.339747306742
738532.49850127077661454678,-18.9714499343852,-6.48075807977538,-300.404370250557
738532.49850136123131960630,-18.9437543870357,-6.4622943815424,-300.413602099673
738532.49850145168602466583,-18.9068269905698,-6.35151219214454,-300.367442854091
738532.49850154214072972536,-18.9160588396863,-6.42536698507645,-300.302819910276
738532.49850163259543478489,-18.8883632923368,-6.30535294656209,-300.348979155858
738532.49850172305013984442,-18.8698995941038,-6.39767143772698,-300.39513840144
738532.49850181350484490395,-18.7868129520554,-6.20380260628071,-300.39513840144
738532.49850190407596528530,-18.8422040467544,-6.35151219214454,-300.367442854091
738532.49850199453067034483,-19.0268410290841,-6.44383068330943,-300.39513840144
738532.49850208498537540436,-18.9714499343852,-6.48998992889187,-300.404370250557
738532.49850217544008046389,-18.8883632923368,-6.31458479567858,-300.330515457625
738532.49850226589478552341,-18.9068269905698,-6.40690328684347,-300.376674703207
738532.49850235634949058294,-18.9252906888028,-6.35151219214454,-300.367442854091
738532.49850244680419564247,-18.8975951414533,-6.40690328684347,-300.39513840144
738532.49850253725890070200,-18.8975951414533,-6.32381664479507,-300.348979155858
738532.49850262771360576153,-18.8975951414533,-6.40690328684347,-300.42283394879
738532.49850271816831082106,-18.8329721976379,-6.26842555009613,-300.39513840144
738532.49850280862301588058,-18.7498855555895,-6.2130344553972,-300.321283608509
738532.49850289919413626194,-18.685262611774,-6.1299478133488,-300.376674703207
738532.49850298964884132147,-19.0637684255501,-6.54538102359081,-300.432065797906
738532.49850308010354638100,-19.0083773308512,-6.48075807977538,-300.39513840144
738532.49850317055825144053,-18.9345225379192,-6.38843958861049,-300.385906552324
738532.49850326101295650005,-18.9437543870357,-6.4622943815424,-300.432065797906
738532.49850335146766155958,-18.9345225379192,-6.33304849391156,-300.39513840144
738532.49850344192236661911,-18.9068269905698,-6.43459883419294,-300.302819910276
738532.49850353237707167864,-18.8791314432203,-6.2961210974456,-300.201269569994
738532.49850362283177673817,-18.8698995941038,-6.379207739494,-300.155110324412
738532.49850371328648179770,-18.8422040467544,-6.2961210974456,-300.256660664693
738532.49850380374118685722,-18.8514358958708,-6.36997589037751,-300.275124362926
738532.49850389431230723858,-18.7775811029389,-6.24996185186316,-300.284356212043
738532.49850398476701229811,-18.7775811029389,-6.27765739921262,-300.302819910276
738532.49850407522171735764,-18.759117404706,-6.24996185186316,-300.348979155858
738532.49850416567642241716,-18.72219000824,-6.24073000274667,-300.339747306742
738532.49850425613112747669,-18.9437543870357,-6.39767143772698,-300.376674703207
738532.49850434658583253622,-18.6667989135411,-6.1299478133488,-300.348979155858
738532.49850443704053759575,-18.8606677449873,-6.34228034302805,-300.302819910276
738532.49850452749524265528,-19.1099276711325,-6.57307657094027,-300.339747306742
738532.49850461794994771481,-19.0083773308512,-6.48075807977538,-300.367442854091
738532.49850470840465277433,-18.9806817835017,-6.379207739494,-300.339747306742
738532.49850479897577315569,-18.9529862361522,-6.42536698507645,-300.321283608509
738532.49850488943047821522,-18.9252906888028,-6.34228034302805,-300.284356212043
738532.49850497988518327475,-18.9437543870357,-6.42536698507645,-300.321283608509
738532.49850507033988833427,-18.9345225379192,-6.34228034302805,-300.339747306742
738532.49850516079459339380,-18.9437543870357,-6.42536698507645,-300.321283608509
738532.49850525124929845333,-18.9160588396863,-6.33304849391156,-300.385906552324
738532.49850534170400351286,-18.9068269905698,-6.35151219214454,-300.413602099673
738532.49850543215870857239,-18.9714499343852,-6.35151219214454,-300.358211004975
738532.49850552261341363192,-18.9714499343852,-6.36997589037751,-300.358211004975
738532.49850561306811869144,-18.8329721976379,-6.36074404126102,-300.358211004975
738532.49850570352282375097,-18.4913937803278,-6.2961210974456,-300.312051759392
738532.49850579409394413233,-17.9836420789209,-6.20380260628071,-300.23819696646
738532.49850588454864919186,-17.7343821527757,-6.12071596423231,-300.284356212043
738532.49850597500335425138,-18.5006256294443,-6.5546128727073,-300.376674703207
738532.49850606545805931091,-18.7314218573565,-6.60077211828974,-300.339747306742
738532.49850615591276437044,-18.8791314432203,-6.57307657094027,-300.404370250557
738532.49850624636746942997,-18.9068269905698,-6.40690328684347,-300.404370250557
738532.49850633682217448950,-18.8514358958708,-6.379207739494,-300.385906552324
738532.49850642727687954903,-18.5467848750267,-5.94531083101901,-300.348979155858
738532.49850651773158460855,-18.9714499343852,-6.48075807977538,-300.376674703207
738532.49850660818628966808,-19.119159520249,-6.51768547624134,-300.321283608509
738532.49850669864099472761,-19.0453047273171,-6.56384472182379,-300.358211004975
738532.49850678921211510897,-19.0083773308512,-6.38843958861049,-300.385906552324
738532.49850687966682016850,-18.9714499343852,-6.42536698507645,-300.367442854091
738532.49850697012152522802,-18.9252906888028,-6.28688924832911,-300.293588061159
738532.49850706057623028755,-18.9160588396863,-6.31458479567858,-300.228965117344
738532.49850715103093534708,-18.8975951414533,-6.36074404126102,-300.155110324412
738532.49850724148564040661,-18.9068269905698,-6.27765739921262,-300.256660664693
738532.49850733194034546614,-18.8883632923368,-6.33304849391156,-300.275124362926
738532.49850742239505052567,-18.703726310007,-6.06532486953337,-300.228965117344
738532.49850751284975558519,-18.8329721976379,-6.30535294656209,-300.312051759392
738532.49850760330446064472,-18.9622180852687,-6.33304849391156,-300.312051759392
738532.49850769375916570425,-18.9252906888028,-6.36997589037751,-300.321283608509
738532.49850778433028608561,-18.5375530259102,-5.89915158543657,-300.284356212043
738532.49850787478499114513,-19.0083773308512,-6.50845362712485,-300.348979155858
738532.49850796523969620466,-19.0083773308512,-6.379207739494,-300.330515457625
738532.49850805569440126419,-18.8883632923368,-6.35151219214454,-300.358211004975
738532.49850814614910632372,-18.6483352153081,-6.04686117130039,-300.247428815577
738532.49850823660381138325,-18.9068269905698,-6.38843958861049,-300.348979155858
738532.49850832705851644278,-18.8329721976379,-6.22226630451369,-300.339747306742
738532.49850841751322150230,-18.6760307626576,-6.15764336069826,-300.302819910276
738532.49850850796792656183,-18.8606677449873,-6.25919370097964,-300.293588061159
738532.49850859842263162136,-18.8237403485214,-6.28688924832911,-300.312051759392
738532.49850868899375200272,-18.6298715170751,-6.07455671864986,-300.284356212043
738532.49850877944845706224,-18.6944944608905,-6.18533890804773,-300.321283608509
738532.49850886990316212177,-18.6114078188421,-6.08378856776635,-300.312051759392
738532.49850896035786718130,-18.6206396679586,-6.02839747306742,-300.312051759392
738532.49850905081257224083,-18.6114078188421,-6.12071596423231,-300.23819696646
738532.49850914126727730036,-18.6760307626576,-6.09302041688284,-300.228965117344
738532.49850923172198235989,-18.7775811029389,-6.30535294656209,-300.339747306742
738532.49850932217668741941,-18.8975951414533,-6.2961210974456,-300.312051759392
738532.49850941263139247894,-18.9437543870357,-6.42536698507645,-300.293588061159
738532.49850950308609753847,-18.7868129520554,-6.16687520981475,-300.330515457625
738532.49850959354080259800,-18.9160588396863,-6.38843958861049,-300.367442854091
738532.49850968411192297935,-18.9252906888028,-6.30535294656209,-300.358211004975
738532.49850977456662803888,-18.8791314432203,-6.32381664479507,-300.284356212043
738532.49850986502133309841,-18.9252906888028,-6.31458479567858,-300.330515457625
738532.49850995547603815794,-18.9252906888028,-6.33304849391156,-300.339747306742
738532.49851004593074321747,-19.0360728782006,-6.43459883419294,-300.302819910276
738532.49851013638544827700,-18.9806817835017,-6.38843958861049,-300.367442854091
738532.49851022684015333652,-18.9806817835017,-6.38843958861049,-300.376674703207
738532.49851031729485839605,-18.8883632923368,-6.2961210974456,-300.275124362926
738532.49851040774956345558,-18.9345225379192,-6.35151219214454,-300.358211004975
738532.49851049820426851511,-18.8698995941038,-6.24996185186316,-300.367442854091
738532.49851058865897357464,-18.8698995941038,-6.31458479567858,-300.164342173528
738532.49851067923009395599,-18.9160588396863,-6.2961210974456,-300.275124362926
738532.49851076968479901552,-18.9345225379192,-6.379207739494,-300.376674703207
738532.49851086013950407505,-19.0083773308512,-6.379207739494,-300.367442854091
738532.49851095059420913458,-19.0360728782006,-6.48075807977538,-300.312051759392
738532.49851104104891419411,-18.9437543870357,-6.32381664479507,-300.367442854091
738532.49851113150361925364,-18.9806817835017,-6.40690328684347,-300.404370250557
738532.49851122195832431316,-18.8791314432203,-6.28688924832911,-300.367442854091
738532.49851131241302937269,-18.9345225379192,-6.34228034302805,-300.348979155858
738532.49851140286773443222,-18.7129581591235,-6.11148411511582,-300.385906552324
738532.49851149332243949175,-18.9160588396863,-6.30535294656209,-300.367442854091
738532.49851158389355987310,-19.0360728782006,-6.4622943815424,-300.348979155858
738532.49851167434826493263,-19.0083773308512,-6.379207739494,-300.404370250557
738532.49851176480296999216,-18.740653706473,-6.18533890804773,-300.404370250557
738532.49851185525767505169,-19.0822321237831,-6.48075807977538,-300.321283608509
738532.49851194571238011122,-18.9714499343852,-6.40690328684347,-300.376674703207
738532.49851203616708517075,-18.8883632923368,-6.24073000274667,-300.385906552324
738532.49851212662179023027,-18.8698995941038,-6.33304849391156,-300.330515457625
738532.49851221707649528980,-18.8975951414533,-6.25919370097964,-300.376674703207
738532.49851230753120034933,-18.8975951414533,-6.34228034302805,-300.413602099673
738532.49851239798590540886,-18.9252906888028,-6.27765739921262,-300.413602099673
738532.49851248844061046839,-18.9437543870357,-6.38843958861049,-300.339747306742
738532.49851257901173084974,-19.0637684255501,-6.42536698507645,-300.404370250557
738532.49851266946643590927,-19.0730002746666,-6.48075807977538,-300.42283394879
738532.49851275992114096880,-18.9160588396863,-6.33304849391156,-300.330515457625
738532.49851285037584602833,-19.0083773308512,-6.39767143772698,-300.339747306742
738532.49851294083055108786,-18.8698995941038,-6.31458479567858,-300.339747306742
738532.49851303128525614738,-18.9529862361522,-6.31458479567858,-300.330515457625
738532.49851312173996120691,-18.9252906888028,-6.36997589037751,-300.39513840144
738532.49851321219466626644,-18.8698995941038,-6.2130344553972,-300.339747306742
738532.49851330264937132597,-18.9345225379192,-6.36997589037751,-300.330515457625
738532.49851339310407638550,-18.9252906888028,-6.26842555009613,-300.312051759392
738532.49851348355878144503,-18.9437543870357,-6.40690328684347,-300.348979155858
738532.49851357412990182638,-18.9529862361522,-6.31458479567858,-300.275124362926
738532.49851366458460688591,-18.9899136326182,-6.4622943815424,-300.302819910276
738532.49851375503931194544,-18.9806817835017,-6.34228034302805,-300.312051759392
738532.49851384549401700497,-18.7868129520554,-6.27765739921262,-300.321283608509
738532.49851393594872206450,-18.9345225379192,-6.33304849391156,-300.293588061159
738532.49851402640342712402,-18.9529862361522,-6.45306253242592,-300.39513840144
738532.49851411685813218355,-18.8698995941038,-6.27765739921262,-300.219733268227
738532.49851420731283724308,-18.8237403485214,-6.30535294656209,-300.302819910276
738532.49851429776754230261,-18.7960448011719,-6.20380260628071,-300.385906552324
738532.49851438822224736214,-18.8514358958708,-6.30535294656209,-300.385906552324
738532.49851447867695242167,-18.8514358958708,-6.24996185186316,-300.376674703207
738532.49851456924807280302,-18.8975951414533,-6.25919370097964,-300.348979155858
738532.49851465970277786255,-18.685262611774,-6.15764336069826,-300.367442854091
738532.49851475015748292208,-18.8329721976379,-6.2130344553972,-300.39513840144
738532.49851484061218798161,-19.137623218482,-6.61000396740623,-300.450529496139
738532.49851493106689304113,-18.9160588396863,-6.24073000274667,-300.358211004975
738532.49851502152159810066,-18.8975951414533,-6.34228034302805,-300.450529496139
738532.49851511197630316019,-19.1283913693655,-6.47152623065889,-300.42283394879
738532.49851520243100821972,-19.0360728782006,-6.4622943815424,-300.348979155858
738532.49851529288571327925,-18.9806817835017,-6.31458479567858,-300.385906552324
738532.49851538334041833878,-18.9806817835017,-6.43459883419294,-300.432065797906
738532.49851547391153872013,-18.9529862361522,-6.28688924832911,-300.302819910276
738532.49851556436624377966,-18.9622180852687,-6.36997589037751,-300.42283394879
738532.49851565482094883919,-19.0083773308512,-6.2961210974456,-300.39513840144
738532.49851574527565389872,-18.8698995941038,-6.30535294656209,-300.348979155858
738532.49851583573035895824,-18.6021759697256,-6.27765739921262,-300.339747306742
738532.49851592618506401777,-18.2329020050661,-6.28688924832911,-300.312051759392
738532.49851601663976907730,-17.6789910580767,-6.1299478133488,-300.256660664693
738532.49851610709447413683,-18.0390331736198,-6.24073000274667,-300.284356212043
738532.49851619754917919636,-18.5929441206091,-6.57307657094027,-300.413602099673
738532.49851628800388425589,-18.759117404706,-6.41613513595996,-300.404370250557
738532.49851637845858931541,-18.9345225379192,-6.4622943815424,-300.321283608509
738532.49851646902970969677,-18.9899136326182,-6.41613513595996,-300.367442854091
738532.49851655948441475630,-18.9345225379192,-6.379207739494,-300.321283608509
738532.49851664993911981583,-18.9160588396863,-6.26842555009613,-300.293588061159
738532.49851674039382487535,-19.0083773308512,-6.43459883419294,-300.284356212043
738532.49851683084852993488,-18.9622180852687,-6.31458479567858,-300.302819910276
738532.49851692130323499441,-18.9622180852687,-6.36074404126102,-300.321283608509
738532.49851701175794005394,-18.9068269905698,-6.25919370097964,-300.284356212043
738532.49851710221264511347,-18.9160588396863,-6.2961210974456,-300.358211004975
738532.49851719266735017300,-18.8975951414533,-6.24996185186316,-300.348979155858
738532.49851728312205523252,-18.8606677449873,-6.2130344553972,-300.321283608509
738532.49851737357676029205,-18.5190893276772,-5.86222418897061,-300.312051759392
738532.49851746414788067341,-18.9899136326182,-6.30535294656209,-300.330515457625
738532.49851755460258573294,-19.0637684255501,-6.41613513595996,-300.321283608509
738532.49851764505729079247,-18.9622180852687,-6.28688924832911,-300.136646626179
738532.49851773551199585199,-18.8791314432203,-6.26842555009613,-300.23819696646
738532.49851782596670091152,-18.8606677449873,-6.18533890804773,-300.256660664693
738532.49851791642140597105,-18.8514358958708,-6.24996185186316,-300.284356212043
738532.49851800687611103058,-18.7129581591235,-6.02839747306742,-300.321283608509
738532.49851809733081609011,-18.740653706473,-6.16687520981475,-300.339747306742
738532.49851818778552114964,-18.9437543870357,-6.23149815363018,-300.293588061159
738532.49851827824022620916,-18.8422040467544,-6.24073000274667,-300.312051759392
738532.49851836881134659052,-18.6575670644246,-6.00070192571795,-300.321283608509
738532.49851845926605165005,-18.740653706473,-6.09302041688284,-300.358211004975
738532.49851854972075670958,-18.8698995941038,-6.2130344553972,-300.312051759392
738532.49851864017546176910,-18.7868129520554,-6.11148411511582,-300.339747306742
738532.49851873063016682863,-18.7129581591235,-6.08378856776635,-300.339747306742
738532.49851882108487188816,-18.6667989135411,-5.99147007660146,-300.247428815577
738532.49851891153957694769,-18.6114078188421,-6.00993377483444,-300.284356212043
738532.49851900199428200722,-18.5283211767937,-5.90838343455306,-300.256660664693
738532.49851909244898706675,-18.5837122714927,-6.01916562395093,-300.201269569994
738532.49851918290369212627,-18.4636982329783,-5.7883693960387,-300.228965117344
738532.49851927335839718580,-18.5560167241432,-5.98223822748497,-300.256660664693
738532.49851936392951756716,-18.6944944608905,-6.00993377483444,-300.228965117344
738532.49851945438422262669,-18.6021759697256,-6.0376293221839,-300.275124362926
738532.49851954483892768621,-18.5006256294443,-5.79760124515519,-300.284356212043
738532.49851963529363274574,-18.9068269905698,-6.32381664479507,-300.312051759392
738532.49851972574833780527,-18.9345225379192,-6.24996185186316,-300.26589251381
738532.49851981620304286480,-18.9714499343852,-6.36074404126102,-300.339747306742
738532.49851990665774792433,-18.9345225379192,-6.19457075716422,-300.312051759392
738532.49851999711245298386,-18.9252906888028,-6.2961210974456,-300.26589251381
738532.49852008756715804338,-18.8698995941038,-6.14841151158177,-300.247428815577
738532.49852017802186310291,-18.8422040467544,-6.19457075716422,-300.302819910276
738532.49852026847656816244,-18.8514358958708,-6.20380260628071,-300.312051759392
738532.49852035904768854380,-18.7498855555895,-6.01916562395093,-300.284356212043
738532.49852044950239360332,-18.4452345347453,-5.79760124515519,-300.247428815577
738532.49852053995709866285,-18.9252906888028,-6.19457075716422,-300.302819910276
738532.49852063041180372238,-19.0822321237831,-6.45306253242592,-300.321283608509
738532.49852072086650878191,-18.9345225379192,-6.19457075716422,-300.228965117344
738532.49852081132121384144,-18.9345225379192,-6.30535294656209,-300.321283608509
738532.49852090177591890097,-18.9068269905698,-6.18533890804773,-300.293588061159
738532.49852099223062396049,-18.8145084994049,-6.17610705893124,-300.302819910276
738532.49852108268532902002,-18.7314218573565,-6.00993377483444,-300.23819696646
738532.49852117314003407955,-18.6667989135411,-6.02839747306742,-300.192037720878
738532.49852126359473913908,-18.8052766502884,-6.06532486953337,-300.201269569994
738532.49852135416585952044,-19.0083773308512,-6.36997589037751,-300.23819696646
738532.49852144462056457996,-18.8883632923368,-6.18533890804773,-300.284356212043
738532.49852153507526963949,-18.7775811029389,-6.12071596423231,-300.284356212043
738532.49852162552997469902,-18.8422040467544,-6.14841151158177,-300.256660664693
738532.49852171598467975855,-18.8329721976379,-6.16687520981475,-300.302819910276
738532.49852180643938481808,-18.703726310007,-6.01916562395093,-300.284356212043
738532.49852189689408987761,-18.8237403485214,-6.16687520981475,-300.26589251381
738532.49852198734879493713,-18.6575670644246,-5.98223822748497,-300.228965117344
738532.49852207780349999666,-18.8698995941038,-6.17610705893124,-300.23819696646
738532.49852216825820505619,-18.9068269905698,-6.27765739921262,-300.23819696646
738532.49852225882932543755,-18.8329721976379,-6.10225226599933,-300.23819696646
738532.49852234928403049707,-18.8422040467544,-6.22226630451369,-300.23819696646
738532.49852243973873555660,-18.7683492538224,-6.07455671864986,-300.210501419111
738532.49852253019344061613,-18.9160588396863,-6.28688924832911,-300.228965117344
738532.49852262064814567566,-18.7868129520554,-6.07455671864986,-300.228965117344
738532.49852271110285073519,-18.6944944608905,-6.0376293221839,-300.284356212043
738532.49852280155755579472,-18.8698995941038,-6.18533890804773,-300.247428815577
738532.49852289201226085424,-18.8698995941038,-6.23149815363018,-300.321283608509
738532.49852298246696591377,-18.6021759697256,-5.90838343455306,-300.321283608509
738532.49852307292167097330,-18.759117404706,-6.10225226599933,-300.228965117344
738532.49852316337637603283,-18.7683492538224,-6.11148411511582,-300.293588061159
738532.49852325394749641418,-18.7683492538224,-6.10225226599933,-300.339747306742
738532.49852334440220147371,-18.6760307626576,-6.04686117130039,-300.228965117344
738532.49852343485690653324,-18.8606677449873,-6.19457075716422,-300.284356212043
738532.49852352531161159277,-18.8698995941038,-6.24996185186316,-300.321283608509
738532.49852361576631665230,-18.8052766502884,-6.10225226599933,-300.26589251381
738532.49852370622102171183,-18.740653706473,-6.1299478133488,-300.275124362926
738532.49852379667572677135,-18.72219000824,-6.04686117130039,-300.284356212043
738532.49852388713043183088,-18.6021759697256,-6.00993377483444,-300.275124362926
738532.49852397758513689041,-18.740653706473,-6.05609302041688,-300.219733268227
738532.49852406803984194994,-18.8606677449873,-6.24996185186316,-300.275124362926
738532.49852415849454700947,-18.759117404706,-6.1299478133488,-300.275124362926
738532.49852424906566739082,-18.5929441206091,-5.98223822748497,-300.26589251381
738532.49852433952037245035,-18.7868129520554,-6.15764336069826,-300.247428815577
738532.49852442997507750988,-18.7314218573565,-6.10225226599933,-300.275124362926
738532.49852452042978256941,-18.5929441206091,-6.00993377483444,-300.26589251381
738532.49852461088448762894,-18.5837122714927,-5.99147007660146,-300.247428815577
738532.49852470133919268847,-18.6667989135411,-6.14841151158177,-300.118182927946
738532.49852479179389774799,-18.6760307626576,-6.08378856776635,-300.155110324412
738532.49852488224860280752,-18.5652485732597,-6.05609302041688,-300.256660664693
738532.49852497270330786705,-18.5006256294443,-5.88991973632008,-300.23819696646
738532.49852506315801292658,-18.6667989135411,-6.1299478133488,-300.256660664693
738532.49852515372913330793,-18.685262611774,-6.06532486953337,-300.201269569994
738532.49852524418383836746,-18.6760307626576,-6.17610705893124,-300.219733268227
738532.49852533463854342699,-18.6114078188421,-5.99147007660146,-300.219733268227
738532.49852542509324848652,-18.7129581591235,-6.19457075716422,-300.23819696646
738532.49852551554795354605,-18.685262611774,-6.04686117130039,-300.219733268227
738532.49852560600265860558,-18.6206396679586,-6.08378856776635,-300.219733268227
738532.49852569645736366510,-18.6483352153081,-5.99147007660146,-300.210501419111
738532.49852578691206872463,-18.6298715170751,-6.07455671864986,-300.210501419111
738532.49852587736677378416,-18.7129581591235,-6.08378856776635,-300.228965117344
738532.49852596782147884369,-18.685262611774,-6.06532486953337,-300.23819696646
738532.49852605827618390322,-18.6667989135411,-6.13917966246528,-300.228965117344
738532.49852614884730428457,-18.6944944608905,-6.05609302041688,-300.201269569994
738532.49852623930200934410,-18.740653706473,-6.14841151158177,-300.228965117344
738532.49852632975671440363,-18.5837122714927,-6.0376293221839,-300.182805871761
738532.49852642021141946316,-18.2144383068331,-6.09302041688284,-300.155110324412
738532.49852651066612452269,-17.6605273598437,-5.80683309427168,-300.155110324412
738532.49852660112082958221,-17.3281807916501,-5.93607898190252,-300.201269569994
738532.49852669157553464174,-17.8636280404065,-6.0376293221839,-300.192037720878
738532.49852678203023970127,-18.3713797418134,-6.44383068330943,-300.330515457625
738532.49852687248494476080,-18.5283211767937,-6.15764336069826,-300.302819910276
738532.49852696293964982033,-18.5929441206091,-6.2130344553972,-300.293588061159
738532.49852705339435487986,-18.5929441206091,-6.05609302041688,-300.23819696646
738532.49852714396547526121,-18.5837122714927,-6.1299478133488,-300.26589251381
738532.49852723442018032074,-18.5467848750267,-5.98223822748497,-300.247428815577
738532.49852732487488538027,-18.5006256294443,-6.00070192571795,-300.201269569994
738532.49852741532959043980,-18.5929441206091,-6.0376293221839,-300.275124362926
738532.49852750578429549932,-18.5929441206091,-6.06532486953337,-300.284356212043
738532.49852759623900055885,-18.4913937803278,-5.92684713278603,-300.173574022645
738532.49852768669370561838,-18.5467848750267,-6.01916562395093,-300.182805871761
738532.49852777714841067791,-18.5929441206091,-6.11148411511582,-300.182805871761
738532.49852786760311573744,-18.5560167241432,-5.96377452925199,-300.164342173528
738532.49852795805782079697,-18.5190893276772,-6.04686117130039,-300.145878475295
738532.49852804851252585649,-18.3990752891629,-5.82529679250465,-300.155110324412
738532.49852813908364623785,-18.5375530259102,-6.06532486953337,-300.23819696646
738532.49852822953835129738,-18.5375530259102,-5.98223822748497,-300.173574022645
738532.49852831999305635691,-18.5098574785607,-6.04686117130039,-300.136646626179
738532.49852841044776141644,-18.3806115909299,-5.83452864162114,-300.228965117344
738532.49852850090246647596,-18.1959746086001,-5.71451460310678,-300.210501419111
738532.49852859135717153549,-18.5837122714927,-6.05609302041688,-300.192037720878
738532.49852868181187659502,-18.5467848750267,-6.06532486953337,-300.228965117344
738532.49852877226658165455,-18.4267708365123,-5.90838343455306,-300.155110324412
738532.49852886272128671408,-18.5098574785607,-6.02839747306742,-300.173574022645
738532.49852895317599177361,-18.4544663838618,-5.96377452925199,-300.182805871761
738532.49852904374711215496,-18.3898434400464,-5.89915158543657,-300.155110324412
738532.49852913420181721449,-18.3529160435804,-5.8714560380871,-300.136646626179
738532.49852922465652227402,-18.3159886471145,-5.81606494338816,-300.145878475295
738532.49852931511122733355,-18.306756797998,-5.86222418897061,-300.164342173528
738532.49852940556593239307,-18.2605975524155,-5.77913754692221,-300.136646626179
738532.49852949602063745260,-18.1959746086001,-5.7883693960387,-300.182805871761
738532.49852958647534251213,-18.2052064577166,-5.75144199957274,-300.118182927946
738532.49852967693004757166,-18.1498153630177,-5.76990569780572,-300.108951078829
738532.49852976738475263119,-17.9190191351054,-5.48371837519456,-300.099719229713
738532.49852985783945769072,-18.4083071382794,-6.0376293221839,-300.164342173528
738532.49852994829416275024,-18.3436841944639,-5.91761528366955,-300.182805871761
738532.49853003886528313160,-18.3713797418134,-5.97300637836848,-300.210501419111
738532.49853012931998819113,-18.325220496231,-5.88991973632008,-300.192037720878
738532.49853021977469325066,-18.4729300820948,-6.04686117130039,-300.127414777062
738532.49853031022939831018,-18.4729300820948,-6.04686117130039,-300.219733268227
738532.49853040068410336971,-18.3713797418134,-5.92684713278603,-300.145878475295
738532.49853049113880842924,-18.5283211767937,-6.12071596423231,-300.228965117344
738532.49853058159351348877,-18.5283211767937,-6.07455671864986,-300.201269569994
738532.49853067204821854830,-18.3990752891629,-5.96377452925199,-300.219733268227
738532.49853076250292360783,-18.4267708365123,-5.92684713278603,-300.26589251381
738532.49853085295762866735,-18.6021759697256,-6.19457075716422,-300.182805871761
738532.49853094341233372688,-18.5283211767937,-6.04686117130039,-300.210501419111
738532.49853103398345410824,-18.4729300820948,-6.08378856776635,-300.23819696646
738532.49853112443815916777,-18.1867427594836,-5.68681905575732,-300.164342173528
738532.49853121489286422729,-18.5929441206091,-6.22226630451369,-300.23819696646
738532.49853130534756928682,-18.6483352153081,-6.17610705893124,-300.228965117344
738532.49853139580227434635,-18.3898434400464,-6.00993377483444,-300.219733268227
738532.49853148625697940588,-18.2975249488815,-5.82529679250465,-300.155110324412
738532.49853157671168446541,-18.5098574785607,-6.09302041688284,-300.210501419111
738532.49853166716638952494,-18.685262611774,-6.30535294656209,-300.228965117344
738532.49853175762109458447,-18.6021759697256,-6.14841151158177,-300.201269569994
738532.49853184807579964399,-18.4544663838618,-6.0376293221839,-300.08125553148
738532.49853193864692002535,-18.325220496231,-5.84376049073763,-300.210501419111
738532.49853202910162508488,-18.6114078188421,-6.22226630451369,-300.23819696646
738532.49853211955633014441,-18.6575670644246,-6.18533890804773,-300.182805871761
738532.49853221001103520393,-18.5375530259102,-6.18533890804773,-300.23819696646
738532.49853230046574026346,-18.5190893276772,-6.04686117130039,-300.219733268227
738532.49853239092044532299,-18.5190893276772,-6.13917966246528,-300.201269569994
738532.49853248137515038252,-18.5098574785607,-6.0376293221839,-300.219733268227
738532.49853257182985544205,-18.4821619312113,-6.12071596423231,-300.247428815577
738532.49853266228456050158,-18.288293099765,-5.80683309427168,-300.192037720878
738532.49853275273926556110,-18.4267708365123,-6.05609302041688,-300.155110324412
738532.49853284319397062063,-18.72219000824,-6.25919370097964,-300.219733268227
738532.49853293376509100199,-18.5652485732597,-6.2130344553972,-300.256660664693
738532.49853302421979606152,-18.3529160435804,-5.89915158543657,-300.090487380596
738532.49853311467450112104,-18.6021759697256,-6.24073000274667,-300.164342173528
738532.49853320512920618057,-18.6206396679586,-6.19457075716422,-300.136646626179
738532.49853329558391124010,-18.5652485732597,-6.18533890804773,-300.136646626179
738532.49853338603861629963,-18.5006256294443,-6.04686117130039,-300.145878475295
738532.49853347649332135916,-18.5283211767937,-6.05609302041688,-300.182805871761
738532.49853356694802641869,-18.5467848750267,-6.18533890804773,-300.228965117344
738532.49853365740273147821,-18.5190893276772,-6.04686117130039,-300.155110324412
738532.49853374785743653774,-18.2421338541826,-5.86222418897061,-300.164342173528
738532.49853383831214159727,-18.1128879665517,-5.62219611194189,-300.118182927946
738532.49853392888326197863,-18.8698995941038,-6.51768547624134,-300.210501419111
738532.49853401933796703815,-18.5560167241432,-6.07455671864986,-300.164342173528
738532.49853410979267209768,-18.6575670644246,-6.28688924832911,-300.182805871761
738532.49853420024737715721,-18.6114078188421,-6.13917966246528,-300.182805871761
738532.49853429070208221674,-18.5652485732597,-6.19457075716422,-300.164342173528
738532.49853438115678727627,-18.3898434400464,-5.94531083101901,-300.127414777062
738532.49853447161149233580,-18.4821619312113,-6.10225226599933,-300.192037720878
738532.49853456206619739532,-18.685262611774,-6.22226630451369,-300.192037720878
738532.49853465252090245485,-18.6298715170751,-6.19457075716422,-300.173574022645
738532.49853474297560751438,-18.5098574785607,-6.05609302041688,-300.164342173528
738532.49853483343031257391,-18.4821619312113,-6.0376293221839,-300.247428815577
738532.49853492400143295527,-18.6483352153081,-6.20380260628071,-300.164342173528
738532.49853501445613801479,-18.4083071382794,-5.9545426801355,-300.201269569994
738532.49853510491084307432,-18.4821619312113,-6.05609302041688,-300.219733268227
738532.49853519536554813385,-18.703726310007,-6.24996185186316,-300.173574022645
738532.49853528582025319338,-18.6021759697256,-6.2130344553972,-300.136646626179
738532.49853537627495825291,-18.5652485732597,-6.10225226599933,-300.062791833247
738532.49853546672966331244,-18.5467848750267,-6.20380260628071,-300.23819696646
738532.49853555718436837196,-18.4544663838618,-6.02839747306742,-300.155110324412
738532.49853564763907343149,-18.3806115909299,-6.01916562395093,-300.201269569994
738532.49853573809377849102,-18.5006256294443,-6.07455671864986,-300.23819696646
738532.49853582866489887238,-18.5098574785607,-6.12071596423231,-300.201269569994
738532.49853591911960393190,-18.4175389873959,-5.98223822748497,-300.182805871761
738532.49853600957430899143,-18.288293099765,-5.85299233985412,-300.201269569994
738532.49853610002901405096,-18.5375530259102,-6.11148411511582,-300.247428815577
738532.49853619048371911049,-18.740653706473,-6.30535294656209,-300.210501419111
738532.49853628093842417002,-18.6021759697256,-6.17610705893124,-300.219733268227
738532.49853637139312922955,-18.6298715170751,-6.16687520981475,-300.23819696646
738532.49853646184783428907,-18.5467848750267,-6.13917966246528,-300.145878475295
738532.49853655230253934860,-18.6206396679586,-6.15764336069826,-300.210501419111
738532.49853664275724440813,-18.5929441206091,-6.19457075716422,-300.23819696646
738532.49853673321194946766,-18.6114078188421,-6.14841151158177,-300.155110324412
738532.49853682378306984901,-18.5929441206091,-6.22226630451369,-300.210501419111
738532.49853691423777490854,-18.5652485732597,-6.07455671864986,-300.23819696646
738532.49853700469247996807,-18.4729300820948,-6.01916562395093,-300.219733268227
738532.49853709514718502760,-18.4452345347453,-5.93607898190252,-300.173574022645
738532.49853718560189008713,-18.3898434400464,-6.2130344553972,-300.182805871761
738532.49853727605659514666,-18.2790612506485,-6.23149815363018,-300.201269569994
738532.49853736651130020618,-17.8451643421735,-6.20380260628071,-300.062791833247
738532.49853745696600526571,-17.3835718863491,-6.05609302041688,-300.118182927946
738532.49853754742071032524,-17.8174687948241,-6.11148411511582,-300.201269569994
738532.49853763787541538477,-18.2790612506485,-6.4622943815424,-300.275124362926
738532.49853772833012044430,-18.5190893276772,-6.27765739921262,-300.219733268227
738532.49853781890124082565,-18.5190893276772,-6.2130344553972,-300.219733268227
738532.49853790935594588518,-18.4821619312113,-6.05609302041688,-300.164342173528
738532.49853799981065094471,-18.5837122714927,-6.2130344553972,-300.247428815577
738532.49853809026535600424,-18.5190893276772,-6.06532486953337,-300.182805871761
738532.49853818072006106377,-18.5467848750267,-6.19457075716422,-300.164342173528
738532.49853827117476612329,-18.4821619312113,-6.0376293221839,-300.127414777062
738532.49853836162947118282,-18.269829401532,-5.92684713278603,-300.072023682363
738532.49853845208417624235,-18.685262611774,-6.2130344553972,-300.108951078829
738532.49853854253888130188,-18.6944944608905,-6.33304849391156,-300.127414777062
738532.49853863299358636141,-18.6944944608905,-6.24996185186316,-300.05355998413
738532.49853872356470674276,-18.6114078188421,-6.25919370097964,-300.136646626179
738532.49853881401941180229,-18.5652485732597,-6.10225226599933,-299.961241492965
738532.49853890447411686182,-18.5006256294443,-6.1299478133488,-300.118182927946
738532.49853899492882192135,-18.5283211767937,-6.09302041688284,-300.173574022645
738532.49853908538352698088,-18.5467848750267,-6.18533890804773,-300.173574022645
738532.49853917583823204041,-18.4452345347453,-6.09302041688284,-300.164342173528
738532.49853926629293709993,-18.2975249488815,-5.85299233985412,-300.145878475295
738532.49853935674764215946,-18.3713797418134,-6.01916562395093,-300.173574022645
738532.49853944720234721899,-18.6298715170751,-6.17610705893124,-300.228965117344
738532.49853953765705227852,-18.7314218573565,-6.38843958861049,-300.182805871761
738532.49853962811175733805,-18.5929441206091,-6.13917966246528,-300.173574022645
738532.49853971868287771940,-18.5190893276772,-6.16687520981475,-300.192037720878
738532.49853980913758277893,-18.4636982329783,-6.00070192571795,-300.099719229713
738532.49853989959228783846,-18.4175389873959,-6.04686117130039,-300.192037720878
738532.49853999004699289799,-18.3713797418134,-5.93607898190252,-300.164342173528
738532.49854008050169795752,-18.3898434400464,-6.0376293221839,-300.155110324412
738532.49854017095640301704,-18.2513657032991,-5.82529679250465,-300.118182927946
738532.49854026141110807657,-18.1498153630177,-5.84376049073763,-300.155110324412
738532.49854035186581313610,-18.1959746086001,-5.82529679250465,-300.099719229713
738532.49854044232051819563,-18.3344523453475,-6.00070192571795,-300.118182927946
738532.49854053277522325516,-18.3436841944639,-5.9545426801355,-300.108951078829
738532.49854062322992831469,-18.3806115909299,-6.05609302041688,-300.127414777062
738532.49854071380104869604,-18.3806115909299,-6.02839747306742,-300.108951078829
738532.49854080425575375557,-18.3990752891629,-6.05609302041688,-300.136646626179
738532.49854089471045881510,-18.3990752891629,-6.06532486953337,-300.145878475295
738532.49854098516516387463,-18.3898434400464,-6.02839747306742,-300.136646626179
738532.49854107561986893415,-18.4267708365123,-6.12071596423231,-300.136646626179
738532.49854116607457399368,-18.5375530259102,-6.1299478133488,-300.164342173528
738532.49854125652927905321,-18.4267708365123,-6.11148411511582,-300.118182927946
738532.49854134698398411274,-18.3990752891629,-5.99147007660146,-300.090487380596
738532.49854143743868917227,-18.6667989135411,-6.35151219214454,-300.164342173528
738532.49854152789339423180,-18.5652485732597,-6.15764336069826,-300.099719229713
738532.49854161834809929132,-18.6206396679586,-6.26842555009613,-300.155110324412
738532.49854170891921967268,-18.6298715170751,-6.24073000274667,-300.127414777062
738532.49854179937392473221,-18.6483352153081,-6.27765739921262,-300.155110324412
738532.49854188982862979174,-18.5837122714927,-6.22226630451369,-300.155110324412
738532.49854198028333485126,-18.5744804223762,-6.19457075716422,-300.145878475295
738532.49854207073803991079,-18.5467848750267,-6.17610705893124,-300.136646626179
738532.49854216119274497032,-18.5652485732597,-6.18533890804773,-300.164342173528
738532.49854225164745002985,-18.5560167241432,-6.19457075716422,-300.127414777062
738532.49854234210215508938,-18.5467848750267,-6.14841151158177,-300.016632587664
738532.49854243255686014891,-18.5467848750267,-6.22226630451369,-300.108951078829
738532.49854252301156520844,-18.5467848750267,-6.15764336069826,-300.155110324412
738532.49854261358268558979,-18.5744804223762,-6.25919370097964,-300.164342173528
738532.49854270403739064932,-18.5467848750267,-6.14841151158177,-300.118182927946
738532.49854279449209570885,-18.5467848750267,-6.23149815363018,-300.228965117344
738532.49854288494680076838,-18.5560167241432,-6.14841151158177,-300.182805871761
738532.49854297540150582790,-18.5652485732597,-6.22226630451369,-300.210501419111
738532.49854306585621088743,-18.5375530259102,-6.17610705893124,-300.145878475295
738532.49854315631091594696,-18.5652485732597,-6.20380260628071,-300.210501419111
738532.49854324676562100649,-18.5006256294443,-6.15764336069826,-300.127414777062
738532.49854333722032606602,-18.5560167241432,-6.18533890804773,-300.164342173528
738532.49854342767503112555,-18.4729300820948,-6.1299478133488,-300.219733268227
