time_dn,ecg_projection_ll_ra_mV,ecg_projection_la_ra_mV,ecg_projection_vx_rl_mV
738532.56958541471976786852,-12.2691274758141,-120.715659047212,-302.509231849116
738532.56958550517447292805,-12.2691274758141,-120.789513840144,-302.509231849116
738532.56958559562917798758,-12.2968230231635,-120.531022064882,-302.509231849116
738532.56958568596746772528,-12.30605487228,-120.780281991028,-302.509231849116
738532.56958577642217278481,-12.342982268746,-120.189443647572,-302.509231849116
738532.56958586687687784433,-12.3706778160955,-120.891064180425,-302.509231849116
738532.56958595733158290386,-12.3983733634449,-119.95864741966,-302.509231849116
738532.56958604778628796339,-12.4076052125614,-120.927991576891,-302.509231849116
738532.56958613824099302292,-12.4076052125614,-120.106357005524,-302.509231849116
738532.56958622869569808245,-12.4353007599109,-120.567949461348,-302.509231849116
738532.56958631915040314198,-12.4353007599109,-120.161748100223,-302.509231849116
738532.56958640960510820150,-12.4445326090274,-120.614108706931,-302.509231849116
738532.56958650005981326103,-12.4168370616779,-120.447935422834,-302.509231849116
738532.56958659051451832056,-12.4445326090274,-120.189443647572,-302.509231849116
738532.56958668085280805826,-12.4260689107944,-120.4848628193,-302.509231849116
738532.56958677130751311779,-12.4353007599109,-120.281762138737,-302.509231849116
738532.56958686176221817732,-12.4260689107944,-120.687963499863,-302.509231849116
738532.56958695221692323685,-12.4353007599109,-120.106357005524,-302.509231849116
738532.56958704267162829638,-12.4260689107944,-120.706427198096,-302.509231849116
738532.56958713312633335590,-12.4353007599109,-119.921720023194,-302.509231849116
738532.56958722358103841543,-12.4537644581439,-120.807977538377,-302.509231849116
738532.56958731403574347496,-12.4445326090274,-119.80170598468,-302.509231849116
738532.56958740449044853449,-12.4537644581439,-120.891064180425,-302.509231849116
738532.56958749494515359402,-12.4445326090274,-119.810937833796,-302.509231849116
738532.56958758539985865355,-12.4537644581439,-120.891064180425,-302.509231849116
738532.56958767573814839125,-12.4445326090274,-119.829401532029,-302.509231849116
738532.56958776619285345078,-12.4537644581439,-121.038773766289,-302.509231849116
738532.56958785664755851030,-12.4445326090274,-119.737083040864,-302.509231849116
738532.56958794710226356983,-12.4629963072604,-121.01107821894,-302.509231849116
738532.56958803755696862936,-12.4537644581439,-120.724890896329,-302.509231849116
738532.56958812801167368889,-12.4722281563768,-120.272530289621,-302.509231849116
738532.56958821846637874842,-12.4537644581439,-120.974150822474,-302.509231849116
738532.56958830892108380795,-12.4445326090274,-120.318689535203,-302.509231849116
738532.56958839937578886747,-12.4722281563768,-121.260338145085,-302.509231849116
738532.56958848983049392700,-12.4722281563768,-120.30022583697,-302.509231849116
738532.56958858016878366470,-12.4629963072604,-121.241874446852,-302.509231849116
738532.56958867062348872423,-12.4537644581439,-120.272530289621,-302.509231849116
738532.56958876107819378376,-12.4353007599109,-121.435743278298,-302.509231849116
738532.56958885153289884329,-12.4168370616779,-120.318689535203,-302.509231849116
738532.56958894198760390282,-12.3983733634449,-121.454206976531,-302.509231849116
738532.56958903244230896235,-12.3706778160955,-120.254066591388,-302.509231849116
738532.56958912289701402187,-12.3522141178625,-121.398815881832,-302.509231849116
738532.56958921335171908140,-12.3522141178625,-120.309457686087,-302.509231849116
738532.56958930380642414093,-12.3891415143284,-121.3249610889,-302.509231849116
738532.56958939426112920046,-12.4260689107944,-120.337153233436,-302.509231849116
738532.56958948471583425999,-12.4537644581439,-121.112628559221,-302.509231849116
738532.56958957505412399769,-12.4629963072604,-120.217139194922,-302.509231849116
738532.56958966550882905722,-12.4906918546098,-120.854136783959,-302.509231849116
738532.56958975596353411674,-12.4814600054933,-120.438703573717,-302.509231849116
738532.56958984641823917627,-12.4999237037263,-120.798745689261,-302.509231849116
738532.56958993687294423580,-12.4906918546098,-121.241874446852,-302.509231849116
738532.56959002732764929533,-12.4999237037263,-120.604876857814,-302.509231849116
738532.56959011778235435486,-12.5183874019593,-121.85117648854,-302.509231849116
738532.56959020823705941439,-12.4999237037263,-120.798745689261,-302.509231849116
738532.56959029869176447392,-12.5091555528428,-122.054277169103,-302.509231849116
738532.56959038914646953344,-12.4999237037263,-121.020310068056,-302.509231849116
738532.56959047960117459297,-12.5368511001923,-121.998886074404,-302.509231849116
738532.56959056993946433067,-12.5645466475417,-121.066469313639,-302.509231849116
738532.56959066039416939020,-12.4629963072604,-121.915799432356,-302.509231849116
738532.56959075084887444973,-12.1398815881832,-121.066469313639,-302.509231849116
738532.56959084130357950926,-11.7059846797082,-121.463438825648,-302.509231849116
738532.56959093175828456879,-11.4290292062136,-120.863368633076,-302.509231849116
738532.56959102221298962831,-11.9183172093875,-121.611148411512,-302.509231849116
738532.56959111266769468784,-12.2137363811151,-121.749626148259,-302.509231849116
738532.56959120312239974737,-12.4353007599109,-121.971190527055,-302.509231849116
738532.56959129357710480690,-12.4814600054933,-121.998886074404,-302.509231849116
738532.56959138403180986643,-12.4906918546098,-121.841944639424,-302.509231849116
738532.56959147437009960413,-12.4906918546098,-122.081972716453,-302.509231849116
738532.56959156482480466366,-12.5091555528428,-121.564989165929,-302.509231849116
738532.56959165527950972319,-12.4906918546098,-122.091204565569,-302.509231849116
738532.56959174573421478271,-12.4814600054933,-121.269569994201,-302.509231849116
738532.56959183618891984224,-12.4906918546098,-122.165059358501,-302.509231849116
738532.56959192664362490177,-12.4814600054933,-121.35265663625,-302.509231849116
738532.56959201709832996130,-12.4814600054933,-122.026581621754,-302.509231849116
738532.56959210755303502083,-12.4722281563768,-121.306497390667,-302.509231849116
738532.56959219800774008036,-12.4722281563768,-121.685003204443,-302.509231849116
738532.56959228846244513988,-12.4537644581439,-121.278801843318,-302.509231849116
738532.56959237891715019941,-12.4629963072604,-121.417279580065,-302.509231849116
738532.56959246925543993711,-12.4445326090274,-121.361888485366,-302.509231849116
738532.56959255971014499664,-12.4445326090274,-121.16801965392,-302.509231849116
738532.56959265016485005617,-12.4260689107944,-121.389584032716,-302.509231849116
738532.56959274061955511570,-12.4076052125614,-120.946455275124,-302.509231849116
738532.56959283107426017523,-12.379909665212,-121.481902523881,-302.509231849116
738532.56959292152896523476,-12.4076052125614,-120.955687124241,-302.509231849116
738532.56959301198367029428,-12.3891415143284,-121.768089846492,-302.509231849116
738532.56959310243837535381,-12.361445966979,-120.964918973357,-302.509231849116
738532.56959319289308041334,-12.361445966979,-121.943494979705,-302.509231849116
738532.56959328334778547287,-12.342982268746,-120.964918973357,-302.509231849116
738532.56959337380249053240,-12.324518570513,-122.072740867336,-302.509231849116
738532.56959346414078027010,-12.30605487228,-120.955687124241,-302.509231849116
738532.56959355459548532963,-12.2968230231635,-122.008117923521,-302.509231849116
738532.56959364505019038916,-12.2783593249306,-121.426511429182,-302.509231849116
738532.56959373550489544868,-12.2691274758141,-121.371120334483,-302.509231849116
738532.56959382595960050821,-12.2506637775811,-121.611148411512,-302.509231849116
738532.56959391641430556774,-12.2506637775811,-121.251106295968,-302.509231849116
738532.56959400686901062727,-12.2414319284646,-121.841944639424,-302.509231849116
738532.56959409732371568680,-12.2506637775811,-121.269569994201,-302.509231849116
738532.56959418777842074633,-12.2875911740471,-122.03581347087,-302.509231849116
738532.56959427823312580585,-12.30605487228,-121.232642597736,-302.509231849116
738532.56959436857141554356,-12.342982268746,-122.109668263802,-302.509231849116
738532.56959445902612060308,-12.361445966979,-121.084933011872,-302.509231849116
738532.56959454948082566261,-12.379909665212,-122.183523056734,-302.509231849116
738532.56959463993553072214,-12.379909665212,-120.964918973357,-302.509231849116
738532.56959473039023578167,-12.4076052125614,-122.155827509384,-302.509231849116
738532.56959482084494084120,-12.3983733634449,-121.038773766289,-302.509231849116
738532.56959491129964590073,-12.4168370616779,-122.294305246132,-302.509231849116
738532.56959500175435096025,-12.3983733634449,-121.057237464522,-302.509231849116
738532.56959509220905601978,-12.3983733634449,-122.081972716453,-302.509231849116
738532.56959518266376107931,-12.3891415143284,-120.844904934843,-302.509231849116
738532.56959527311846613884,-12.3983733634449,-121.731162450026,-302.509231849116
738532.56959536345675587654,-12.3891415143284,-120.660267952513,-302.509231849116
738532.56959545391146093607,-12.3891415143284,-121.361888485366,-302.509231849116
738532.56959554436616599560,-12.379909665212,-121.343424787133,-302.509231849116
738532.56959563482087105513,-12.379909665212,-120.337153233436,-302.509231849116
738532.56959572527557611465,-12.3891415143284,-121.389584032716,-302.509231849116
738532.56959581573028117418,-12.3891415143284,-120.217139194922,-302.509231849116
738532.56959590618498623371,-12.3891415143284,-121.121860408338,-302.509231849116
738532.56959599663969129324,-12.379909665212,-119.820169682913,-302.509231849116
738532.56959608709439635277,-12.3891415143284,-121.001846369823,-302.509231849116
738532.56959617754910141230,-12.3706778160955,-119.533982360302,-302.509231849116
738532.56959626800380647182,-12.379909665212,-120.549485763115,-302.509231849116
738532.56959635834209620953,-12.3706778160955,-119.77401043733,-302.509231849116
738532.56959644879680126905,-12.379909665212,-120.854136783959,-302.509231849116
738532.56959653925150632858,-12.361445966979,-119.977111117893,-302.509231849116
738532.56959662970621138811,-12.3706778160955,-120.946455275124,-302.509231849116
738532.56959672016091644764,-12.3706778160955,-120.189443647572,-302.509231849116
738532.56959681061562150717,-12.379909665212,-120.743354594562,-302.509231849116
738532.56959690107032656670,-12.3706778160955,-120.521790215766,-302.509231849116
738532.56959699152503162622,-12.379909665212,-120.992614520707,-302.509231849116
738532.56959708197973668575,-12.3706778160955,-120.844904934843,-302.509231849116
738532.56959717243444174528,-12.4168370616779,-120.66949980163,-302.509231849116
738532.56959726277273148298,-12.3983733634449,-121.16801965392,-302.509231849116
738532.56959735322743654251,-12.379909665212,-121.001846369823,-302.509231849116
738532.56959744368214160204,-12.3706778160955,-121.768089846492,-302.509231849116
738532.56959753413684666157,-12.342982268746,-120.743354594562,-302.509231849116
738532.56959762459155172110,-12.342982268746,-121.786553544725,-302.509231849116
738532.56959771504625678062,-12.2875911740471,-120.881832331309,-302.509231849116
738532.56959780550096184015,-12.2783593249306,-121.703466902676,-302.509231849116
738532.56959789595566689968,-12.1952726828822,-120.687963499863,-302.509231849116
738532.56959798641037195921,-12.1860408337657,-121.19571520127,-302.509231849116
738532.56959807686507701874,-12.3891415143284,-121.094164860988,-302.509231849116
738532.56959816731978207827,-12.2875911740471,-121.241874446852,-302.509231849116
738532.56959825765807181597,-12.4168370616779,-121.251106295968,-302.509231849116
738532.56959834811277687550,-12.4076052125614,-121.251106295968,-302.509231849116
738532.56959843856748193502,-12.4260689107944,-121.500366222114,-302.509231849116
738532.56959852902218699455,-12.4445326090274,-121.426511429182,-302.509231849116
738532.56959861947689205408,-12.4353007599109,-122.045045319987,-302.509231849116
738532.56959870993159711361,-12.4445326090274,-121.435743278298,-302.509231849116
738532.56959880038630217314,-12.4629963072604,-122.248146000549,-302.509231849116
738532.56959889084100723267,-12.4537644581439,-121.611148411512,-302.509231849116
738532.56959898129571229219,-12.4722281563768,-122.645115512558,-302.509231849116
738532.56959907175041735172,-12.4722281563768,-121.731162450026,-302.509231849116
738532.56959916220512241125,-12.4999237037263,-122.783593249306,-302.509231849116
738532.56959925254341214895,-12.5183874019593,-121.952726828822,-302.509231849116
738532.56959934299811720848,-12.4168370616779,-122.395855586413,-302.509231849116
738532.56959943345282226801,-12.1768089846492,-122.183523056734,-302.509231849116
738532.56959952390752732754,-11.7890713217566,-121.952726828822,-302.509231849116
738532.56959961436223238707,-11.4382610553301,-121.768089846492,-302.509231849116
738532.56959970481693744659,-11.7983031708731,-121.721930600909,-302.509231849116
738532.56959979527164250612,-12.1398815881832,-122.488174077578,-302.509231849116
738532.56959988572634756565,-12.3522141178625,-121.980422376171,-302.509231849116
738532.56959997618105262518,-12.4445326090274,-122.626651814325,-302.509231849116
738532.56960006663575768471,-12.4445326090274,-122.081972716453,-302.509231849116
738532.56960015697404742241,-12.4445326090274,-122.894375438704,-302.509231849116
738532.56960024742875248194,-12.4537644581439,-121.832712790307,-302.509231849116
738532.56960033788345754147,-12.4537644581439,-122.691274758141,-302.509231849116
738532.56960042833816260099,-12.4445326090274,-121.555757316813,-302.509231849116
738532.56960051879286766052,-12.4629963072604,-122.589724417859,-302.509231849116
738532.56960060924757272005,-12.4537644581439,-121.380352183599,-302.509231849116
738532.56960069970227777958,-12.4722281563768,-122.571260719626,-302.509231849116
738532.56960079015698283911,-12.4537644581439,-121.35265663625,-302.509231849116
738532.56960088061168789864,-12.4537644581439,-122.515869624928,-302.509231849116
738532.56960097106639295816,-12.4445326090274,-121.417279580065,-302.509231849116
738532.56960106152109801769,-12.4537644581439,-122.395855586413,-302.509231849116
738532.56960115185938775539,-12.4353007599109,-122.19275490585,-302.509231849116
738532.56960124231409281492,-12.4353007599109,-121.454206976531,-302.509231849116
738532.56960133276879787445,-12.4260689107944,-122.072740867336,-302.509231849116
738532.56960142322350293398,-12.4168370616779,-120.909527878658,-302.509231849116
738532.56960151367820799351,-12.4168370616779,-121.869640186773,-302.509231849116
738532.56960160413291305304,-12.3983733634449,-120.82644123661,-302.509231849116
738532.56960169458761811256,-12.3891415143284,-121.961958677938,-302.509231849116
738532.56960178504232317209,-12.3706778160955,-120.706427198096,-302.509231849116
738532.56960187549702823162,-12.3706778160955,-121.906567583239,-302.509231849116
738532.56960196595173329115,-12.361445966979,-119.43243202002,-302.509231849116
738532.56960205640643835068,-12.361445966979,-120.992614520707,-302.509231849116
738532.56960214674472808838,-12.324518570513,-120.060197759941,-302.509231849116
738532.56960223719943314791,-12.3152867213965,-121.204947050386,-302.509231849116
738532.56960232765413820744,-12.2968230231635,-120.134052552873,-302.509231849116
738532.56960241810884326696,-12.30605487228,-121.186483352153,-302.509231849116
738532.56960250856354832649,-12.2783593249306,-120.309457686087,-302.509231849116
738532.56960259901825338602,-12.2783593249306,-121.103396710105,-302.509231849116
738532.56960268947295844555,-12.2691274758141,-120.45716727195,-302.509231849116
738532.56960277992766350508,-12.3152867213965,-121.029541917173,-302.509231849116
738532.56960287038236856461,-12.324518570513,-120.660267952513,-302.509231849116
738532.56960296083707362413,-12.361445966979,-120.918759727775,-302.509231849116
738532.56960305117536336184,-12.3706778160955,-121.50959807123,-302.509231849116
738532.56960314163006842136,-12.3891415143284,-120.318689535203,-302.509231849116
738532.56960323208477348089,-12.4260689107944,-121.500366222114,-302.509231849116
738532.56960332253947854042,-12.4168370616779,-120.290993987854,-302.509231849116
738532.56960341299418359995,-12.4537644581439,-121.389584032716,-302.509231849116
738532.56960350344888865948,-12.4537644581439,-120.290993987854,-302.509231849116
738532.56960359390359371901,-12.4629963072604,-121.297265541551,-302.509231849116
738532.56960368435829877853,-12.4445326090274,-120.411008026368,-302.509231849116
738532.56960377481300383806,-12.4629963072604,-121.214178899503,-302.509231849116
738532.56960386526770889759,-12.4445326090274,-120.447935422834,-302.509231849116
738532.56960395572241395712,-12.4629963072604,-120.937223426008,-302.509231849116
738532.56960404606070369482,-12.4353007599109,-120.466399121067,-302.509231849116
738532.56960413651540875435,-12.4537644581439,-120.697195348979,-302.509231849116
738532.56960422697011381388,-12.4445326090274,-120.087893307291,-302.509231849116
738532.56960431742481887341,-12.4629963072604,-119.903256324961,-302.509231849116
738532.56960440787952393293,-12.4537644581439,-120.050965910825,-302.509231849116
738532.56960449833422899246,-12.342982268746,-119.543214209418,-302.509231849116
738532.56960458878893405199,-12.379909665212,-120.494094668416,-302.509231849116
738532.56960467924363911152,-12.4168370616779,-119.681691946165,-302.509231849116
738532.56960476969834417105,-12.4445326090274,-120.614108706931,-302.509231849116
738532.56960486015304923058,-12.4537644581439,-119.829401532029,-302.509231849116
738532.56960495060775429010,-12.4537644581439,-120.706427198096,-302.509231849116
738532.56960504094604402781,-12.4537644581439,-119.967879268777,-302.509231849116
738532.56960513140074908733,-12.4722281563768,-120.540253913999,-302.509231849116
738532.56960522185545414686,-12.4629963072604,-120.069429609058,-302.509231849116
738532.56960531231015920639,-12.4722281563768,-120.309457686087,-302.509231849116
738532.56960540276486426592,-12.4722281563768,-120.041734061708,-302.509231849116
738532.56960549321956932545,-12.4906918546098,-120.14328440199,-302.509231849116
738532.56960558367427438498,-12.4722281563768,-120.226371044038,-302.509231849116
738532.56960567412897944450,-12.4814600054933,-119.820169682913,-302.509231849116
738532.56960576458368450403,-12.4722281563768,-120.411008026368,-302.509231849116
738532.56960585503838956356,-12.4906918546098,-120.023270363475,-302.509231849116
738532.56960594549309462309,-12.4722281563768,-120.660267952513,-302.509231849116
738532.56960603583138436079,-12.4722281563768,-119.894024475845,-302.509231849116
738532.56960612628608942032,-12.4722281563768,-120.900296029542,-302.509231849116
738532.56960621674079447985,-12.4722281563768,-119.95864741966,-302.509231849116
738532.56960630719549953938,-12.4722281563768,-121.038773766289,-302.509231849116
738532.56960639765020459890,-12.4722281563768,-119.894024475845,-302.509231849116
738532.56960648810490965843,-12.4814600054933,-121.048005615406,-302.509231849116
738532.56960657855961471796,-12.4537644581439,-119.792474135563,-302.509231849116
738532.56960666901431977749,-12.4445326090274,-120.992614520707,-302.509231849116
738532.56960675946902483702,-12.4260689107944,-120.447935422834,-302.509231849116
738532.56960684992372989655,-12.4260689107944,-120.152516251106,-302.509231849116
738532.56960694026201963425,-12.3983733634449,-120.512558366649,-302.509231849116
738532.56960703071672469378,-12.3891415143284,-119.921720023194,-302.509231849116
738532.56960712117142975330,-12.3891415143284,-120.540253913999,-302.509231849116
738532.56960721162613481283,-12.4168370616779,-119.672460097049,-302.509231849116
738532.56960730208083987236,-12.4537644581439,-120.494094668416,-302.509231849116
738532.56960739253554493189,-12.4629963072604,-119.515518662069,-302.509231849116
738532.56960748299024999142,-12.4999237037263,-120.604876857814,-302.509231849116
738532.56960757344495505095,-12.5276192510758,-119.395504623554,-302.509231849116
738532.56960766389966011047,-12.5553147984252,-120.401776177251,-302.509231849116
738532.56960775435436517000,-12.5553147984252,-119.238563188574,-302.509231849116
738532.56960784480907022953,-12.5830103457747,-120.475630970183,-302.509231849116
738532.56960793514735996723,-12.5645466475417,-119.173940244758,-302.509231849116
738532.56960802560206502676,-12.5645466475417,-120.32792138432,-302.509231849116
738532.56960811605677008629,-12.5737784966582,-119.044694357128,-302.509231849116
738532.56960820651147514582,-12.5830103457747,-120.207907345805,-302.509231849116
738532.56960829696618020535,-12.5737784966582,-119.183172093875,-302.509231849116
738532.56960838742088526487,-12.6014740440077,-120.254066591388,-302.509231849116
738532.56960847787559032440,-12.6291695913572,-119.644764549699,-302.509231849116
738532.56960856833029538393,-12.5460829493088,-120.392544328135,-302.509231849116
738532.56960865878500044346,-12.4353007599109,-120.697195348979,-302.509231849116
738532.56960874923970550299,-12.0567949461348,-119.349345377972,-302.509231849116
738532.56960883969441056252,-11.6413617358928,-120.337153233436,-302.509231849116
738532.56960893003270030022,-11.6505935850093,-119.312417981506,-302.509231849116
738532.56960902048740535975,-12.0937223426008,-121.029541917173,-302.509231849116
738532.56960911094211041927,-12.361445966979,-120.14328440199,-302.509231849116
738532.56960920139681547880,-12.5276192510758,-121.528061769463,-302.509231849116
738532.56960929185152053833,-12.5276192510758,-120.420239875484,-302.509231849116
738532.56960938230622559786,-12.5460829493088,-121.343424787133,-302.509231849116
738532.56960947276093065739,-12.5368511001923,-120.30022583697,-302.509231849116
738532.56960956321563571692,-12.5645466475417,-121.223410748619,-302.509231849116
738532.56960965367034077644,-12.5460829493088,-120.383312479019,-302.509231849116
738532.56960974412504583597,-12.5645466475417,-121.204947050386,-302.509231849116
738532.56960983446333557367,-12.5460829493088,-120.632572405164,-302.509231849116
738532.56960992491804063320,-12.5460829493088,-121.158787804804,-302.509231849116
738532.56961001537274569273,-12.5276192510758,-120.844904934843,-302.509231849116
738532.56961010582745075226,-12.5460829493088,-121.038773766289,-302.509231849116
738532.56961019628215581179,-12.5183874019593,-121.066469313639,-302.509231849116
738532.56961028673686087132,-12.5276192510758,-120.844904934843,-302.509231849116
738532.56961037719156593084,-12.5091555528428,-120.98338267159,-302.509231849116
738532.56961046764627099037,-12.5183874019593,-120.567949461348,-302.509231849116
738532.56961055810097604990,-12.5183874019593,-121.35265663625,-302.509231849116
738532.56961064855568110943,-12.4906918546098,-120.30022583697,-302.509231849116
738532.56961073901038616896,-12.4906918546098,-121.361888485366,-302.509231849116
738532.56961082934867590666,-12.4537644581439,-120.503326517533,-302.509231849116
738532.56961091980338096619,-12.4537644581439,-119.838633381146,-302.509231849116
738532.56961101025808602571,-12.4353007599109,-119.27549058504,-302.509231849116
738532.56961110071279108524,-12.4445326090274,-120.272530289621,-302.509231849116
738532.56961119116749614477,-12.4168370616779,-120.198675496689,-302.509231849116
738532.56961128162220120430,-12.4260689107944,-120.540253913999,-302.509231849116
738532.56961137207690626383,-12.4076052125614,-120.503326517533,-302.509231849116
738532.56961146253161132336,-12.3983733634449,-120.567949461348,-302.509231849116
738532.56961155298631638288,-12.379909665212,-120.909527878658,-302.509231849116
738532.56961164344102144241,-12.379909665212,-120.549485763115,-302.509231849116
738532.56961173389572650194,-12.3706778160955,-121.149555955687,-302.509231849116
738532.56961182423401623964,-12.361445966979,-120.540253913999,-302.509231849116
738532.56961191468872129917,-12.361445966979,-121.334192938017,-302.509231849116
738532.56961200514342635870,-12.3891415143284,-120.577181310465,-302.509231849116
738532.56961209559813141823,-12.3983733634449,-121.592684713279,-302.509231849116
738532.56961218605283647776,-12.4260689107944,-120.531022064882,-302.509231849116
738532.56961227650754153728,-12.4629963072604,-121.786553544725,-302.509231849116
738532.56961236696224659681,-12.4722281563768,-120.64180425428,-302.509231849116
738532.56961245741695165634,-12.4999237037263,-121.315729239784,-302.509231849116
738532.56961254787165671587,-12.4999237037263,-121.223410748619,-302.509231849116
738532.56961263832636177540,-12.5276192510758,-121.204947050386,-302.509231849116
738532.56961272866465151310,-12.5183874019593,-121.481902523881,-302.509231849116
738532.56961281911935657263,-12.5368511001923,-121.232642597736,-302.509231849116
738532.56961290957406163216,-12.5183874019593,-121.795785393841,-302.509231849116
738532.56961300002876669168,-12.5276192510758,-121.16801965392,-302.509231849116
738532.56961309048347175121,-12.5276192510758,-121.943494979705,-302.509231849116
738532.56961318093817681074,-12.5276192510758,-121.16801965392,-302.509231849116
738532.56961327139288187027,-12.5276192510758,-122.155827509384,-302.509231849116
738532.56961336184758692980,-12.5276192510758,-121.223410748619,-302.509231849116
738532.56961345230229198933,-12.5276192510758,-122.432782982879,-302.509231849116
738532.56961354275699704885,-12.5183874019593,-121.315729239784,-302.509231849116
738532.56961363321170210838,-12.5276192510758,-122.580492568743,-302.509231849116
738532.56961372354999184608,-12.5183874019593,-121.408047730949,-302.509231849116
738532.56961381400469690561,-12.5276192510758,-122.691274758141,-302.509231849116
738532.56961390445940196514,-12.5368511001923,-121.472670674764,-302.509231849116
738532.56961399491410702467,-12.5460829493088,-122.626651814325,-302.509231849116
738532.56961408536881208420,-12.5276192510758,-121.463438825648,-302.509231849116
738532.56961417582351714373,-12.5460829493088,-122.53433332316,-302.509231849116
738532.56961426627822220325,-12.5460829493088,-122.432782982879,-302.509231849116
738532.56961435673292726278,-12.5553147984252,-121.629612109745,-302.509231849116
738532.56961444718763232231,-12.5553147984252,-122.654347361675,-302.509231849116
738532.56961453764233738184,-12.5460829493088,-121.675771355327,-302.509231849116
738532.56961462809704244137,-12.5553147984252,-122.829752494888,-302.509231849116
738532.56961471843533217907,-12.5553147984252,-121.666539506211,-302.509231849116
738532.56961480889003723860,-12.5645466475417,-122.940534684286,-302.509231849116
738532.56961489934474229813,-12.5645466475417,-121.749626148259,-302.509231849116
738532.56961498979944735765,-12.5645466475417,-123.115939817499,-302.509231849116
738532.56961508025415241718,-12.5553147984252,-122.008117923521,-302.509231849116
738532.56961517070885747671,-12.5737784966582,-123.226722006897,-302.509231849116
738532.56961526116356253624,-12.5645466475417,-122.275841547899,-302.509231849116
738532.56961535161826759577,-12.5737784966582,-123.328272347179,-302.509231849116
738532.56961544207297265530,-12.5645466475417,-122.386623737297,-302.509231849116
738532.56961553252767771482,-12.5830103457747,-123.226722006897,-302.509231849116
738532.56961562286596745253,-12.5645466475417,-122.488174077578,-302.509231849116
738532.56961571332067251205,-12.5737784966582,-123.171330912198,-302.509231849116
738532.56961580377537757158,-12.5737784966582,-122.672811059908,-302.509231849116
738532.56961589423008263111,-12.5922421948912,-123.014389477218,-302.509231849116
738532.56961598468478769064,-12.5737784966582,-122.829752494888,-302.509231849116
738532.56961607513949275017,-12.5830103457747,-122.848216193121,-302.509231849116
738532.56961616559419780970,-12.5830103457747,-123.494445631275,-302.509231849116
738532.56961625604890286922,-12.5553147984252,-122.275841547899,-302.509231849116
738532.56961634650360792875,-12.5553147984252,-123.466750083926,-302.509231849116
738532.56961643695831298828,-12.5276192510758,-122.395855586413,-302.509231849116
738532.56961652741301804781,-12.5183874019593,-123.291344950713,-302.509231849116
738532.56961661775130778551,-12.4722281563768,-122.303537095248,-302.509231849116
738532.56961670820601284504,-12.4722281563768,-123.208258308664,-302.509231849116
738532.56961679866071790457,-12.4814600054933,-122.432782982879,-302.509231849116
738532.56961688911542296410,-12.5460829493088,-123.217490157781,-302.509231849116
738532.56961697957012802362,-12.5553147984252,-122.645115512558,-302.509231849116
738532.56961707002483308315,-12.5830103457747,-122.958998382519,-302.509231849116
738532.56961716047953814268,-12.5830103457747,-122.635883663442,-302.509231849116
738532.56961725093424320221,-12.6107058931242,-122.848216193121,-302.509231849116
738532.56961734138894826174,-12.6199377422407,-122.894375438704,-302.509231849116
738532.56961743184365332127,-12.6384014404736,-122.737434003723,-302.509231849116
738532.56961752229835838079,-12.6384014404736,-123.199026459548,-302.509231849116
738532.56961761263664811850,-12.6476332895901,-122.672811059908,-302.509231849116
738532.56961770309135317802,-12.6384014404736,-123.27288125248,-302.509231849116
738532.56961779354605823755,-12.6476332895901,-122.552797021393,-302.509231849116
738532.56961788400076329708,-12.6568651387066,-123.448286385693,-302.509231849116
738532.56961797445546835661,-12.6660969878231,-122.506637775811,-302.509231849116
738532.56961806491017341614,-12.7030243842891,-123.199026459548,-302.509231849116
738532.56961815536487847567,-12.7491836298715,-122.783593249306,-302.509231849116
738532.56961824581958353519,-12.6107058931242,-123.180562761315,-302.509231849116
738532.56961833627428859472,-12.379909665212,-122.580492568743,-302.509231849116
738532.56961842672899365425,-11.9552446058534,-122.312768944365,-302.509231849116
738532.56961851706728339195,-11.6044343394269,-121.925031281472,-302.509231849116
738532.56961860752198845148,-12.0106357005524,-121.53729361858,-302.509231849116
738532.56961869797669351101,-12.342982268746,-121.620380260628,-302.509231849116
738532.56961878843139857054,-12.5645466475417,-120.992614520707,-302.509231849116
738532.56961887888610363007,-12.6660969878231,-121.444975127415,-302.509231849116
738532.56961896934080868959,-12.6568651387066,-120.697195348979,-302.509231849116
738532.56961905979551374912,-12.6660969878231,-121.278801843318,-302.509231849116
738532.56961915025021880865,-12.6660969878231,-120.198675496689,-302.509231849116
738532.56961924070492386818,-12.6937925351726,-121.075701162755,-302.509231849116
738532.56961933115962892771,-12.6753288369396,-119.995574816126,-302.509231849116
738532.56961942161433398724,-12.6753288369396,-121.472670674764,-302.509231849116
738532.56961951195262372494,-12.6660969878231,-120.64180425428,-302.509231849116
738532.56961960240732878447,-12.6753288369396,-122.045045319987,-302.509231849116
738532.56961969286203384399,-12.6660969878231,-120.918759727775,-302.509231849116
738532.56961978331673890352,-12.6753288369396,-122.183523056734,-302.509231849116
738532.56961987377144396305,-12.6384014404736,-120.927991576891,-302.509231849116
738532.56961996422614902258,-12.6568651387066,-121.306497390667,-302.509231849116
738532.56962005468085408211,-12.6476332895901,-121.87887203589,-302.509231849116
738532.56962014513555914164,-12.6384014404736,-121.269569994201,-302.509231849116
738532.56962023559026420116,-12.6199377422407,-122.183523056734,-302.509231849116
738532.56962032604496926069,-12.6199377422407,-121.343424787133,-302.509231849116
738532.56962041649967432022,-12.6107058931242,-122.53433332316,-302.509231849116
738532.56962050683796405792,-12.6014740440077,-121.555757316813,-302.509231849116
738532.56962059729266911745,-12.5922421948912,-122.765129551073,-302.509231849116
738532.56962068774737417698,-12.5737784966582,-121.555757316813,-302.509231849116
738532.56962077820207923651,-12.5737784966582,-122.811288796655,-302.509231849116
738532.56962086865678429604,-12.5553147984252,-121.564989165929,-302.509231849116
738532.56962095911148935556,-12.5553147984252,-122.728202154607,-302.509231849116
738532.56962104956619441509,-12.5276192510758,-121.53729361858,-302.509231849116
738532.56962114002089947462,-12.5276192510758,-122.635883663442,-302.509231849116
738532.56962123047560453415,-12.5091555528428,-121.620380260628,-302.509231849116
738532.56962132093030959368,-12.5183874019593,-122.598956266976,-302.509231849116
738532.56962141126859933138,-12.4722281563768,-121.712698751793,-302.509231849116
738532.56962150172330439091,-12.4999237037263,-122.497405926695,-302.509231849116
738532.56962159217800945044,-12.4814600054933,-121.768089846492,-302.509231849116
738532.56962168263271450996,-12.4999237037263,-122.303537095248,-302.509231849116
738532.56962177308741956949,-12.4999237037263,-122.728202154607,-302.509231849116
738532.56962186354212462902,-12.5183874019593,-121.463438825648,-302.509231849116
738532.56962195399682968855,-12.5553147984252,-122.728202154607,-302.509231849116
738532.56962204445153474808,-12.5737784966582,-121.629612109745,-302.509231849116
738532.56962213490623980761,-12.6014740440077,-122.783593249306,-302.509231849116
738532.56962222536094486713,-12.6014740440077,-121.564989165929,-302.509231849116
738532.56962231581564992666,-12.6199377422407,-122.589724417859,-302.509231849116
738532.56962240615393966436,-12.6107058931242,-121.491134372997,-302.509231849116
738532.56962249660864472389,-12.6291695913572,-122.478942228462,-302.509231849116
738532.56962258706334978342,-12.6014740440077,-121.500366222114,-302.509231849116
738532.56962267751805484295,-12.6199377422407,-122.303537095248,-302.509231849116
738532.56962276797275990248,-12.6199377422407,-121.638843958861,-302.509231849116
738532.56962285842746496201,-12.6291695913572,-122.201986754967,-302.509231849116
738532.56962294888217002153,-12.6291695913572,-121.666539506211,-302.509231849116
738532.56962303933687508106,-12.6291695913572,-122.026581621754,-302.509231849116
738532.56962312979158014059,-12.6107058931242,-121.961958677938,-302.509231849116
738532.56962322024628520012,-12.6199377422407,-122.03581347087,-302.509231849116
738532.56962331070099025965,-12.6107058931242,-122.423551133763,-302.509231849116
738532.56962340103927999735,-12.6199377422407,-122.026581621754,-302.509231849116
738532.56962349149398505688,-12.6199377422407,-122.349696340831,-302.509231849116
738532.56962358194869011641,-12.6199377422407,-121.832712790307,-302.509231849116
738532.56962367240339517593,-12.6291695913572,-122.691274758141,-302.509231849116
738532.56962376285810023546,-12.6199377422407,-121.740394299142,-302.509231849116
738532.56962385331280529499,-12.6384014404736,-122.672811059908,-302.509231849116
738532.56962394376751035452,-12.6291695913572,-121.925031281472,-302.509231849116
738532.56962403422221541405,-12.6476332895901,-122.598956266976,-302.509231849116
738532.56962412467692047358,-12.6291695913572,-122.146595660268,-302.509231849116
738532.56962421513162553310,-12.6476332895901,-122.506637775811,-302.509231849116
738532.56962430546991527081,-12.6384014404736,-122.358928189947,-302.509231849116
738532.56962439592462033033,-12.6568651387066,-122.451246681112,-302.509231849116
738532.56962448637932538986,-12.6384014404736,-122.571260719626,-302.509231849116
738532.56962457683403044939,-12.6476332895901,-122.312768944365,-302.509231849116
738532.56962466728873550892,-12.6568651387066,-122.802056947539,-302.509231849116
738532.56962475774344056845,-12.6568651387066,-122.2204504532,-302.509231849116
738532.56962484819814562798,-12.6476332895901,-122.912839136937,-302.509231849116
738532.56962493865285068750,-12.6568651387066,-122.054277169103,-302.509231849116
738532.56962502910755574703,-12.6660969878231,-122.986693929868,-302.509231849116
738532.56962511956226080656,-12.6660969878231,-121.934263130589,-302.509231849116
738532.56962521001696586609,-12.6845606860561,-123.134403515732,-302.509231849116
738532.56962530035525560379,-12.6660969878231,-121.934263130589,-302.509231849116
738532.56962539080996066332,-12.6753288369396,-123.162099063082,-302.509231849116
738532.56962548126466572285,-12.6660969878231,-121.897335734123,-302.509231849116
738532.56962557171937078238,-12.6753288369396,-122.488174077578,-302.509231849116
738532.56962566217407584190,-12.6660969878231,-122.543565172277,-302.509231849116
738532.56962575262878090143,-12.6845606860561,-122.331232642598,-302.509231849116
738532.56962584308348596096,-12.6845606860561,-122.792825098422,-302.509231849116
738532.56962593353819102049,-12.6937925351726,-122.294305246132,-302.509231849116
738532.56962602399289608002,-12.6660969878231,-122.93130283517,-302.509231849116
738532.56962611444760113955,-12.6384014404736,-122.165059358501,-302.509231849116
738532.56962620490230619907,-12.6291695913572,-123.475981933042,-302.509231849116
738532.56962629524059593678,-12.6014740440077,-122.266609698782,-302.509231849116
738532.56962638569530099630,-12.5737784966582,-123.300576799829,-302.509231849116
738532.56962647615000605583,-12.5553147984252,-122.081972716453,-302.509231849116
738532.56962656660471111536,-12.5737784966582,-123.282113101596,-302.509231849116
738532.56962665705941617489,-12.5830103457747,-122.045045319987,-302.509231849116
738532.56962674751412123442,-12.6384014404736,-123.309808648946,-302.509231849116
738532.56962683796882629395,-12.6291695913572,-122.091204565569,-302.509231849116
738532.56962692842353135347,-12.6568651387066,-123.40212714011,-302.509231849116
738532.56962701887823641300,-12.6753288369396,-122.072740867336,-302.509231849116
738532.56962710933294147253,-12.7030243842891,-123.24518570513,-302.509231849116
738532.56962719967123121023,-12.6937925351726,-122.229682302316,-302.509231849116
738532.56962729012593626976,-12.721488082522,-123.180562761315,-302.509231849116
738532.56962738058064132929,-12.7030243842891,-122.266609698782,-302.509231849116
738532.56962747103534638882,-12.7122562334056,-122.2204504532,-302.509231849116
738532.56962756149005144835,-12.7122562334056,-123.355967894528,-302.509231849116
738532.56962765194475650787,-12.7030243842891,-122.19275490585,-302.509231849116
738532.56962774239946156740,-12.721488082522,-123.365199743645,-302.509231849116
738532.56962783285416662693,-12.721488082522,-122.238914151433,-302.509231849116
738532.56962792330887168646,-12.7861110263375,-123.420590838343,-302.509231849116
738532.56962801376357674599,-12.6753288369396,-122.081972716453,-302.509231849116
738532.56962810421828180552,-12.4537644581439,-123.319040498062,-302.509231849116
738532.56962819455657154322,-12.0014038514359,-121.841944639424,-302.509231849116
738532.56962828501127660275,-11.6598254341258,-122.885143589587,-302.509231849116
738532.56962837546598166227,-11.9367809076205,-121.943494979705,-302.509231849116
738532.56962846592068672180,-12.30605487228,-123.309808648946,-302.509231849116
738532.56962855637539178133,-12.5645466475417,-122.497405926695,-302.509231849116
738532.56962864683009684086,-12.6753288369396,-123.199026459548,-302.509231849116
738532.56962873728480190039,-12.6568651387066,-122.478942228462,-302.509231849116
738532.56962882773950695992,-12.6753288369396,-122.940534684286,-302.509231849116
738532.56962891819421201944,-12.6753288369396,-122.571260719626,-302.509231849116
738532.56962900864891707897,-12.6937925351726,-122.74666585284,-302.509231849116
738532.56962909910362213850,-12.6845606860561,-122.709738456374,-302.509231849116
738532.56962918944191187620,-12.7030243842891,-122.589724417859,-302.509231849116
738532.56962927989661693573,-12.7030243842891,-123.337504196295,-302.509231849116
738532.56962937035132199526,-12.6845606860561,-122.091204565569,-302.509231849116
738532.56962946080602705479,-12.6937925351726,-123.235953856014,-302.509231849116
738532.56962955126073211432,-12.6660969878231,-122.100436414686,-302.509231849116
738532.56962964171543717384,-12.6845606860561,-123.106707968383,-302.509231849116
738532.56962973217014223337,-12.6568651387066,-122.174291207617,-302.509231849116
738532.56962982262484729290,-12.6753288369396,-122.949766533402,-302.509231849116
738532.56962991307955235243,-12.6384014404736,-122.229682302316,-302.509231849116
738532.56963000353425741196,-12.6568651387066,-122.74666585284,-302.509231849116
738532.56963009387254714966,-12.6384014404736,-122.349696340831,-302.509231849116
738532.56963018432725220919,-12.6291695913572,-122.552797021393,-302.509231849116
738532.56963027478195726871,-12.6107058931242,-122.469710379345,-302.509231849116
738532.56963036523666232824,-12.6199377422407,-122.386623737297,-302.509231849116
738532.56963045569136738777,-12.5922421948912,-122.654347361675,-302.509231849116
738532.56963054614607244730,-12.6014740440077,-122.340464491714,-302.509231849116
738532.56963063660077750683,-12.5737784966582,-122.93130283517,-302.509231849116
738532.56963072705548256636,-12.5645466475417,-122.257377849666,-302.509231849116
738532.56963081751018762589,-12.5553147984252,-123.0605487228,-302.509231849116
738532.56963090796489268541,-12.5368511001923,-122.109668263802,-302.509231849116
738532.56963099841959774494,-12.5183874019593,-123.171330912198,-302.509231849116
738532.56963108875788748264,-12.5091555528428,-122.017349772637,-302.509231849116
738532.56963117921259254217,-12.5091555528428,-122.802056947539,-302.509231849116
738532.56963126966729760170,-12.4999237037263,-122.340464491714,-302.509231849116
738532.56963136012200266123,-12.5091555528428,-122.608188116092,-302.509231849116
738532.56963145057670772076,-12.4906918546098,-122.497405926695,-302.509231849116
738532.56963154103141278028,-12.5276192510758,-122.395855586413,-302.509231849116
738532.56963163148611783981,-12.5276192510758,-122.645115512558,-302.509231849116
738532.56963172194082289934,-12.5645466475417,-122.37739188818,-302.509231849116
738532.56963181239552795887,-12.5922421948912,-122.875911740471,-302.509231849116
738532.56963190285023301840,-12.6199377422407,-122.285073397015,-302.509231849116
738532.56963199330493807793,-12.6384014404736,-123.08824427015,-302.509231849116
738532.56963208364322781563,-12.6476332895901,-122.201986754967,-302.509231849116
738532.56963217409793287516,-12.6476332895901,-123.208258308664,-302.509231849116
738532.56963226455263793468,-12.6384014404736,-122.155827509384,-302.509231849116
738532.56963235500734299421,-12.6476332895901,-123.309808648946,-302.509231849116
738532.56963244546204805374,-12.6568651387066,-122.100436414686,-302.509231849116
738532.56963253591675311327,-12.6568651387066,-123.319040498062,-302.509231849116
738532.56963262637145817280,-12.6476332895901,-122.081972716453,-302.509231849116
738532.56963271682616323233,-12.6660969878231,-123.374431592761,-302.509231849116
738532.56963280728086829185,-12.6384014404736,-122.128131962035,-302.509231849116
738532.56963289773557335138,-12.6660969878231,-123.319040498062,-302.509231849116
738532.56963298807386308908,-12.6568651387066,-122.081972716453,-302.509231849116
738532.56963307852856814861,-12.6660969878231,-122.349696340831,-302.509231849116
738532.56963316898327320814,-12.6568651387066,-123.079012421033,-302.509231849116
738532.56963325943797826767,-12.6476332895901,-122.174291207617,-302.509231849116
738532.56963334989268332720,-12.6568651387066,-123.134403515732,-302.509231849116
738532.56963344034738838673,-12.6568651387066,-122.054277169103,-302.509231849116
738532.56963353080209344625,-12.6568651387066,-123.208258308664,-302.509231849116
738532.56963362125679850578,-12.6568651387066,-122.054277169103,-302.509231849116
738532.56963371171150356531,-12.6568651387066,-123.282113101596,-302.509231849116
738532.56963380216620862484,-12.6568651387066,-122.008117923521,-302.509231849116
738532.56963389262091368437,-12.6753288369396,-123.282113101596,-302.509231849116
738532.56963398295920342207,-12.6660969878231,-122.054277169103,-302.509231849116
738532.56963407341390848160,-12.6660969878231,-123.27288125248,-302.509231849116
738532.56963416386861354113,-12.6660969878231,-122.008117923521,-302.509231849116
738532.56963425432331860065,-12.6937925351726,-123.115939817499,-302.509231849116
738532.56963434477802366018,-12.6660969878231,-122.137363811151,-302.509231849116
738532.56963443523272871971,-12.6753288369396,-123.005157628101,-302.509231849116
738532.56963452568743377924,-12.6568651387066,-122.2204504532,-302.509231849116
738532.56963461614213883877,-12.6753288369396,-122.866679891354,-302.509231849116
738532.56963470659684389830,-12.6568651387066,-122.340464491714,-302.509231849116
738532.56963479705154895782,-12.6753288369396,-122.71897030549,-302.509231849116
738532.56963488750625401735,-12.6660969878231,-122.497405926695,-302.509231849116
738532.56963497784454375505,-12.6753288369396,-121.980422376171,-302.509231849116
738532.56963506829924881458,-12.6845606860561,-123.263649403363,-302.509231849116
738532.56963515875395387411,-12.6753288369396,-122.008117923521,-302.509231849116
738532.56963524920865893364,-12.6753288369396,-123.217490157781,-302.509231849116
738532.56963533966336399317,-12.6753288369396,-121.989654225288,-302.509231849116
738532.56963543011806905270,-12.6845606860561,-123.097476119266,-302.509231849116
738532.56963552057277411222,-12.6753288369396,-122.045045319987,-302.509231849116
738532.56963561102747917175,-12.6937925351726,-122.986693929868,-302.509231849116
738532.56963570148218423128,-12.6753288369396,-122.155827509384,-302.509231849116
738532.56963579193688929081,-12.6937925351726,-122.866679891354,-302.509231849116
738532.56963588227517902851,-12.6753288369396,-122.285073397015,-302.509231849116
738532.56963597272988408804,-12.6845606860561,-122.728202154607,-302.509231849116
738532.56963606318458914757,-12.6753288369396,-122.469710379345,-302.509231849116
738532.56963615363929420710,-12.6753288369396,-122.617419965209,-302.509231849116
738532.56963624409399926662,-12.6384014404736,-122.626651814325,-302.509231849116
738532.56963633454870432615,-12.6291695913572,-122.423551133763,-302.509231849116
738532.56963642500340938568,-12.6014740440077,-122.737434003723,-302.509231849116
738532.56963651545811444521,-12.5830103457747,-122.229682302316,-302.509231849116
738532.56963660591281950474,-12.5460829493088,-122.838984344005,-302.509231849116
738532.56963669636752456427,-12.5737784966582,-122.128131962035,-302.509231849116
738532.56963678682222962379,-12.6014740440077,-122.995925778985,-302.509231849116
738532.56963687716051936150,-12.6384014404736,-122.146595660268,-302.509231849116
738532.56963696761522442102,-12.6660969878231,-122.90360728782,-302.509231849116
738532.56963705806992948055,-12.6660969878231,-122.312768944365,-302.509231849116
738532.56963714852463454008,-12.6937925351726,-122.755897701956,-302.509231849116
738532.56963723897933959961,-12.6937925351726,-122.451246681112,-302.509231849116
738532.56963732943404465914,-12.7122562334056,-122.608188116092,-302.509231849116
738532.56963741988874971867,-12.7122562334056,-122.608188116092,-302.509231849116
738532.56963751034345477819,-12.7307199316385,-122.460478530229,-302.509231849116
738532.56963760079815983772,-12.7122562334056,-122.74666585284,-302.509231849116
738532.56963769125286489725,-12.7122562334056,-122.303537095248,-302.509231849116
738532.56963778170756995678,-12.721488082522,-122.894375438704,-302.509231849116
738532.56963787204585969448,-12.721488082522,-122.155827509384,-302.509231849116
738532.56963796250056475401,-12.7491836298715,-123.014389477218,-302.509231849116
738532.56963805295526981354,-12.7676473281045,-122.081972716453,-302.509231849116
738532.56963814340997487307,-12.6660969878231,-123.115939817499,-302.509231849116
738532.56963823386467993259,-12.361445966979,-121.860408337657,-302.509231849116
738532.56963832431938499212,-11.9183172093875,-122.792825098422,-302.509231849116
738532.56963841477409005165,-11.7244483779412,-121.500366222114,-302.509231849116
738532.56963850522879511118,-12.1860408337657,-123.08824427015,-302.509231849116
738532.56963859568350017071,-12.4537644581439,-122.081972716453,-302.509231849116
738532.56963868613820523024,-12.5830103457747,-122.589724417859,-302.509231849116
738532.56963877647649496794,-12.6845606860561,-122.802056947539,-302.509231849116
738532.56963886693120002747,-12.6845606860561,-122.37739188818,-302.509231849116
738532.56963895738590508699,-12.6845606860561,-122.949766533402,-302.509231849116
738532.56963904784061014652,-12.7030243842891,-122.238914151433,-302.509231849116
738532.56963913829531520605,-12.7030243842891,-123.032853175451,-302.509231849116
738532.56963922875002026558,-12.7030243842891,-122.100436414686,-302.509231849116
738532.56963931920472532511,-12.7030243842891,-123.115939817499,-302.509231849116
738532.56963940965943038464,-12.6937925351726,-121.980422376171,-302.509231849116
738532.56963950011413544416,-12.7122562334056,-123.143635364849,-302.509231849116
738532.56963959056884050369,-12.6937925351726,-121.87887203589,-302.509231849116
738532.56963968102354556322,-12.6845606860561,-123.106707968383,-302.509231849116
738532.56963977136183530092,-12.6753288369396,-121.85117648854,-302.509231849116
738532.56963986181654036045,-12.6845606860561,-123.097476119266,-302.509231849116
738532.56963995227124541998,-12.6568651387066,-121.906567583239,-302.509231849116
738532.56964004272595047951,-12.6660969878231,-123.069780571917,-302.509231849116
738532.56964013318065553904,-12.6568651387066,-121.925031281472,-302.509231849116
738532.56964022363536059856,-12.6568651387066,-122.90360728782,-302.509231849116
738532.56964031409006565809,-12.6384014404736,-121.869640186773,-302.509231849116
738532.56964040454477071762,-12.6476332895901,-122.663579210791,-302.509231849116
738532.56964049499947577715,-12.6199377422407,-121.915799432356,-302.509231849116
738532.56964058545418083668,-12.6107058931242,-121.69423505356,-302.509231849116
738532.56964067590888589621,-12.6014740440077,-122.866679891354,-302.509231849116
738532.56964076624717563391,-12.5922421948912,-121.675771355327,-302.509231849116
738532.56964085670188069344,-12.5922421948912,-122.949766533402,-302.509231849116
738532.56964094715658575296,-12.5645466475417,-121.675771355327,-302.509231849116
738532.56964103761129081249,-12.5553147984252,-123.005157628101,-302.509231849116
738532.56964112806599587202,-12.5183874019593,-121.740394299142,-302.509231849116
738532.56964121852070093155,-12.5276192510758,-122.940534684286,-302.509231849116
738532.56964130897540599108,-12.5183874019593,-121.814249092074,-302.509231849116
738532.56964139943011105061,-12.5183874019593,-122.829752494888,-302.509231849116
738532.56964148988481611013,-12.4999237037263,-121.795785393841,-302.509231849116
738532.56964158033952116966,-12.5183874019593,-122.589724417859,-302.509231849116
738532.56964167067781090736,-12.5276192510758,-121.823480941191,-302.509231849116
738532.56964176113251596689,-12.5737784966582,-122.432782982879,-302.509231849116
738532.56964185158722102642,-12.5830103457747,-121.971190527055,-302.509231849116
738532.56964194204192608595,-12.6199377422407,-122.358928189947,-302.509231849116
738532.56964203249663114548,-12.6291695913572,-122.229682302316,-302.509231849116
738532.56964212295133620501,-12.6660969878231,-122.275841547899,-302.509231849116
738532.56964221340604126453,-12.6660969878231,-122.488174077578,-302.509231849116
738532.56964230386074632406,-12.6753288369396,-122.2204504532,-302.509231849116
738532.56964239431545138359,-12.6660969878231,-122.691274758141,-302.509231849116
738532.56964248477015644312,-12.6660969878231,-121.85117648854,-302.509231849116
738532.56964257522486150265,-12.6753288369396,-122.922070986053,-302.509231849116
738532.56964266556315124035,-12.6568651387066,-121.934263130589,-302.509231849116
738532.56964275601785629988,-12.6753288369396,-122.802056947539,-302.509231849116
738532.56964284647256135941,-12.6568651387066,-121.989654225288,-302.509231849116
738532.56964293692726641893,-12.6753288369396,-122.617419965209,-302.509231849116
738532.56964302738197147846,-12.6660969878231,-122.06350901822,-302.509231849116
738532.56964311783667653799,-12.6753288369396,-122.414319284646,-302.509231849116
738532.56964320829138159752,-12.6660969878231,-122.211218604083,-302.509231849116
738532.56964329874608665705,-12.6753288369396,-122.257377849666,-302.509231849116
738532.56964338920079171658,-12.6660969878231,-122.386623737297,-302.509231849116
738532.56964347965549677610,-12.6753288369396,-122.155827509384,-302.509231849116
738532.56964357011020183563,-12.6660969878231,-122.617419965209,-302.509231849116
738532.56964366044849157333,-12.6845606860561,-122.118900112918,-302.509231849116
738532.56964375090319663286,-12.6753288369396,-122.866679891354,-302.509231849116
738532.56964384135790169239,-12.6753288369396,-122.072740867336,-302.509231849116
738532.56964393181260675192,-12.6753288369396,-123.023621326334,-302.509231849116
738532.56964402226731181145,-12.6753288369396,-121.998886074404,-302.509231849116
738532.56964411272201687098,-12.6845606860561,-123.051316873684,-302.509231849116
738532.56964420317672193050,-12.6753288369396,-121.888103885006,-302.509231849116
738532.56964429363142699003,-12.6845606860561,-122.598956266976,-302.509231849116
738532.56964438408613204956,-12.6753288369396,-122.395855586413,-302.509231849116
738532.56964447454083710909,-12.6845606860561,-122.469710379345,-302.509231849116
738532.56964456487912684679,-12.6845606860561,-122.580492568743,-302.509231849116
738532.56964465533383190632,-12.6937925351726,-122.358928189947,-302.509231849116
738532.56964474578853696585,-12.6845606860561,-122.811288796655,-302.509231849116
738532.56964483624324202538,-12.6845606860561,-122.331232642598,-302.509231849116
738532.56964492669794708490,-12.6753288369396,-122.912839136937,-302.509231849116
738532.56964501715265214443,-12.6753288369396,-122.155827509384,-302.509231849116
738532.56964510760735720396,-12.6845606860561,-123.023621326334,-302.509231849116
738532.56964519806206226349,-12.6937925351726,-122.054277169103,-302.509231849116
738532.56964528851676732302,-12.6937925351726,-123.106707968383,-302.509231849116
738532.56964537897147238255,-12.6845606860561,-121.971190527055,-302.509231849116
738532.56964546942617744207,-12.6937925351726,-123.134403515732,-302.509231849116
738532.56964555976446717978,-12.6845606860561,-121.971190527055,-302.509231849116
738532.56964565021917223930,-12.6937925351726,-123.208258308664,-302.509231849116
738532.56964574067387729883,-12.6845606860561,-121.971190527055,-302.509231849116
738532.56964583112858235836,-12.6937925351726,-123.162099063082,-302.509231849116
738532.56964592158328741789,-12.6753288369396,-121.980422376171,-302.509231849116
738532.56964601203799247742,-12.6937925351726,-123.162099063082,-302.509231849116
738532.56964610249269753695,-12.6753288369396,-122.054277169103,-302.509231849116
738532.56964619294740259647,-12.6753288369396,-122.201986754967,-302.509231849116
738532.56964628340210765600,-12.6753288369396,-123.097476119266,-302.509231849116
738532.56964637385681271553,-12.6753288369396,-122.155827509384,-302.509231849116
738532.56964646431151777506,-12.6476332895901,-123.152867213965,-302.509231849116
738532.56964655464980751276,-12.6291695913572,-122.054277169103,-302.509231849116
738532.56964664510451257229,-12.6199377422407,-123.199026459548,-302.509231849116
738532.56964673555921763182,-12.5830103457747,-121.980422376171,-302.509231849116
738532.56964682601392269135,-12.5737784966582,-123.189794610431,-302.509231849116
738532.56964691646862775087,-12.5553147984252,-121.961958677938,-302.509231849116
738532.56964700692333281040,-12.6014740440077,-123.217490157781,-302.509231849116
738532.56964709737803786993,-12.6291695913572,-122.081972716453,-302.509231849116
738532.56964718783274292946,-12.6660969878231,-123.263649403363,-302.509231849116
738532.56964727828744798899,-12.6568651387066,-122.238914151433,-302.509231849116
738532.56964736874215304852,-12.6937925351726,-123.189794610431,-302.509231849116
738532.56964745908044278622,-12.6845606860561,-122.395855586413,-302.509231849116
738532.56964754953514784575,-12.7122562334056,-123.125171666616,-302.509231849116
738532.56964763998985290527,-12.7122562334056,-122.580492568743,-302.509231849116
738532.56964773044455796480,-12.7307199316385,-123.0605487228,-302.509231849116
738532.56964782089926302433,-12.7122562334056,-122.635883663442,-302.509231849116
738532.56964791135396808386,-12.7307199316385,-122.857448042238,-302.509231849116
738532.56964800180867314339,-12.721488082522,-122.820520645772,-302.509231849116
738532.56964809226337820292,-12.7122562334056,-122.2204504532,-302.509231849116
738532.56964818271808326244,-12.721488082522,-123.448286385693,-302.509231849116
738532.56964827317278832197,-12.7676473281045,-122.358928189947,-302.509231849116
738532.56964836362749338150,-12.7307199316385,-123.503677480392,-302.509231849116
738532.56964845396578311920,-12.5183874019593,-122.414319284646,-302.509231849116
738532.56964854442048817873,-12.1029541917173,-123.254417554247,-302.509231849116
738532.56964863487519323826,-11.7336802270577,-122.275841547899,-302.509231849116
738532.56964872532989829779,-12.0475630970183,-123.208258308664,-302.509231849116
738532.56964881578460335732,-12.361445966979,-122.986693929868,-302.509231849116
738532.56964890623930841684,-12.5830103457747,-123.623691518906,-302.509231849116
738532.56964899669401347637,-12.6845606860561,-123.208258308664,-302.509231849116
738532.56964908714871853590,-12.6937925351726,-123.439054536576,-302.509231849116
738532.56964917760342359543,-12.6753288369396,-123.226722006897,-302.509231849116
738532.56964926805812865496,-12.6845606860561,-123.319040498062,-302.509231849116
738532.56964935851283371449,-12.6845606860561,-123.420590838343,-302.509231849116
738532.56964944885112345219,-12.7030243842891,-122.958998382519,-302.509231849116
738532.56964953930582851171,-12.6937925351726,-123.503677480392,-302.509231849116
738532.56964962976053357124,-12.7030243842891,-122.995925778985,-302.509231849116
738532.56964972021523863077,-12.6845606860561,-123.734473708304,-302.509231849116
738532.56964981066994369030,-12.6753288369396,-122.792825098422,-302.509231849116
738532.56964990112464874983,-12.6753288369396,-123.679082613605,-302.509231849116
738532.56964999157935380936,-12.6753288369396,-122.765129551073,-302.509231849116
738532.56965008203405886889,-12.6845606860561,-123.27288125248,-302.509231849116
738532.56965017248876392841,-12.6568651387066,-122.792825098422,-302.509231849116
738532.56965026294346898794,-12.6568651387066,-122.986693929868,-302.509231849116
738532.56965035328175872564,-12.6384014404736,-122.829752494888,-302.509231849116
738532.56965044373646378517,-12.6476332895901,-122.829752494888,-302.509231849116
738532.56965053419116884470,-12.6384014404736,-122.949766533402,-302.509231849116
738532.56965062464587390423,-12.6291695913572,-122.672811059908,-302.509231849116
738532.56965071510057896376,-12.6199377422407,-123.032853175451,-302.509231849116
738532.56965080555528402328,-12.6199377422407,-122.53433332316,-302.509231849116
738532.56965089600998908281,-12.5922421948912,-123.152867213965,-302.509231849116
738532.56965098646469414234,-12.5830103457747,-122.395855586413,-302.509231849116
738532.56965107691939920187,-12.5737784966582,-123.235953856014,-302.509231849116
738532.56965116737410426140,-12.5553147984252,-122.174291207617,-302.509231849116
738532.56965125782880932093,-12.5460829493088,-123.143635364849,-302.509231849116
738532.56965134816709905863,-12.5276192510758,-121.952726828822,-302.509231849116
738532.56965143862180411816,-12.5091555528428,-123.069780571917,-302.509231849116
738532.56965152907650917768,-12.4906918546098,-121.786553544725,-302.509231849116
738532.56965161953121423721,-12.4999237037263,-122.922070986053,-302.509231849116
738532.56965170998591929674,-12.4906918546098,-121.657307657094,-302.509231849116
738532.56965180044062435627,-12.5091555528428,-122.017349772637,-302.509231849116
738532.56965189089532941580,-12.5091555528428,-122.451246681112,-302.509231849116
738532.56965198135003447533,-12.5553147984252,-122.017349772637,-302.509231849116
738532.56965207180473953485,-12.5645466475417,-122.728202154607,-302.509231849116
738532.56965216225944459438,-12.5922421948912,-121.961958677938,-302.509231849116
738532.56965225271414965391,-12.6107058931242,-122.829752494888,-302.509231849116
738532.56965234305243939161,-12.6291695913572,-121.869640186773,-302.509231849116
738532.56965243350714445114,-12.6384014404736,-122.829752494888,-302.509231849116
738532.56965252396184951067,-12.6476332895901,-121.601916562395,-302.509231849116
738532.56965261441655457020,-12.6568651387066,-122.765129551073,-302.509231849116
738532.56965270487125962973,-12.6476332895901,-121.3249610889,-302.509231849116
738532.56965279532596468925,-12.6660969878231,-122.598956266976,-302.509231849116
738532.56965288578066974878,-12.6384014404736,-121.408047730949,-302.509231849116
738532.56965297623537480831,-12.6568651387066,-122.469710379345,-302.509231849116
738532.56965306669007986784,-12.6845606860561,-122.03581347087,-302.509231849116
738532.56965315714478492737,-12.6660969878231,-122.829752494888,-302.509231849116
738532.56965324748307466507,-12.6384014404736,-121.666539506211,-302.509231849116
738532.56965333793777972460,-12.6568651387066,-122.56202887051,-302.509231849116
738532.56965342839248478413,-12.6384014404736,-121.740394299142,-302.509231849116
738532.56965351884718984365,-12.6660969878231,-122.386623737297,-302.509231849116
738532.56965360930189490318,-12.6476332895901,-121.768089846492,-302.509231849116
738532.56965369975659996271,-12.6476332895901,-121.444975127415,-302.509231849116
738532.56965379021130502224,-12.6660969878231,-122.571260719626,-302.509231849116
738532.56965388066601008177,-12.6660969878231,-121.35265663625,-302.509231849116
738532.56965397112071514130,-12.6845606860561,-122.552797021393,-302.509231849116
738532.56965406157542020082,-12.6660969878231,-121.371120334483,-302.509231849116
738532.56965415203012526035,-12.6845606860561,-122.56202887051,-302.509231849116
738532.56965424236841499805,-12.6660969878231,-121.435743278298,-302.509231849116
738532.56965433282312005758,-12.6845606860561,-122.525101474044,-302.509231849116
738532.56965442327782511711,-12.6753288369396,-121.518829920347,-302.509231849116
738532.56965451373253017664,-12.6845606860561,-122.40508743553,-302.509231849116
738532.56965460418723523617,-12.6753288369396,-121.611148411512,-302.509231849116
738532.56965469464194029570,-12.6937925351726,-122.294305246132,-302.509231849116
738532.56965478509664535522,-12.6753288369396,-121.712698751793,-302.509231849116
738532.56965487555135041475,-12.6937925351726,-122.137363811151,-302.509231849116
738532.56965496600605547428,-12.6753288369396,-121.860408337657,-302.509231849116
738532.56965505646076053381,-12.6937925351726,-121.961958677938,-302.509231849116
738532.56965514691546559334,-12.6845606860561,-121.989654225288,-302.509231849116
738532.56965523725375533104,-12.6845606860561,-121.832712790307,-302.509231849116
738532.56965532770846039057,-12.6753288369396,-122.146595660268,-302.509231849116
738532.56965541816316545010,-12.6660969878231,-121.721930600909,-302.509231849116
738532.56965550861787050962,-12.6660969878231,-122.322000793481,-302.509231849116
738532.56965559907257556915,-12.6660969878231,-121.491134372997,-302.509231849116
738532.56965568952728062868,-12.6845606860561,-122.432782982879,-302.509231849116
738532.56965577998198568821,-12.6753288369396,-121.629612109745,-302.509231849116
738532.56965587043669074774,-12.6753288369396,-122.358928189947,-302.509231849116
738532.56965596089139580727,-12.6568651387066,-121.805017242958,-302.509231849116
738532.56965605134610086679,-12.6384014404736,-122.322000793481,-302.509231849116
738532.56965614168439060450,-12.6014740440077,-122.045045319987,-302.509231849116
738532.56965623213909566402,-12.6107058931242,-122.2204504532,-302.509231849116
738532.56965632259380072355,-12.5645466475417,-122.165059358501,-302.509231849116
738532.56965641304850578308,-12.5553147984252,-121.989654225288,-302.509231849116
738532.56965650350321084261,-12.5553147984252,-122.2204504532,-302.509231849116
738532.56965659395791590214,-12.5922421948912,-121.795785393841,-302.509231849116
738532.56965668441262096167,-12.6291695913572,-122.358928189947,-302.509231849116
738532.56965677486732602119,-12.6568651387066,-121.685003204443,-302.509231849116
738532.56965686532203108072,-12.6568651387066,-122.497405926695,-302.509231849116
738532.56965695577673614025,-12.6753288369396,-121.601916562395,-302.509231849116
738532.56965704623144119978,-12.6937925351726,-122.608188116092,-302.509231849116
738532.56965713656973093748,-12.7030243842891,-121.53729361858,-302.509231849116
738532.56965722702443599701,-12.7122562334056,-122.672811059908,-302.509231849116
738532.56965731747914105654,-12.7122562334056,-121.481902523881,-302.509231849116
738532.56965740793384611607,-12.721488082522,-122.635883663442,-302.509231849116
738532.56965749838855117559,-12.7122562334056,-121.971190527055,-302.509231849116
738532.56965758884325623512,-12.7307199316385,-121.860408337657,-302.509231849116
738532.56965767929796129465,-12.721488082522,-122.03581347087,-302.509231849116
738532.56965776975266635418,-12.7307199316385,-121.638843958861,-302.509231849116
738532.56965786020737141371,-12.776879177221,-122.091204565569,-302.509231849116
738532.56965795066207647324,-12.7030243842891,-121.398815881832,-302.509231849116
738532.56965804111678153276,-12.4722281563768,-122.091204565569,-302.509231849116
738532.56965813145507127047,-12.0383312479019,-121.029541917173,-302.509231849116
738532.56965822190977632999,-11.6782891323588,-121.915799432356,-302.509231849116
738532.56965831236448138952,-12.0014038514359,-121.121860408338,-302.509231849116
738532.56965840281918644905,-12.361445966979,-122.414319284646,-302.509231849116
738532.56965849327389150858,-12.5922421948912,-121.472670674764,-302.509231849116
738532.56965858372859656811,-12.6937925351726,-122.663579210791,-302.509231849116
738532.56965867418330162764,-12.6845606860561,-121.426511429182,-302.509231849116
738532.56965876463800668716,-12.6937925351726,-122.589724417859,-302.509231849116
738532.56965885509271174669,-12.6845606860561,-121.417279580065,-302.509231849116
738532.56965894554741680622,-12.7030243842891,-122.497405926695,-302.509231849116
738532.56965903588570654392,-12.6845606860561,-121.35265663625,-302.509231849116
738532.56965912634041160345,-12.7030243842891,-122.368160039064,-302.509231849116
738532.56965921679511666298,-12.6845606860561,-121.491134372997,-302.509231849116
738532.56965930724982172251,-12.6937925351726,-121.53729361858,-302.509231849116
738532.56965939770452678204,-12.6845606860561,-122.460478530229,-302.509231849116
738532.56965948815923184156,-12.6753288369396,-121.35265663625,-302.509231849116
738532.56965957861393690109,-12.6753288369396,-122.451246681112,-302.509231849116
738532.56965966906864196062,-12.6660969878231,-121.223410748619,-302.509231849116
738532.56965975952334702015,-12.6660969878231,-122.349696340831,-302.509231849116
738532.56965984997805207968,-12.6568651387066,-121.186483352153,-302.509231849116
738532.56965994043275713921,-12.6476332895901,-122.368160039064,-302.509231849116
738532.56966003077104687691,-12.6291695913572,-121.158787804804,-302.509231849116
738532.56966012122575193644,-12.6291695913572,-122.331232642598,-302.509231849116
738532.56966021168045699596,-12.6014740440077,-121.177251503037,-302.509231849116
738532.56966030213516205549,-12.6107058931242,-122.248146000549,-302.509231849116
738532.56966039258986711502,-12.5830103457747,-121.35265663625,-302.509231849116
738532.56966048304457217455,-12.6014740440077,-122.2204504532,-302.509231849116
738532.56966057349927723408,-12.5645466475417,-121.500366222114,-302.509231849116
738532.56966066395398229361,-12.5645466475417,-122.128131962035,-302.509231849116
738532.56966075440868735313,-12.5368511001923,-121.657307657094,-302.509231849116
738532.56966084486339241266,-12.5368511001923,-121.943494979705,-302.509231849116
738532.56966093531809747219,-12.5091555528428,-121.749626148259,-302.509231849116
738532.56966102565638720989,-12.4999237037263,-121.731162450026,-302.509231849116
738532.56966111611109226942,-12.4722281563768,-121.860408337657,-302.509231849116
738532.56966120656579732895,-12.4722281563768,-121.16801965392,-302.509231849116
738532.56966129702050238848,-12.4814600054933,-122.322000793481,-302.509231849116
738532.56966138747520744801,-12.4722281563768,-121.19571520127,-302.509231849116
738532.56966147792991250753,-12.4999237037263,-122.285073397015,-302.509231849116
738532.56966156838461756706,-12.5183874019593,-121.371120334483,-302.509231849116
738532.56966165883932262659,-12.5645466475417,-122.312768944365,-302.509231849116
738532.56966174929402768612,-12.5737784966582,-121.592684713279,-302.509231849116
738532.56966183974873274565,-12.6107058931242,-122.266609698782,-302.509231849116
738532.56966193008702248335,-12.6199377422407,-121.814249092074,-302.509231849116
738532.56966202054172754288,-12.6476332895901,-122.183523056734,-302.509231849116
738532.56966211099643260241,-12.6384014404736,-122.03581347087,-302.509231849116
738532.56966220145113766193,-12.6568651387066,-122.128131962035,-302.509231849116
738532.56966229190584272146,-12.6476332895901,-122.183523056734,-302.509231849116
738532.56966238236054778099,-12.6568651387066,-121.989654225288,-302.509231849116
738532.56966247281525284052,-12.6476332895901,-122.395855586413,-302.509231849116
738532.56966256326995790005,-12.6568651387066,-121.841944639424,-302.509231849116
738532.56966265372466295958,-12.6476332895901,-122.506637775811,-302.509231849116
738532.56966274417936801910,-12.6568651387066,-121.703466902676,-302.509231849116
738532.56966283463407307863,-12.6476332895901,-122.515869624928,-302.509231849116
738532.56966292497236281633,-12.6476332895901,-121.491134372997,-302.509231849116
738532.56966301542706787586,-12.6476332895901,-122.56202887051,-302.509231849116
738532.56966310588177293539,-12.6384014404736,-121.685003204443,-302.509231849116
738532.56966319633647799492,-12.6476332895901,-122.054277169103,-302.509231849116
738532.56966328679118305445,-12.6384014404736,-121.768089846492,-302.509231849116
738532.56966337724588811398,-12.6568651387066,-121.860408337657,-302.509231849116
738532.56966346770059317350,-12.6384014404736,-121.897335734123,-302.509231849116
738532.56966355815529823303,-12.6568651387066,-121.731162450026,-302.509231849116
738532.56966364861000329256,-12.6476332895901,-122.054277169103,-302.509231849116
738532.56966373906470835209,-12.6476332895901,-121.564989165929,-302.509231849116
738532.56966382951941341162,-12.6476332895901,-122.183523056734,-302.509231849116
738532.56966391985770314932,-12.6568651387066,-121.500366222114,-302.509231849116
738532.56966401031240820885,-12.6476332895901,-122.395855586413,-302.509231849116
738532.56966410076711326838,-12.6568651387066,-121.454206976531,-302.509231849116
738532.56966419122181832790,-12.6568651387066,-122.525101474044,-302.509231849116
738532.56966428167652338743,-12.6568651387066,-121.454206976531,-302.509231849116
738532.56966437213122844696,-12.6476332895901,-122.626651814325,-302.509231849116
738532.56966446258593350649,-12.6384014404736,-121.426511429182,-302.509231849116
738532.56966455304063856602,-12.6753288369396,-122.635883663442,-302.509231849116
738532.56966464349534362555,-12.6568651387066,-121.426511429182,-302.509231849116
738532.56966473395004868507,-12.6660969878231,-122.598956266976,-302.509231849116
738532.56966482428833842278,-12.6107058931242,-121.408047730949,-302.509231849116
738532.56966491474304348230,-12.4537644581439,-122.303537095248,-302.509231849116
738532.56966500519774854183,-12.4814600054933,-122.165059358501,-302.509231849116
738532.56966509565245360136,-12.5276192510758,-121.53729361858,-302.509231849116
738532.56966518610715866089,-12.5830103457747,-122.432782982879,-302.509231849116
738532.56966527656186372042,-12.5922421948912,-121.53729361858,-302.509231849116
738532.56966536701656877995,-12.8876613666189,-122.90360728782,-302.509231849116
738532.56966545747127383947,-12.8599658192694,-121.805017242958,-302.509231849116
738532.56966554792597889900,-12.8230384228034,-122.968230231635,-302.509231849116
738532.56966563838068395853,-12.6845606860561,-121.712698751793,-302.509231849116
738532.56966572883538901806,-12.5922421948912,-122.857448042238,-302.509231849116
738532.56966581917367875576,-12.4906918546098,-121.592684713279,-302.509231849116
738532.56966590962838381529,-12.3983733634449,-122.765129551073,-302.509231849116
738532.56966600008308887482,-12.5645466475417,-121.869640186773,-302.509231849116
738532.56966609053779393435,-12.6476332895901,-123.180562761315,-302.509231849116
738532.56966618099249899387,-12.721488082522,-122.275841547899,-302.509231849116
738532.56966627144720405340,-12.8138065736869,-123.40212714011,-302.509231849116
738532.56966636190190911293,-12.758415478988,-122.543565172277,-302.509231849116
738532.56966645235661417246,-12.7030243842891,-123.27288125248,-302.509231849116
738532.56966654281131923199,-12.5830103457747,-122.617419965209,-302.509231849116
738532.56966663326602429152,-12.4814600054933,-123.08824427015,-302.509231849116
738532.56966672372072935104,-12.6384014404736,-122.93130283517,-302.509231849116
738532.56966681405901908875,-12.6937925351726,-122.571260719626,-302.509231849116
738532.56966690451372414827,-12.4629963072604,-123.697546311838,-302.509231849116
738532.56966699496842920780,-12.5460829493088,-122.774361400189,-302.509231849116
738532.56966708542313426733,-12.6384014404736,-124.177602465896,-302.509231849116
738532.56966717587783932686,-12.7676473281045,-123.337504196295,-302.509231849116
738532.56966726633254438639,-12.7307199316385,-124.473021637623,-302.509231849116
738532.56966735678724944592,-12.6753288369396,-123.355967894528,-302.509231849116
738532.56966744724195450544,-12.8045747245705,-124.537644581439,-302.509231849116
738532.56966753769665956497,-12.6568651387066,-123.632923368023,-302.509231849116
738532.56966762815136462450,-12.5830103457747,-124.380703146458,-302.509231849116
738532.56966771848965436220,-12.3337504196295,-123.882183294168,-302.509231849116
738532.56966780894435942173,-11.8629261146886,-123.882183294168,-302.509231849116
738532.56966789939906448126,-11.4197973570971,-123.143635364849,-302.509231849116
738532.56966798985376954079,-12.0752586443678,-123.900646992401,-302.509231849116
738532.56966808030847460032,-12.4537644581439,-124.214529862362,-302.509231849116
738532.56966817076317965984,-12.5922421948912,-124.066820276498,-302.509231849116
738532.56966826121788471937,-12.6845606860561,-124.196066164129,-302.509231849116
738532.56966835167258977890,-12.7491836298715,-123.983733634449,-302.509231849116
738532.56966844212729483843,-12.6107058931242,-124.29761650441,-302.509231849116
738532.56966853258199989796,-12.6660969878231,-123.697546311838,-302.509231849116
738532.56966862303670495749,-12.5091555528428,-124.362239448225,-302.509231849116
738532.56966871337499469519,-12.5276192510758,-123.808328501236,-302.509231849116
738532.56966880382969975471,-12.5368511001923,-124.48225348674,-302.509231849116
738532.56966889428440481424,-12.6753288369396,-124.094515823847,-302.509231849116
738532.56966898473910987377,-12.795342875454,-124.611499374371,-302.509231849116
738532.56966907519381493330,-12.795342875454,-124.380703146458,-302.509231849116
738532.56966916564851999283,-12.739951780755,-124.491485335856,-302.509231849116
738532.56966925610322505236,-12.6753288369396,-124.556108279672,-302.509231849116
738532.56966934655793011189,-12.6660969878231,-124.177602465896,-302.509231849116
738532.56966943701263517141,-12.6014740440077,-124.26992095706,-302.509231849116
738532.56966952746734023094,-12.5183874019593,-123.77140110477,-302.509231849116
738532.56966961792204529047,-12.5553147984252,-123.079012421033,-302.509231849116
738532.56966970826033502817,-12.5276192510758,-122.792825098422,-302.509231849116
738532.56966979871504008770,-12.6384014404736,-124.131443220313,-302.509231849116
738532.56966988916974514723,-12.721488082522,-123.706778160955,-302.509231849116
738532.56966997962445020676,-12.6937925351726,-124.842295602283,-302.509231849116
738532.56967007007915526628,-12.6660969878231,-124.066820276498,-302.509231849116
738532.56967016053386032581,-12.6568651387066,-125.239265114292,-302.509231849116
738532.56967025098856538534,-12.6199377422407,-124.159138767663,-302.509231849116
738532.56967034144327044487,-12.5091555528428,-125.377742851039,-302.509231849116
738532.56967043189797550440,-12.5091555528428,-124.196066164129,-302.509231849116
738532.56967052235268056393,-12.6014740440077,-125.285424359874,-302.509231849116
738532.56967061269097030163,-12.4629963072604,-124.648426770837,-302.509231849116
738532.56967070314567536116,-12.5460829493088,-124.306848353526,-302.509231849116
738532.56967079360038042068,-12.5737784966582,-124.602267525254,-302.509231849116
738532.56967088405508548021,-12.4168370616779,-123.642155217139,-302.509231849116
738532.56967097450979053974,-12.6384014404736,-124.63919492172,-302.509231849116
738532.56967106496449559927,-12.5830103457747,-123.706778160955,-302.509231849116
738532.56967115541920065880,-12.5368511001923,-124.537644581439,-302.509231849116
738532.56967124587390571833,-12.6107058931242,-123.475981933042,-302.509231849116
738532.56967133632861077785,-12.6107058931242,-124.528412732322,-302.509231849116
738532.56967142678331583738,-12.6107058931242,-123.27288125248,-302.509231849116
738532.56967151723802089691,-12.5830103457747,-124.316080202643,-302.509231849116
738532.56967160757631063461,-12.6476332895901,-123.143635364849,-302.509231849116
738532.56967169803101569414,-12.795342875454,-124.500717184973,-302.509231849116
738532.56967178848572075367,-12.739951780755,-123.291344950713,-302.509231849116
738532.56967187894042581320,-12.6937925351726,-124.48225348674,-302.509231849116
738532.56967196939513087273,-12.6199377422407,-123.235953856014,-302.509231849116
738532.56967205984983593225,-12.721488082522,-124.353007599109,-302.509231849116
738532.56967215030454099178,-12.6476332895901,-123.42982268746,-302.509231849116
738532.56967224075924605131,-12.6384014404736,-124.519180883206,-302.509231849116
738532.56967233121395111084,-12.6476332895901,-123.716010010071,-302.509231849116
738532.56967242166865617037,-12.6476332895901,-124.537644581439,-302.509231849116
738532.56967251212336122990,-12.6476332895901,-126.420941801202,-302.509231849116
738532.56967260246165096760,-12.795342875454,-124.694586016419,-302.509231849116
738532.56967269291635602713,-12.6753288369396,-125.783944212165,-302.509231849116
738532.56967278337106108665,-12.7676473281045,-124.805368205817,-302.509231849116
738532.56967287382576614618,-12.721488082522,-126.199377422407,-302.509231849116
738532.56967296428047120571,-12.6291695913572,-124.953077791681,-302.509231849116
738532.56967305473517626524,-12.7122562334056,-126.319391460921,-302.509231849116
738532.56967314518988132477,-12.6937925351726,-125.082323679312,-302.509231849116
738532.56967323564458638430,-12.5645466475417,-126.060899685659,-302.509231849116
738532.56967332609929144382,-12.6107058931242,-125.451597643971,-302.509231849116
738532.56967341655399650335,-12.6568651387066,-126.845606860561,-302.509231849116
738532.56967350689228624105,-12.8138065736869,-126.227072969756,-302.509231849116
738532.56967359734699130058,-12.6014740440077,-127.261040070803,-302.509231849116
738532.56967368780169636011,-12.8138065736869,-126.965620899075,-302.509231849116
738532.56967377825640141964,-12.8876613666189,-127.224112674337,-302.509231849116
738532.56967386871110647917,-12.721488082522,-126.827143162328,-302.509231849116
738532.56967395916581153870,-12.6014740440077,-126.485564745018,-302.509231849116
738532.56967404962051659822,-12.6568651387066,-126.734824671163,-302.509231849116
738532.56967414007522165775,-12.6107058931242,-126.19014557329,-302.509231849116
738532.56967423052992671728,-12.5830103457747,-126.199377422407,-302.509231849116
738532.56967432098463177681,-12.7676473281045,-125.562379833369,-302.509231849116
738532.56967441143933683634,-12.758415478988,-126.836375011444,-302.509231849116
738532.56967450177762657404,-12.8138065736869,-125.35004730369,-302.509231849116
738532.56967459223233163357,-12.7676473281045,-126.273232215339,-302.509231849116
738532.56967468268703669310,-12.7676473281045,-125.230033265175,-302.509231849116
738532.56967477314174175262,-12.6014740440077,-125.248496963408,-302.509231849116
738532.56967486359644681215,-12.7491836298715,-124.722281563768,-302.509231849116
738532.56967495405115187168,-12.6937925351726,-124.934614093448,-302.509231849116
738532.56967504450585693121,-12.8138065736869,-124.685354167302,-302.509231849116
738532.56967513496056199074,-12.5830103457747,-124.48225348674,-302.509231849116
738532.56967522541526705027,-12.6291695913572,-124.546876430555,-302.509231849116
738532.56967531586997210979,-12.6199377422407,-124.426862392041,-302.509231849116
738532.56967540632467716932,-12.7676473281045,-124.934614093448,-302.509231849116
738532.56967549666296690702,-12.6568651387066,-124.519180883206,-302.509231849116
738532.56967558711767196655,-12.7491836298715,-125.285424359874,-302.509231849116
738532.56967567757237702608,-12.4999237037263,-124.389934995575,-302.509231849116
738532.56967576802708208561,-12.6937925351726,-125.174642170476,-302.509231849116
738532.56967585848178714514,-12.5553147984252,-124.177602465896,-302.509231849116
738532.56967594893649220467,-12.5276192510758,-124.860759300516,-302.509231849116
738532.56967603939119726419,-12.7861110263375,-124.149906918546,-302.509231849116
738532.56967612984590232372,-12.6660969878231,-124.906918546098,-302.509231849116
738532.56967622030060738325,-12.758415478988,-124.399166844691,-302.509231849116
738532.56967631075531244278,-12.758415478988,-124.417630542924,-302.509231849116
738532.56967640109360218048,-12.758415478988,-124.417630542924,-302.509231849116
738532.56967649154830724001,-12.7676473281045,-124.463789788507,-302.509231849116
738532.56967658200301229954,-12.6476332895901,-124.583803827021,-302.509231849116
738532.56967667245771735907,-12.5830103457747,-124.103747672964,-302.509231849116
738532.56967676291242241859,-12.8691976683859,-124.749977111118,-302.509231849116
738532.56967685336712747812,-12.8968932157353,-124.657658619953,-302.509231849116
738532.56967694382183253765,-12.7861110263375,-125.248496963408,-302.509231849116
738532.56967703427653759718,-12.8784295175024,-124.26992095706,-302.509231849116
738532.56967712473124265671,-12.8138065736869,-125.110019226661,-302.509231849116
738532.56967721518594771624,-12.6476332895901,-124.131443220313,-302.509231849116
738532.56967730564065277576,-12.1214178899503,-124.953077791681,-302.509231849116
738532.56967739597894251347,-11.8629261146886,-124.445326090274,-302.509231849116
738532.56967748643364757299,-11.909085360271,-125.793176061281,-302.509231849116
738532.56967757688835263252,-12.3337504196295,-125.470061342204,-302.509231849116
738532.56967766734305769205,-12.5276192510758,-127.05793939024,-302.509231849116
738532.56967775779776275158,-12.5922421948912,-125.608539078951,-302.509231849116
738532.56967784825246781111,-12.8138065736869,-126.568651387066,-302.509231849116
738532.56967793870717287064,-12.6291695913572,-125.617770928068,-302.509231849116
738532.56967802916187793016,-12.6199377422407,-126.03320413831,-302.509231849116
738532.56967811961658298969,-12.6937925351726,-126.079363383892,-302.509231849116
738532.56967821007128804922,-12.8876613666189,-125.442365794855,-302.509231849116
738532.56967830052599310875,-12.8876613666189,-126.143986327708,-302.509231849116
738532.56967839086428284645,-12.7676473281045,-124.888454847865,-302.509231849116
738532.56967848131898790598,-12.8322702719199,-125.931653798028,-302.509231849116
738532.56967857177369296551,-12.7676473281045,-124.629963072604,-302.509231849116
738532.56967866222839802504,-12.8415021210364,-125.968581194494,-302.509231849116
738532.56967875268310308456,-12.7676473281045,-124.833063753166,-302.509231849116
738532.56967884313780814409,-12.6753288369396,-126.042435987426,-302.509231849116
738532.56967893359251320362,-12.7676473281045,-125.026932584613,-302.509231849116
738532.56967902404721826315,-12.8230384228034,-126.143986327708,-302.509231849116
738532.56967911450192332268,-12.6845606860561,-124.851527451399,-302.509231849116
738532.56967920495662838221,-12.721488082522,-125.673162022767,-302.509231849116
738532.56967929529491811991,-12.758415478988,-126.254768517106,-302.509231849116
738532.56967938574962317944,-12.8045747245705,-125.857799005097,-302.509231849116
738532.56967947620432823896,-12.6753288369396,-125.110019226661,-302.509231849116
738532.56967956665903329849,-12.7491836298715,-125.774712363048,-302.509231849116
738532.56967965711373835802,-12.7122562334056,-125.50698873867,-302.509231849116
738532.56967974756844341755,-12.6384014404736,-125.747016815699,-302.509231849116
738532.56967983802314847708,-12.7676473281045,-125.84856715598,-302.509231849116
738532.56967992847785353661,-12.6845606860561,-125.968581194494,-302.509231849116
738532.56968001893255859613,-12.6014740440077,-126.485564745018,-302.509231849116
738532.56968010938726365566,-12.6660969878231,-125.368511001923,-302.509231849116
738532.56968019984196871519,-12.6291695913572,-126.651738029115,-302.509231849116
738532.56968029018025845289,-12.379909665212,-125.405438398389,-302.509231849116
738532.56968038063496351242,-12.6660969878231,-126.817911313211,-302.509231849116
738532.56968047108966857195,-12.6937925351726,-125.931653798028,-302.509231849116
738532.56968056154437363148,-12.6107058931242,-126.088595233009,-302.509231849116
738532.56968065199907869101,-12.6291695913572,-124.888454847865,-302.509231849116
738532.56968074245378375053,-12.7307199316385,-125.193105868709,-302.509231849116
738532.56968083290848881006,-12.7030243842891,-124.380703146458,-302.509231849116
738532.56968092336319386959,-12.5830103457747,-128.211920529801,-302.509231849116
738532.56968101381789892912,-12.6014740440077,-126.725592822047,-302.509231849116
738532.56968110427260398865,-12.8045747245705,-126.060899685659,-302.509231849116
738532.56968119472730904818,-12.8691976683859,-125.87626270333,-302.509231849116
738532.56968128506559878588,-12.721488082522,-125.193105868709,-302.509231849116
738532.56968137552030384541,-12.5922421948912,-125.156178472243,-302.509231849116
738532.56968146597500890493,-12.7307199316385,-124.842295602283,-302.509231849116
738532.56968155642971396446,-12.7676473281045,-125.128482924894,-302.509231849116
738532.56968164688441902399,-12.776879177221,-123.697546311838,-302.509231849116
738532.56968173733912408352,-12.8415021210364,-124.417630542924,-302.509231849116
738532.56968182779382914305,-12.776879177221,-123.328272347179,-302.509231849116
738532.56968191824853420258,-12.6291695913572,-123.328272347179,-302.509231849116
738532.56968200870323926210,-12.9245887630848,-122.894375438704,-302.509231849116
738532.56968209915794432163,-12.8784295175024,-123.005157628101,-302.509231849116
738532.56968218949623405933,-12.8045747245705,-122.386623737297,-302.509231849116
738532.56968227995093911886,-12.8691976683859,-122.312768944365,-302.509231849116
738532.56968237040564417839,-12.776879177221,-122.137363811151,-302.509231849116
738532.56968246086034923792,-12.7861110263375,-121.528061769463,-302.509231849116
738532.56968255131505429745,-12.795342875454,-121.518829920347,-302.509231849116
738532.56968264176975935698,-12.7676473281045,-120.604876857814,-302.509231849116
738532.56968273222446441650,-12.7307199316385,-120.678731650746,-302.509231849116
738532.56968282267916947603,-12.7676473281045,-119.423200170904,-302.509231849116
738532.56968291313387453556,-12.7307199316385,-119.727851191748,-302.509231849116
738532.56968300358857959509,-12.795342875454,-118.629261146886,-302.509231849116
738532.56968309404328465462,-12.8230384228034,-119.469359416486,-302.509231849116
738532.56968318438157439232,-12.776879177221,-117.899945066683,-302.509231849116
738532.56968327483627945185,-12.776879177221,-119.035462508011,-302.509231849116
738532.56968336529098451138,-12.795342875454,-117.262947477645,-302.509231849116
738532.56968345574568957090,-12.7861110263375,-118.38000122074,-302.509231849116
738532.56968354620039463043,-12.7861110263375,-117.022919400616,-302.509231849116
738532.56968363665509968996,-12.7861110263375,-117.992263557848,-302.509231849116
738532.56968372710980474949,-12.758415478988,-117.410657063509,-302.509231849116
738532.56968381756450980902,-12.8045747245705,-116.51516769921,-302.509231849116
738532.56968390801921486855,-12.776879177221,-116.884441663869,-302.509231849116
738532.56968399847391992807,-12.8045747245705,-116.865977965636,-302.509231849116
738532.56968408892862498760,-12.8322702719199,-117.946104312265,-302.509231849116
738532.56968417926691472530,-12.8045747245705,-116.321298867763,-302.509231849116
738532.56968426972161978483,-12.739951780755,-118.001495406964,-302.509231849116
738532.56968436017632484436,-12.8138065736869,-117.632221442305,-302.509231849116
738532.56968445063102990389,-12.9245887630848,-119.681691946165,-302.509231849116
738532.56968454108573496342,-12.8691976683859,-118.887752922147,-302.509231849116
738532.56968463154044002295,-12.8876613666189,-120.217139194922,-302.509231849116
738532.56968472199514508247,-12.8599658192694,-119.27549058504,-302.509231849116
738532.56968481244985014200,-12.8507339701529,-120.4848628193,-302.509231849116
738532.56968490290455520153,-12.8415021210364,-119.164708395642,-302.509231849116
738532.56968499335926026106,-12.8045747245705,-120.863368633076,-302.509231849116
738532.56968508369754999876,-12.7676473281045,-120.189443647572,-302.509231849116
738532.56968517415225505829,-12.7491836298715,-121.177251503037,-302.509231849116
738532.56968526460696011782,-12.795342875454,-120.66949980163,-302.509231849116
738532.56968535506166517735,-12.758415478988,-121.869640186773,-302.509231849116
738532.56968544551637023687,-12.6660969878231,-121.408047730949,-302.509231849116
738532.56968553597107529640,-12.6660969878231,-122.589724417859,-302.509231849116
738532.56968562642578035593,-12.7122562334056,-123.106707968383,-302.509231849116
738532.56968571688048541546,-12.7491836298715,-121.961958677938,-302.509231849116
738532.56968580733519047499,-12.8968932157353,-123.605227820673,-302.509231849116
738532.56968589778989553452,-12.8876613666189,-122.091204565569,-302.509231849116
738532.56968598824460059404,-12.8784295175024,-123.27288125248,-302.509231849116
738532.56968607858289033175,-12.8968932157353,-121.906567583239,-302.509231849116
738532.56968616903759539127,-12.9153569139683,-123.189794610431,-302.509231849116
738532.56968625949230045080,-12.8876613666189,-122.506637775811,-302.509231849116
738532.56968634994700551033,-12.8876613666189,-123.40212714011,-302.509231849116
738532.56968644040171056986,-12.8322702719199,-122.414319284646,-302.509231849116
738532.56968653085641562939,-12.8784295175024,-122.940534684286,-302.509231849116
738532.56968662131112068892,-12.8507339701529,-122.285073397015,-302.509231849116
738532.56968671176582574844,-12.8968932157353,-122.922070986053,-302.509231849116
738532.56968680222053080797,-12.8415021210364,-122.53433332316,-302.509231849116
738532.56968689267523586750,-12.9799798577837,-122.875911740471,-302.509231849116
738532.56968698312994092703,-12.8784295175024,-122.811288796655,-302.509231849116
738532.56968707346823066473,-12.5091555528428,-122.571260719626,-302.509231849116
738532.56968716392293572426,-12.1491134372997,-122.672811059908,-302.509231849116
738532.56968725437764078379,-11.9183172093875,-122.303537095248,-302.509231849116
738532.56968734483234584332,-12.30605487228,-123.097476119266,-302.509231849116
738532.56968743528705090284,-12.5645466475417,-123.069780571917,-302.509231849116
738532.56968752574175596237,-12.721488082522,-123.789864803003,-302.509231849116
738532.56968761619646102190,-12.8784295175024,-122.774361400189,-302.509231849116
738532.56968770665116608143,-12.8876613666189,-123.642155217139,-302.509231849116
738532.56968779710587114096,-12.7491836298715,-122.774361400189,-302.509231849116
738532.56968788756057620049,-12.8968932157353,-123.605227820673,-302.509231849116
738532.56968797789886593819,-12.8876613666189,-123.097476119266,-302.509231849116
738532.56968806835357099771,-12.8599658192694,-123.171330912198,-302.509231849116
738532.56968815880827605724,-12.8691976683859,-122.765129551073,-302.509231849116
738532.56968824926298111677,-12.9061250648518,-122.90360728782,-302.509231849116
738532.56968833971768617630,-12.8138065736869,-122.93130283517,-302.509231849116
738532.56968843017239123583,-12.8322702719199,-122.654347361675,-302.509231849116
738532.56968852062709629536,-12.8230384228034,-122.940534684286,-302.509231849116
738532.56968861108180135489,-12.8599658192694,-122.571260719626,-302.509231849116
738532.56968870153650641441,-12.8507339701529,-123.171330912198,-302.509231849116
738532.56968879199121147394,-12.8230384228034,-122.340464491714,-302.509231849116
738532.56968888244591653347,-12.8045747245705,-123.097476119266,-302.509231849116
738532.56968897278420627117,-12.7491836298715,-121.749626148259,-302.509231849116
738532.56968906323891133070,-12.721488082522,-122.875911740471,-302.509231849116
738532.56968915369361639023,-12.739951780755,-121.795785393841,-302.509231849116
738532.56968924414832144976,-12.8784295175024,-123.097476119266,-302.509231849116
738532.56968933460302650928,-12.8415021210364,-122.349696340831,-302.509231849116
738532.56968942505773156881,-12.776879177221,-121.989654225288,-302.509231849116
738532.56968951551243662834,-12.7861110263375,-122.460478530229,-302.509231849116
738532.56968960596714168787,-12.776879177221,-122.525101474044,-302.509231849116
738532.56968969642184674740,-12.7307199316385,-122.912839136937,-302.509231849116
738532.56968978687655180693,-12.6753288369396,-122.368160039064,-302.509231849116
738532.56968987733125686646,-12.6660969878231,-123.27288125248,-302.509231849116
738532.56968996766954660416,-12.7030243842891,-122.460478530229,-302.509231849116
738532.56969005812425166368,-12.6845606860561,-123.309808648946,-302.509231849116
738532.56969014857895672321,-12.6291695913572,-121.971190527055,-302.509231849116
738532.56969023903366178274,-12.6753288369396,-123.106707968383,-302.509231849116
738532.56969032948836684227,-12.6476332895901,-121.758857997375,-302.509231849116
738532.56969041994307190180,-12.6568651387066,-122.838984344005,-302.509231849116
738532.56969051039777696133,-12.6937925351726,-121.481902523881,-302.509231849116
738532.56969060085248202085,-12.7122562334056,-122.885143589587,-302.509231849116
738532.56969069130718708038,-12.6937925351726,-121.731162450026,-302.509231849116
738532.56969078176189213991,-12.758415478988,-123.106707968383,-302.509231849116
738532.56969087210018187761,-12.7491836298715,-122.091204565569,-302.509231849116
738532.56969096255488693714,-12.795342875454,-123.162099063082,-302.509231849116
738532.56969105300959199667,-12.7491836298715,-122.100436414686,-302.509231849116
738532.56969114346429705620,-12.8230384228034,-123.079012421033,-302.509231849116
738532.56969123391900211573,-12.8230384228034,-123.217490157781,-302.509231849116
738532.56969132437370717525,-12.8784295175024,-122.598956266976,-302.509231849116
738532.56969141482841223478,-12.8507339701529,-123.651387066256,-302.509231849116
738532.56969150528311729431,-12.8691976683859,-122.589724417859,-302.509231849116
738532.56969159573782235384,-12.8507339701529,-123.808328501236,-302.509231849116
738532.56969168619252741337,-12.8507339701529,-122.709738456374,-302.509231849116
738532.56969177664723247290,-12.8507339701529,-123.854487746818,-302.509231849116
738532.56969186698552221060,-12.8322702719199,-122.571260719626,-302.509231849116
738532.56969195744022727013,-12.8415021210364,-123.669850764489,-302.509231849116
738532.56969204789493232965,-12.8230384228034,-122.451246681112,-302.509231849116
738532.56969213834963738918,-12.8230384228034,-123.475981933042,-302.509231849116
738532.56969222880434244871,-12.758415478988,-122.312768944365,-302.509231849116
738532.56969231925904750824,-12.8045747245705,-123.309808648946,-302.509231849116
738532.56969240971375256777,-12.776879177221,-122.506637775811,-302.509231849116
738532.56969250016845762730,-12.7861110263375,-123.217490157781,-302.509231849116
738532.56969259062316268682,-12.8784295175024,-122.977462080752,-302.509231849116
738532.56969268107786774635,-12.8599658192694,-123.365199743645,-302.509231849116
738532.56969277153257280588,-12.758415478988,-123.199026459548,-302.509231849116
738532.56969286187086254358,-12.8876613666189,-123.457518234809,-302.509231849116
738532.56969295232556760311,-12.8507339701529,-123.595995971557,-302.509231849116
738532.56969304278027266264,-12.8691976683859,-123.346736045412,-302.509231849116
738532.56969313323497772217,-12.8784295175024,-124.057588427381,-302.509231849116
738532.56969322368968278170,-12.8045747245705,-122.755897701956,-302.509231849116
738532.56969331414438784122,-12.8415021210364,-124.020661030915,-302.509231849116
738532.56969340459909290075,-12.8322702719199,-122.857448042238,-302.509231849116
738532.56969349505379796028,-12.7861110263375,-123.540604876858,-302.509231849116
738532.56969358550850301981,-12.8599658192694,-122.90360728782,-302.509231849116
738532.56969367596320807934,-12.8599658192694,-123.549836725974,-302.509231849116
738532.56969376630149781704,-12.776879177221,-122.755897701956,-302.509231849116
738532.56969385675620287657,-12.8322702719199,-123.263649403363,-302.509231849116
738532.56969394721090793610,-12.8691976683859,-123.079012421033,-302.509231849116
738532.56969403766561299562,-12.8784295175024,-123.531373027741,-302.509231849116
738532.56969412812031805515,-12.795342875454,-123.282113101596,-302.509231849116
738532.56969421857502311468,-12.8691976683859,-123.106707968383,-302.509231849116
738532.56969430902972817421,-12.8691976683859,-123.374431592761,-302.509231849116
738532.56969439948443323374,-12.8599658192694,-122.968230231635,-302.509231849116
738532.56969448993913829327,-12.776879177221,-123.549836725974,-302.509231849116
738532.56969458039384335279,-12.7307199316385,-122.654347361675,-302.509231849116
738532.56969467084854841232,-12.7861110263375,-123.40212714011,-302.509231849116
738532.56969476118683815002,-12.758415478988,-122.589724417859,-302.509231849116
738532.56969485164154320955,-12.7307199316385,-123.716010010071,-302.509231849116
738532.56969494209624826908,-12.776879177221,-122.875911740471,-302.509231849116
738532.56969503255095332861,-12.8045747245705,-123.632923368023,-302.509231849116
738532.56969512300565838814,-12.7676473281045,-123.143635364849,-302.509231849116
738532.56969521346036344767,-12.795342875454,-123.457518234809,-302.509231849116
738532.56969530391506850719,-12.8322702719199,-123.337504196295,-302.509231849116
738532.56969539436977356672,-12.8876613666189,-123.208258308664,-302.509231849116
738532.56969548482447862625,-12.8691976683859,-123.319040498062,-302.509231849116
738532.56969557527918368578,-12.8599658192694,-122.949766533402,-302.509231849116
738532.56969566573388874531,-12.8415021210364,-123.383663441877,-302.509231849116
738532.56969575607217848301,-12.8691976683859,-122.635883663442,-302.509231849116
738532.56969584652688354254,-12.8415021210364,-122.885143589587,-302.509231849116
738532.56969593698158860207,-12.8230384228034,-122.072740867336,-302.509231849116
738532.56969602743629366159,-12.8876613666189,-123.0605487228,-302.509231849116
738532.56969611789099872112,-12.8322702719199,-121.85117648854,-302.509231849116
738532.56969620834570378065,-12.8507339701529,-122.875911740471,-302.509231849116
738532.56969629880040884018,-12.8045747245705,-121.583452864162,-302.509231849116
738532.56969638925511389971,-12.8507339701529,-122.838984344005,-302.509231849116
738532.56969647970981895924,-12.5553147984252,-121.398815881832,-302.509231849116
738532.56969657016452401876,-12.0660267952513,-122.183523056734,-302.509231849116
738532.56969666050281375647,-11.8075350199896,-120.863368633076,-302.509231849116
738532.56969675095751881599,-12.3706778160955,-122.137363811151,-302.509231849116
738532.56969684141222387552,-12.4814600054933,-121.971190527055,-302.509231849116
738532.56969693186692893505,-12.6753288369396,-121.297265541551,-302.509231849116
738532.56969702232163399458,-12.7861110263375,-121.758857997375,-302.509231849116
738532.56969711277633905411,-12.8138065736869,-120.66949980163,-302.509231849116
738532.56969720323104411364,-12.8784295175024,-121.629612109745,-302.509231849116
738532.56969729368574917316,-12.8599658192694,-120.567949461348,-302.509231849116
738532.56969738414045423269,-12.8784295175024,-121.361888485366,-302.509231849116
738532.56969747459515929222,-12.8045747245705,-119.949415570544,-302.509231849116
738532.56969756504986435175,-12.8230384228034,-121.260338145085,-302.509231849116
738532.56969765538815408945,-12.8507339701529,-120.272530289621,-302.509231849116
738532.56969774584285914898,-12.8415021210364,-121.463438825648,-302.509231849116
738532.56969783629756420851,-12.8138065736869,-120.189443647572,-302.509231849116
738532.56969792675226926804,-12.8415021210364,-121.057237464522,-302.509231849116
738532.56969801720697432756,-12.758415478988,-119.663228247932,-302.509231849116
738532.56969810766167938709,-12.8322702719199,-120.272530289621,-302.509231849116
738532.56969819811638444662,-12.8415021210364,-118.998535111545,-302.509231849116
738532.56969828857108950615,-12.795342875454,-119.580141605884,-302.509231849116
738532.56969837902579456568,-12.7861110263375,-118.730811487167,-302.509231849116
738532.56969846948049962521,-12.8138065736869,-119.072389904477,-302.509231849116
738532.56969855993520468473,-12.776879177221,-118.638492996002,-302.509231849116
738532.56969865027349442244,-12.7491836298715,-119.173940244758,-302.509231849116
738532.56969874072819948196,-12.739951780755,-119.672460097049,-302.509231849116
738532.56969883118290454149,-12.7861110263375,-118.740043336283,-302.509231849116
738532.56969892163760960102,-12.7491836298715,-120.180211798456,-302.509231849116
738532.56969901209231466055,-12.6753288369396,-118.980071413312,-302.509231849116
738532.56969910254701972008,-12.6845606860561,-120.152516251106,-302.509231849116
738532.56969919300172477961,-12.6384014404736,-118.998535111545,-302.509231849116
738532.56969928345642983913,-12.6568651387066,-120.050965910825,-302.509231849116
738532.56969937391113489866,-12.6291695913572,-118.767738883633,-302.509231849116
738532.56969946436583995819,-12.6014740440077,-119.229331339457,-302.509231849116
738532.56969955470412969589,-12.6014740440077,-118.343073824274,-302.509231849116
738532.56969964515883475542,-12.6014740440077,-118.998535111545,-302.509231849116
738532.56969973561353981495,-12.6199377422407,-118.500015259255,-302.509231849116
738532.56969982606824487448,-12.6384014404736,-118.869289223914,-302.509231849116
738532.56969991652294993401,-12.6476332895901,-118.961607715079,-302.509231849116
738532.56970000697765499353,-12.6568651387066,-119.146244697409,-302.509231849116
738532.56970009743236005306,-12.6753288369396,-119.220099490341,-302.509231849116
738532.56970018788706511259,-12.7307199316385,-119.016998809778,-302.509231849116
738532.56970027834177017212,-12.758415478988,-119.561677907651,-302.509231849116
738532.56970036879647523165,-12.7030243842891,-118.93391216773,-302.509231849116
738532.56970045925118029118,-12.7491836298715,-119.755546739097,-302.509231849116
738532.56970054958947002888,-12.7307199316385,-119.127780999176,-302.509231849116
738532.56970064004417508841,-12.7491836298715,-119.884792626728,-302.509231849116
738532.56970073049888014793,-12.776879177221,-119.007766960662,-302.509231849116
738532.56970082095358520746,-12.7307199316385,-119.681691946165,-302.509231849116
738532.56970091140829026699,-12.7491836298715,-119.524750511185,-302.509231849116
738532.56970100186299532652,-12.8138065736869,-120.290993987854,-302.509231849116
738532.56970109231770038605,-12.739951780755,-120.623340556047,-302.509231849116
738532.56970118277240544558,-12.7676473281045,-120.82644123661,-302.509231849116
738532.56970127322711050510,-12.721488082522,-120.623340556047,-302.509231849116
738532.56970136368181556463,-12.7307199316385,-120.374080629902,-302.509231849116
738532.56970145413652062416,-12.7491836298715,-120.687963499863,-302.509231849116
738532.56970154447481036186,-12.7122562334056,-120.014038514359,-302.509231849116
738532.56970163492951542139,-12.7861110263375,-120.937223426008,-302.509231849116
738532.56970172538422048092,-12.776879177221,-120.134052552873,-302.509231849116
738532.56970181583892554045,-12.7307199316385,-121.177251503037,-302.509231849116
738532.56970190629363059998,-12.7491836298715,-120.078661458174,-302.509231849116
738532.56970199674833565950,-12.739951780755,-121.915799432356,-302.509231849116
738532.56970208720304071903,-12.7030243842891,-121.149555955687,-302.509231849116
738532.56970217765774577856,-12.7676473281045,-122.349696340831,-302.509231849116
738532.56970226811245083809,-12.739951780755,-121.19571520127,-302.509231849116
738532.56970235856715589762,-12.7307199316385,-122.248146000549,-302.509231849116
738532.56970244890544563532,-12.776879177221,-121.177251503037,-302.509231849116
738532.56970253936015069485,-12.8045747245705,-121.564989165929,-302.509231849116
738532.56970262981485575438,-12.758415478988,-121.85117648854,-302.509231849116
738532.56970272026956081390,-12.739951780755,-121.371120334483,-302.509231849116
738532.56970281072426587343,-12.7861110263375,-121.961958677938,-302.509231849116
738532.56970290117897093296,-12.8045747245705,-121.315729239784,-302.509231849116
738532.56970299163367599249,-12.721488082522,-121.998886074404,-302.509231849116
738532.56970308208838105202,-12.7491836298715,-121.795785393841,-302.509231849116
738532.56970317254308611155,-12.795342875454,-122.56202887051,-302.509231849116
738532.56970326299779117107,-12.795342875454,-121.408047730949,-302.509231849116
738532.56970335345249623060,-12.739951780755,-122.497405926695,-302.509231849116
738532.56970344379078596830,-12.7122562334056,-121.398815881832,-302.509231849116
738532.56970353424549102783,-12.7491836298715,-122.672811059908,-302.509231849116
738532.56970362470019608736,-12.721488082522,-121.712698751793,-302.509231849116
738532.56970371515490114689,-12.6753288369396,-121.408047730949,-302.509231849116
738532.56970380560960620642,-12.6199377422407,-120.660267952513,-302.509231849116
738532.56970389606431126595,-12.6845606860561,-122.06350901822,-302.509231849116
738532.56970398651901632547,-12.6937925351726,-121.16801965392,-302.509231849116
738532.56970407697372138500,-12.6937925351726,-122.045045319987,-302.509231849116
738532.56970416742842644453,-12.758415478988,-121.389584032716,-302.509231849116
738532.56970425788313150406,-12.758415478988,-122.238914151433,-302.509231849116
738532.56970434833783656359,-12.776879177221,-122.469710379345,-302.509231849116
738532.56970443867612630129,-12.739951780755,-121.500366222114,-302.509231849116
738532.56970452913083136082,-12.7491836298715,-122.608188116092,-302.509231849116
738532.56970461958553642035,-12.776879177221,-121.53729361858,-302.509231849116
738532.56970471004024147987,-12.7491836298715,-122.792825098422,-302.509231849116
738532.56970480049494653940,-12.795342875454,-121.814249092074,-302.509231849116
738532.56970489094965159893,-12.776879177221,-123.032853175451,-302.509231849116
738532.56970498140435665846,-12.776879177221,-121.943494979705,-302.509231849116
738532.56970507185906171799,-12.8322702719199,-123.328272347179,-302.509231849116
738532.56970516231376677752,-12.758415478988,-122.06350901822,-302.509231849116
738532.56970525276847183704,-12.8138065736869,-122.977462080752,-302.509231849116
738532.56970534310676157475,-12.795342875454,-122.294305246132,-302.509231849116
738532.56970543356146663427,-12.6291695913572,-122.912839136937,-302.509231849116
738532.56970552401617169380,-12.324518570513,-122.19275490585,-302.509231849116
738532.56970561447087675333,-11.8629261146886,-121.980422376171,-302.509231849116
738532.56970570492558181286,-11.7429120761742,-121.583452864162,-302.509231849116
738532.56970579538028687239,-12.3337504196295,-122.451246681112,-302.509231849116
738532.56970588583499193192,-12.5737784966582,-122.589724417859,-302.509231849116
738532.56970597628969699144,-12.7676473281045,-122.340464491714,-302.509231849116
738532.56970606674440205097,-12.7491836298715,-123.051316873684,-302.509231849116
738532.56970615719910711050,-12.7307199316385,-122.774361400189,-302.509231849116
738532.56970624765381217003,-12.739951780755,-123.540604876858,-302.509231849116
738532.56970633799210190773,-12.7030243842891,-122.303537095248,-302.509231849116
738532.56970642844680696726,-12.7307199316385,-123.134403515732,-302.509231849116
738532.56970651890151202679,-12.7122562334056,-122.091204565569,-302.509231849116
738532.56970660935621708632,-12.7491836298715,-122.885143589587,-302.509231849116
738532.56970669981092214584,-12.739951780755,-122.238914151433,-302.509231849116
738532.56970679026562720537,-12.7030243842891,-122.811288796655,-302.509231849116
738532.56970688072033226490,-12.7491836298715,-122.580492568743,-302.509231849116
738532.56970697117503732443,-12.7676473281045,-123.032853175451,-302.509231849116
738532.56970706162974238396,-12.739951780755,-122.857448042238,-302.509231849116
738532.56970715208444744349,-12.7030243842891,-122.811288796655,-302.509231849116
738532.56970724253915250301,-12.7307199316385,-123.023621326334,-302.509231849116
738532.56970733287744224072,-12.721488082522,-122.894375438704,-302.509231849116
738532.56970742333214730024,-12.6845606860561,-123.632923368023,-302.509231849116
738532.56970751378685235977,-12.6660969878231,-123.0605487228,-302.509231849116
738532.56970760424155741930,-12.6384014404736,-123.762169255654,-302.509231849116
738532.56970769469626247883,-12.6291695913572,-122.71897030549,-302.509231849116
738532.56970778515096753836,-12.6476332895901,-123.448286385693,-302.509231849116
738532.56970787560567259789,-12.6476332895901,-122.349696340831,-302.509231849116
738532.56970796606037765741,-12.7030243842891,-123.485213782159,-302.509231849116
738532.56970805651508271694,-12.6384014404736,-122.248146000549,-302.509231849116
738532.56970814696978777647,-12.6199377422407,-122.894375438704,-302.509231849116
738532.56970823730807751417,-12.6291695913572,-122.74666585284,-302.509231849116
738532.56970832776278257370,-12.6014740440077,-122.691274758141,-302.509231849116
738532.56970841821748763323,-12.5460829493088,-122.820520645772,-302.509231849116
738532.56970850867219269276,-12.4999237037263,-122.469710379345,-302.509231849116
738532.56970859912689775229,-12.4814600054933,-122.838984344005,-302.509231849116
738532.56970868958160281181,-12.4999237037263,-122.37739188818,-302.509231849116
738532.56970878003630787134,-12.4814600054933,-123.032853175451,-302.509231849116
738532.56970887049101293087,-12.5922421948912,-122.331232642598,-302.509231849116
738532.56970896094571799040,-12.5922421948912,-123.365199743645,-302.509231849116
738532.56970905140042304993,-12.6107058931242,-122.40508743553,-302.509231849116
738532.56970914185512810946,-12.6291695913572,-123.420590838343,-302.509231849116
738532.56970923219341784716,-12.6660969878231,-122.497405926695,-302.509231849116
738532.56970932264812290668,-12.6937925351726,-123.623691518906,-302.509231849116
738532.56970941310282796621,-12.6476332895901,-122.442014831996,-302.509231849116
738532.56970950355753302574,-12.6753288369396,-123.632923368023,-302.509231849116
738532.56970959401223808527,-12.6845606860561,-122.488174077578,-302.509231849116
738532.56970968446694314480,-12.7307199316385,-123.642155217139,-302.509231849116
738532.56970977492164820433,-12.721488082522,-122.423551133763,-302.509231849116
738532.56970986537635326385,-12.7676473281045,-123.466750083926,-302.509231849116
738532.56970995583105832338,-12.7491836298715,-122.56202887051,-302.509231849116
738532.56971004628576338291,-12.7491836298715,-122.654347361675,-302.509231849116
738532.56971013674046844244,-12.7030243842891,-123.531373027741,-302.509231849116
738532.56971022707875818014,-12.7030243842891,-122.663579210791,-302.509231849116
738532.56971031753346323967,-12.6845606860561,-123.688314462722,-302.509231849116
738532.56971040798816829920,-12.7030243842891,-122.672811059908,-302.509231849116
738532.56971049844287335873,-12.6660969878231,-123.762169255654,-302.509231849116
738532.56971058889757841825,-12.6568651387066,-122.478942228462,-302.509231849116
738532.56971067935228347778,-12.6476332895901,-123.688314462722,-302.509231849116
738532.56971076980698853731,-12.6476332895901,-122.506637775811,-302.509231849116
738532.56971086026169359684,-12.721488082522,-123.706778160955,-302.509231849116
738532.56971095071639865637,-12.758415478988,-122.608188116092,-302.509231849116
738532.56971104117110371590,-12.6845606860561,-123.540604876858,-302.509231849116
738532.56971113150939345360,-12.6845606860561,-122.571260719626,-302.509231849116
738532.56971122196409851313,-12.7307199316385,-123.448286385693,-302.509231849116
738532.56971131241880357265,-12.6845606860561,-122.598956266976,-302.509231849116
738532.56971140287350863218,-12.721488082522,-123.365199743645,-302.509231849116
738532.56971149332821369171,-12.6107058931242,-122.728202154607,-302.509231849116
738532.56971158378291875124,-12.739951780755,-123.300576799829,-302.509231849116
738532.56971167423762381077,-12.721488082522,-123.014389477218,-302.509231849116
738532.56971176469232887030,-12.6753288369396,-123.005157628101,-302.509231849116
738532.56971185514703392982,-12.6937925351726,-123.595995971557,-302.509231849116
738532.56971194560173898935,-12.721488082522,-122.515869624928,-302.509231849116
738532.56971203605644404888,-12.739951780755,-123.688314462722,-302.509231849116
738532.56971212639473378658,-12.721488082522,-122.488174077578,-302.509231849116
738532.56971221684943884611,-12.739951780755,-123.531373027741,-302.509231849116
738532.56971230730414390564,-12.6476332895901,-122.488174077578,-302.509231849116
738532.56971239775884896517,-12.739951780755,-123.503677480392,-302.509231849116
738532.56971248821355402470,-12.6845606860561,-122.626651814325,-302.509231849116
738532.56971257866825908422,-12.6845606860561,-123.282113101596,-302.509231849116
738532.56971266912296414375,-12.6753288369396,-122.663579210791,-302.509231849116
738532.56971275957766920328,-12.721488082522,-123.115939817499,-302.509231849116
738532.56971285003237426281,-12.6568651387066,-122.755897701956,-302.509231849116
738532.56971294048707932234,-12.739951780755,-122.977462080752,-302.509231849116
738532.56971303094178438187,-12.7030243842891,-122.940534684286,-302.509231849116
738532.56971312128007411957,-12.6937925351726,-122.774361400189,-302.509231849116
738532.56971321173477917910,-12.6568651387066,-123.014389477218,-302.509231849116
738532.56971330218948423862,-12.6107058931242,-122.56202887051,-302.509231849116
738532.56971339264418929815,-12.5830103457747,-123.143635364849,-302.509231849116
738532.56971348309889435768,-12.5368511001923,-122.442014831996,-302.509231849116
738532.56971357355359941721,-12.6199377422407,-123.328272347179,-302.509231849116
738532.56971366400830447674,-12.6568651387066,-122.451246681112,-302.509231849116
738532.56971375446300953627,-12.6937925351726,-123.235953856014,-302.509231849116
738532.56971384491771459579,-12.6845606860561,-122.589724417859,-302.509231849116
738532.56971393537241965532,-12.7122562334056,-123.0605487228,-302.509231849116
738532.56971402571070939302,-12.7122562334056,-122.709738456374,-302.509231849116
738532.56971411616541445255,-12.739951780755,-122.90360728782,-302.509231849116
738532.56971420662011951208,-12.6845606860561,-122.829752494888,-302.509231849116
738532.56971429707482457161,-12.721488082522,-122.755897701956,-302.509231849116
738532.56971438752952963114,-12.721488082522,-123.079012421033,-302.509231849116
738532.56971447798423469067,-12.7676473281045,-122.755897701956,-302.509231849116
738532.56971456843893975019,-12.7307199316385,-123.282113101596,-302.509231849116
738532.56971465889364480972,-12.739951780755,-122.626651814325,-302.509231849116
738532.56971474934834986925,-12.7307199316385,-123.392895290994,-302.509231849116
738532.56971483980305492878,-12.739951780755,-122.478942228462,-302.509231849116
738532.56971493025775998831,-12.721488082522,-123.512909329508,-302.509231849116
738532.56971502059604972601,-12.5553147984252,-122.432782982879,-302.509231849116
738532.56971511105075478554,-12.1398815881832,-123.309808648946,-302.509231849116
738532.56971520150545984507,-11.6967528305918,-121.925031281472,-302.509231849116
738532.56971529196016490459,-11.909085360271,-123.217490157781,-302.509231849116
738532.56971538241486996412,-12.2598956266976,-122.37739188818,-302.509231849116
738532.56971547286957502365,-12.5553147984252,-123.762169255654,-302.509231849116
738532.56971556332428008318,-12.7030243842891,-122.608188116092,-302.509231849116
738532.56971565377898514271,-12.721488082522,-122.986693929868,-302.509231849116
738532.56971574423369020224,-12.6753288369396,-123.475981933042,-302.509231849116
738532.56971583468839526176,-12.6845606860561,-122.894375438704,-302.509231849116
738532.56971592514310032129,-12.6937925351726,-123.697546311838,-302.509231849116
738532.56971601548139005899,-12.721488082522,-122.802056947539,-302.509231849116
738532.56971610593609511852,-12.739951780755,-123.669850764489,-302.509231849116
738532.56971619639080017805,-12.7030243842891,-122.543565172277,-302.509231849116
738532.56971628684550523758,-12.6845606860561,-123.568300424207,-302.509231849116
738532.56971637730021029711,-12.6937925351726,-122.331232642598,-302.509231849116
738532.56971646775491535664,-12.6753288369396,-123.512909329508,-302.509231849116
738532.56971655820962041616,-12.6753288369396,-122.432782982879,-302.509231849116
738532.56971664866432547569,-12.6384014404736,-123.58676412244,-302.509231849116
738532.56971673911903053522,-12.6660969878231,-122.506637775811,-302.509231849116
738532.56971682957373559475,-12.6476332895901,-123.540604876858,-302.509231849116
738532.56971691991202533245,-12.6384014404736,-122.432782982879,-302.509231849116
738532.56971701036673039198,-12.6476332895901,-123.420590838343,-302.509231849116
738532.56971710082143545151,-12.6568651387066,-122.414319284646,-302.509231849116
738532.56971719127614051104,-12.6660969878231,-123.152867213965,-302.509231849116
738532.56971728173084557056,-12.6199377422407,-122.506637775811,-302.509231849116
738532.56971737218555063009,-12.6107058931242,-123.079012421033,-302.509231849116
738532.56971746264025568962,-12.6014740440077,-122.645115512558,-302.509231849116
738532.56971755309496074915,-12.6107058931242,-122.349696340831,-302.509231849116
738532.56971764354966580868,-12.5460829493088,-123.448286385693,-302.509231849116
738532.56971773400437086821,-12.5368511001923,-122.303537095248,-302.509231849116
738532.56971782445907592773,-12.5091555528428,-123.420590838343,-302.509231849116
738532.56971791479736566544,-12.4722281563768,-122.211218604083,-302.509231849116
