time_dn,ecg_projection_ll_ra_mV,ecg_projection_la_ra_mV,ecg_projection_vx_rl_mV
738532.53942510206252336502,-7.72705771050142,-21.8240913113804,-302.509231849116
738532.53942519251722842455,-8.17941831720939,-22.1102786339915,-302.509231849116
738532.53942528297193348408,-8.46560563982055,-22.3687704092532,-302.509231849116
738532.53942537342663854361,-8.64101077303384,-22.2025971251564,-302.509231849116
738532.53942546388134360313,-8.65947447126682,-22.137974181341,-302.509231849116
738532.53942555433604866266,-8.65024262215033,-22.0733512375256,-302.509231849116
738532.53942564479075372219,-8.66870632038331,-22.119510483108,-302.509231849116
738532.53942573524545878172,-8.65947447126682,-22.0456556901761,-302.509231849116
738532.53942582581657916307,-8.66870632038331,-22.101046784875,-302.509231849116
738532.53942591627128422260,-8.66870632038331,-22.0271919919431,-302.509231849116
738532.53942600672598928213,-8.66870632038331,-22.0733512375256,-302.509231849116
738532.53942609718069434166,-8.66870632038331,-22.0364238410596,-302.509231849116
738532.53942618763539940119,-8.6779381694998,-22.0641193884091,-302.509231849116
738532.53942627809010446072,-8.65947447126682,-22.0271919919431,-302.509231849116
738532.53942636854480952024,-8.65947447126682,-22.0364238410596,-302.509231849116
738532.53942645899951457977,-8.65947447126682,-22.0364238410596,-302.509231849116
738532.53942654945421963930,-8.64101077303384,-22.0364238410596,-302.509231849116
738532.53942663990892469883,-8.64101077303384,-22.0548875392926,-302.509231849116
738532.53942673036362975836,-8.63177892391736,-22.0271919919431,-302.509231849116
738532.53942682081833481789,-8.62254707480087,-22.0456556901761,-302.509231849116
738532.53942691127303987741,-8.61331522568438,-21.9810327463607,-302.509231849116
738532.53942700172774493694,-8.60408337656789,-22.0087282937101,-302.509231849116
738532.53942709218244999647,-8.60408337656789,-21.9348735007782,-302.509231849116
738532.53942718263715505600,-8.58561967833491,-21.9994964445936,-302.509231849116
738532.53942727309186011553,-8.56715598010193,-21.9071779534288,-302.509231849116
738532.53942736354656517506,-8.55792413098544,-21.9810327463607,-302.509231849116
738532.53942745400127023458,-8.54869228186895,-21.8887142551958,-302.509231849116
738532.53942754445597529411,-8.52099673451949,-21.9441053498947,-302.509231849116
738532.53942763491068035364,-8.511764885403,-21.8887142551958,-302.509231849116
738532.53942772536538541317,-8.50253303628651,-21.8610187078463,-302.509231849116
738532.53942781593650579453,-8.48406933805353,-21.8517868587298,-302.509231849116
738532.53942790639121085405,-8.45637379070406,-21.7963957640309,-302.509231849116
738532.53942799684591591358,-8.43791009247108,-21.8148594622639,-302.509231849116
738532.53942808730062097311,-8.42867824335459,-21.7502365184484,-302.509231849116
738532.53942817775532603264,-8.43791009247108,-21.8056276131474,-302.509231849116
738532.53942826821003109217,-8.45637379070406,-21.7687002166814,-302.509231849116
738532.53942835866473615170,-8.48406933805353,-21.8794824060793,-302.509231849116
738532.53942844911944121122,-8.511764885403,-21.8425550096133,-302.509231849116
738532.53942853957414627075,-8.55792413098544,-21.9810327463607,-302.509231849116
738532.53942863002885133028,-8.58561967833491,-21.9348735007782,-302.509231849116
738532.53942872048355638981,-8.62254707480087,-22.0641193884091,-302.509231849116
738532.53942881093826144934,-8.63177892391736,-21.9994964445936,-302.509231849116
738532.53942890139296650887,-8.65024262215033,-22.101046784875,-302.509231849116
738532.53942899184767156839,-8.65024262215033,-22.0271919919431,-302.509231849116
738532.53942908230237662792,-8.65947447126682,-22.119510483108,-302.509231849116
738532.53942917275708168745,-8.66870632038331,-22.0364238410596,-302.509231849116
738532.53942926321178674698,-8.66870632038331,-22.1102786339915,-302.509231849116
738532.53942935366649180651,-8.66870632038331,-22.0271919919431,-302.509231849116
738532.53942944412119686604,-8.66870632038331,-22.0918149357585,-302.509231849116
738532.53942953457590192556,-8.65947447126682,-22.101046784875,-302.509231849116
738532.53942962503060698509,-8.65947447126682,-22.0271919919431,-302.509231849116
738532.53942971548531204462,-8.66870632038331,-22.1102786339915,-302.509231849116
738532.53942980605643242598,-8.65947447126682,-22.0179601428266,-302.509231849116
738532.53942989651113748550,-8.66870632038331,-22.1102786339915,-302.509231849116
738532.53942998696584254503,-8.66870632038331,-22.0271919919431,-302.509231849116
738532.53943007742054760456,-8.66870632038331,-22.119510483108,-302.509231849116
738532.53943016787525266409,-8.66870632038331,-22.0364238410596,-302.509231849116
738532.53943025832995772362,-8.66870632038331,-22.1287423322245,-302.509231849116
738532.53943034878466278315,-8.6779381694998,-22.0456556901761,-302.509231849116
738532.53943043923936784267,-8.6779381694998,-22.137974181341,-302.509231849116
738532.53943052969407290220,-8.68717001861629,-22.082583086642,-302.509231849116
738532.53943062014877796173,-8.68717001861629,-22.1472060304575,-302.509231849116
738532.53943071060348302126,-8.68717001861629,-22.0733512375256,-302.509231849116
738532.53943080105818808079,-8.68717001861629,-22.119510483108,-302.509231849116
738532.53943089151289314032,-8.69640186773278,-22.082583086642,-302.509231849116
738532.53943098196759819984,-8.70563371684927,-22.1287423322245,-302.509231849116
738532.53943107242230325937,-8.71486556596576,-22.119510483108,-302.509231849116
738532.53943116287700831890,-8.71486556596576,-22.137974181341,-302.509231849116
738532.53943125333171337843,-8.70563371684927,-22.1287423322245,-302.509231849116
738532.53943134378641843796,-8.71486556596576,-22.0918149357585,-302.509231849116
738532.53943143424112349749,-8.72409741508225,-22.1749015778069,-302.509231849116
738532.53943152469582855701,-8.73332926419874,-22.1656697286904,-302.509231849116
738532.53943161515053361654,-8.72409741508225,-22.2118289742729,-302.509231849116
738532.53943170560523867607,-8.73332926419874,-22.1102786339915,-302.509231849116
738532.53943179617635905743,-8.74256111331523,-22.1933652760399,-302.509231849116
738532.53943188663106411695,-8.74256111331523,-22.119510483108,-302.509231849116
738532.53943197708576917648,-8.74256111331523,-22.1749015778069,-302.509231849116
738532.53943206754047423601,-8.74256111331523,-22.1287423322245,-302.509231849116
738532.53943215799517929554,-8.75179296243171,-22.156437879574,-302.509231849116
738532.53943224844988435507,-8.7610248115482,-22.1472060304575,-302.509231849116
738532.53943233890458941460,-8.7610248115482,-22.137974181341,-302.509231849116
738532.53943242935929447412,-8.7610248115482,-22.1472060304575,-302.509231849116
738532.53943251981399953365,-8.77025666066469,-22.1472060304575,-302.509231849116
738532.53943261026870459318,-8.77025666066469,-22.156437879574,-302.509231849116
738532.53943270072340965271,-8.75179296243171,-22.1102786339915,-302.509231849116
738532.53943279117811471224,-8.74256111331523,-22.156437879574,-302.509231849116
738532.53943288163281977177,-8.72409741508225,-22.082583086642,-302.509231849116
738532.53943297208752483130,-8.70563371684927,-22.1472060304575,-302.509231849116
738532.53943306254222989082,-8.6779381694998,-22.0456556901761,-302.509231849116
738532.53943315299693495035,-8.66870632038331,-22.137974181341,-302.509231849116
738532.53943324345164000988,-8.66870632038331,-22.101046784875,-302.509231849116
738532.53943333390634506941,-8.70563371684927,-22.1472060304575,-302.509231849116
738532.53943342436105012894,-8.74256111331523,-22.1287423322245,-302.509231849116
738532.53943351481575518847,-8.77025666066469,-22.1656697286904,-302.509231849116
738532.53943360527046024799,-8.77948850978118,-22.1749015778069,-302.509231849116
738532.53943369572516530752,-8.79795220801416,-22.1472060304575,-302.509231849116
738532.53943378629628568888,-8.81641590624714,-22.1749015778069,-302.509231849116
738532.53943387675099074841,-8.84411145359661,-22.1472060304575,-302.509231849116
738532.53943396720569580793,-8.84411145359661,-22.1933652760399,-302.509231849116
738532.53943405766040086746,-8.85334330271309,-22.1102786339915,-302.509231849116
738532.53943414811510592699,-8.86257515182958,-22.2025971251564,-302.509231849116
738532.53943423856981098652,-8.87180700094607,-22.137974181341,-302.509231849116
738532.53943432902451604605,-8.87180700094607,-22.2118289742729,-302.509231849116
738532.53943441947922110558,-8.87180700094607,-22.101046784875,-302.509231849116
738532.53943450993392616510,-8.91796624652852,-22.1933652760399,-302.509231849116
738532.53943460038863122463,-8.92719809564501,-22.101046784875,-302.509231849116
738532.53943469084333628416,-8.82564775536363,-22.1841334269234,-302.509231849116
738532.53943478129804134369,-8.53946043275246,-22.0364238410596,-302.509231849116
738532.53943487175274640322,-8.12402722251045,-21.9441053498947,-302.5
738532.53943496220745146275,-7.87476729636525,-21.8333231604968,-302.509231849116
738532.53943505266215652227,-8.3363597521897,-22.1656697286904,-302.509231849116
738532.53943514311686158180,-8.47483748893704,-22.3318430127873,-302.509231849116
738532.53943523357156664133,-8.73332926419874,-22.3964659566027,-302.509231849116
738532.53943532402627170086,-8.87180700094607,-22.2856837672048,-302.509231849116
738532.53943541448097676039,-8.87180700094607,-22.1472060304575,-302.509231849116
738532.53943550493568181992,-8.88103885006256,-22.1841334269234,-302.509231849116
738532.53943559539038687944,-8.87180700094607,-22.0918149357585,-302.509231849116
738532.53943568584509193897,-8.87180700094607,-22.1749015778069,-302.509231849116
738532.53943577641621232033,-8.87180700094607,-22.0918149357585,-302.509231849116
738532.53943586687091737986,-8.88103885006256,-22.1933652760399,-302.509231849116
738532.53943595732562243938,-8.89027069917905,-22.0733512375256,-302.509231849116
738532.53943604778032749891,-8.89027069917905,-22.1749015778069,-302.509231849116
738532.53943613823503255844,-8.89950254829554,-22.0733512375256,-302.509231849116
738532.53943622868973761797,-8.89950254829554,-22.1933652760399,-302.509231849116
738532.53943631914444267750,-8.89027069917905,-22.0918149357585,-302.509231849116
738532.53943640959914773703,-8.89027069917905,-22.1656697286904,-302.509231849116
738532.53943650005385279655,-8.89027069917905,-22.101046784875,-302.509231849116
738532.53943659050855785608,-8.89027069917905,-22.1841334269234,-302.509231849116
738532.53943668096326291561,-8.87180700094607,-22.082583086642,-302.509231849116
738532.53943677141796797514,-8.87180700094607,-22.1102786339915,-302.509231849116
738532.53943686187267303467,-8.87180700094607,-22.0733512375256,-302.509231849116
738532.53943695232737809420,-8.88103885006256,-22.101046784875,-302.509231849116
738532.53943704278208315372,-8.88103885006256,-22.137974181341,-302.509231849116
738532.53943713323678821325,-8.87180700094607,-22.0087282937101,-302.509231849116
738532.53943722369149327278,-8.86257515182958,-22.119510483108,-302.509231849116
738532.53943731414619833231,-8.86257515182958,-22.0087282937101,-302.509231849116
738532.53943740460090339184,-8.83487960448012,-22.082583086642,-302.509231849116
738532.53943749505560845137,-8.83487960448012,-21.9625690481277,-302.509231849116
738532.53943758551031351089,-8.81641590624714,-22.0271919919431,-302.509231849116
738532.53943767596501857042,-8.79795220801416,-21.9164098025452,-302.509231849116
738532.53943776653613895178,-8.77948850978118,-21.9348735007782,-302.509231849116
738532.53943785699084401131,-8.74256111331523,-21.8333231604968,-302.509231849116
738532.53943794744554907084,-8.74256111331523,-21.8056276131474,-302.509231849116
738532.53943803790025413036,-8.7610248115482,-21.7963957640309,-302.509231849116
738532.53943812835495918989,-8.77025666066469,-21.8517868587298,-302.509231849116
738532.53943821880966424942,-8.80718405713065,-21.8794824060793,-302.509231849116
738532.53943830926436930895,-8.83487960448012,-21.9441053498947,-302.509231849116
738532.53943839971907436848,-8.88103885006256,-22.0087282937101,-302.509231849116
738532.53943849017377942801,-8.91796624652852,-22.0456556901761,-302.509231849116
738532.53943858062848448753,-8.95489364299448,-22.1472060304575,-302.509231849116
738532.53943867108318954706,-9.00105288857692,-22.1472060304575,-302.509231849116
738532.53943876153789460659,-9.04721213415937,-22.2487563707389,-302.509231849116
738532.53943885199259966612,-9.06567583239235,-22.1749015778069,-302.509231849116
738532.53943894244730472565,-9.08413953062532,-22.2856837672048,-302.509231849116
738532.53943903290200978518,-9.09337137974181,-22.2210608233894,-302.509231849116
738532.53943912335671484470,-9.09337137974181,-22.2579882198553,-302.509231849116
738532.53943921381141990423,-9.1026032288583,-22.2302926725059,-302.509231849116
738532.53943930426612496376,-9.1026032288583,-22.2210608233894,-302.509231849116
738532.53943939472083002329,-9.11183507797479,-22.2672200689718,-302.509231849116
738532.53943948517553508282,-9.1026032288583,-22.2856837672048,-302.509231849116
738532.53943957563024014235,-9.12106692709128,-22.2487563707389,-302.509231849116
738532.53943966608494520187,-9.13953062532426,-22.2672200689718,-302.509231849116
738532.53943975665606558323,-9.01028473769341,-22.1749015778069,-302.509231849116
738532.53943984711077064276,-9.0195165868099,-22.1472060304575,-302.509231849116
738532.53943993756547570229,-9.15799432355724,-22.3041474654378,-302.509231849116
738532.53944002802018076181,-9.13953062532426,-22.2395245216224,-302.509231849116
738532.53944011847488582134,-9.1026032288583,-22.2764519180883,-302.509231849116
738532.53944020892959088087,-9.20415356913968,-22.2672200689718,-302.509231849116
738532.53944029938429594040,-9.25031281472213,-22.4149296548357,-302.509231849116
738532.53944038983900099993,-9.21338541825617,-22.2856837672048,-302.509231849116
738532.53944048029370605946,-9.20415356913968,-22.4149296548357,-302.509231849116
738532.53944057074841111898,-9.1856898709067,-22.2856837672048,-302.509231849116
738532.53944066120311617851,-9.20415356913968,-22.4610889004181,-302.509231849116
738532.53944075165782123804,-9.20415356913968,-22.3964659566027,-302.509231849116
738532.53944084211252629757,-9.22261726737266,-22.3410748619037,-302.509231849116
738532.53944093256723135710,-9.1026032288583,-22.1933652760399,-302.509231849116
738532.53944102302193641663,-8.97335734122745,-21.9718008972442,-302.509231849116
738532.53944111347664147615,-9.14876247444075,-22.1472060304575,-302.509231849116
738532.53944120393134653568,-9.16722617267373,-22.1102786339915,-302.509231849116
738532.53944129438605159521,-9.29647206030457,-22.2302926725059,-302.509231849116
738532.53944138484075665474,-9.29647206030457,-22.1287423322245,-302.509231849116
738532.53944147529546171427,-9.26877651295511,-22.1933652760399,-302.509231849116
738532.53944156575016677380,-9.25031281472213,-22.0548875392926,-302.509231849116
738532.53944165620487183332,-9.25031281472213,-22.1287423322245,-302.509231849116
738532.53944174677599221468,-9.24108096560564,-21.9902645954772,-302.509231849116
738532.53944183723069727421,-9.08413953062532,-21.8794824060793,-302.509231849116
738532.53944192768540233374,-9.1856898709067,-21.8148594622639,-302.509231849116
738532.53944201814010739326,-9.14876247444075,-21.8333231604968,-302.509231849116
738532.53944210859481245279,-9.21338541825617,-21.7594683675649,-302.509231849116
738532.53944219904951751232,-9.30570390942106,-21.9348735007782,-302.509231849116
738532.53944228950422257185,-9.34263130588702,-21.8240913113804,-302.509231849116
738532.53944237995892763138,-9.25031281472213,-21.7594683675649,-302.509231849116
738532.53944247041363269091,-9.28724021118808,-21.7317728202155,-302.509231849116
738532.53944256086833775043,-9.11183507797479,-21.6671498764,-302.509231849116
738532.53944265132304280996,-9.12106692709128,-21.6763817255165,-302.509231849116
738532.53944274177774786949,-9.2780083620716,-21.6671498764,-302.509231849116
738532.53944283223245292902,-9.20415356913968,-21.6486861781671,-302.509231849116
738532.53944292268715798855,-9.1856898709067,-21.4917447431867,-302.509231849116
738532.53944301314186304808,-9.17645802179022,-21.5840632343516,-302.509231849116
738532.53944310359656810760,-9.24108096560564,-21.5102084414197,-302.509231849116
738532.53944319405127316713,-9.22261726737266,-21.5748313852351,-302.509231849116
738532.53944328450597822666,-9.29647206030457,-21.5379039887692,-302.509231849116
738532.53944337496068328619,-9.25031281472213,-21.5286721396527,-302.509231849116
738532.53944346541538834572,-9.23184911648915,-21.4086581011383,-302.509231849116
738532.53944355587009340525,-9.33339945677053,-21.6117587817011,-302.509231849116
738532.53944364632479846478,-9.1856898709067,-21.3901944029054,-302.509231849116
738532.53944373689591884613,-9.24108096560564,-21.5379039887692,-302.509231849116
738532.53944382735062390566,-9.47187719351787,-21.6486861781671,-302.509231849116
738532.53944391780532896519,-9.4441816461684,-21.741004669332,-302.509231849116
738532.53944400826003402472,-9.33339945677053,-21.5194402905362,-302.509231849116
738532.53944409871473908424,-9.30570390942106,-21.5932950834681,-302.509231849116
738532.53944418916944414377,-9.29647206030457,-21.6117587817011,-302.509231849116
738532.53944427962414920330,-9.37955870235298,-21.7317728202155,-302.509231849116
738532.53944437007885426283,-9.45341349528489,-21.7871639149144,-302.509231849116
738532.53944446053355932236,-9.40725424970244,-21.7871639149144,-302.509231849116
738532.53944455098826438189,-9.04721213415937,-21.6117587817011,-302.509231849116
738532.53944464144296944141,-8.7610248115482,-21.5840632343516,-302.509231849116
738532.53944473189767450094,-8.4194463942381,-21.6117587817011,-302.509231849116
738532.53944482235237956047,-8.4194463942381,-21.722540971099,-302.509231849116
738532.53944491280708462000,-9.06567583239235,-22.4056978057192,-302.509231849116
738532.53944500326178967953,-9.32416760765404,-22.4887844477676,-302.509231849116
738532.53944509371649473906,-9.35186315500351,-22.119510483108,-302.509231849116
738532.53944518417119979858,-9.34263130588702,-22.2487563707389,-302.509231849116
738532.53944527462590485811,-9.36109500412,-22.4426252021851,-302.509231849116
738532.53944536508060991764,-9.24108096560564,-22.3964659566027,-302.509231849116
738532.53944545553531497717,-9.32416760765404,-22.6272621845149,-302.509231849116
738532.53944554599002003670,-9.34263130588702,-22.6272621845149,-302.509231849116
738532.53944563644472509623,-9.38879055146947,-22.7011169774468,-302.509231849116
738532.53944572701584547758,-9.40725424970244,-22.6641895809809,-302.509231849116
738532.53944581747055053711,-9.35186315500351,-22.5903347880489,-302.509231849116
738532.53944590792525559664,-9.38879055146947,-22.7565080721458,-302.509231849116
738532.53944599837996065617,-9.26877651295511,-22.7103488265633,-302.509231849116
738532.53944608883466571569,-9.38879055146947,-22.7934354686117,-302.509231849116
738532.53944617928937077522,-9.40725424970244,-22.6826532792138,-302.509231849116
738532.53944626974407583475,-9.32416760765404,-22.6641895809809,-302.509231849116
738532.53944636019878089428,-9.33339945677053,-22.516479995117,-302.509231849116
738532.53944645065348595381,-9.55496383556627,-22.7011169774468,-302.509231849116
738532.53944654110819101334,-9.40725424970244,-22.3226111636708,-302.509231849116
738532.53944663156289607286,-9.29647206030457,-22.0641193884091,-302.509231849116
738532.53944672201760113239,-9.36109500412,-22.2395245216224,-302.509231849116
738532.53944681247230619192,-9.46264534440138,-22.2302926725059,-302.509231849116
738532.53944690292701125145,-9.36109500412,-22.1841334269234,-302.509231849116
738532.53944699338171631098,-9.25031281472213,-22.0733512375256,-302.509231849116
738532.53944708383642137051,-9.25031281472213,-22.1287423322245,-302.509231849116
738532.53944717429112643003,-9.35186315500351,-22.0918149357585,-302.509231849116
738532.53944726474583148956,-9.1856898709067,-22.0087282937101,-302.509231849116
738532.53944735520053654909,-9.34263130588702,-21.9718008972442,-302.509231849116
738532.53944744565524160862,-9.33339945677053,-22.082583086642,-302.509231849116
738532.53944753610994666815,-9.32416760765404,-21.704077272866,-302.509231849116
738532.53944762656465172768,-9.14876247444075,-21.7963957640309,-302.509231849116
738532.53944771713577210903,-9.19492172002319,-21.4732810449538,-302.509231849116
738532.53944780759047716856,-9.17645802179022,-21.704077272866,-302.509231849116
738532.53944789804518222809,-9.1026032288583,-21.4732810449538,-302.509231849116
738532.53944798849988728762,-9.25031281472213,-21.685613574633,-302.509231849116
738532.53944807895459234715,-9.31493575853755,-21.6394543290506,-302.509231849116
738532.53944816940929740667,-9.28724021118808,-21.8702505569628,-302.509231849116
738532.53944825986400246620,-9.2780083620716,-21.8702505569628,-302.509231849116
738532.53944835031870752573,-9.53650013733329,-22.0548875392926,-302.509231849116
738532.53944844077341258526,-9.6195867793817,-22.3226111636708,-302.509231849116
738532.53944853122811764479,-9.53650013733329,-22.1841334269234,-302.509231849116
738532.53944862168282270432,-9.49957274086734,-22.1656697286904,-302.509231849116
738532.53944871213752776384,-9.53650013733329,-21.9902645954772,-302.509231849116
738532.53944880259223282337,-9.53650013733329,-22.156437879574,-302.509231849116
738532.53944889304693788290,-9.5272682882168,-21.9810327463607,-302.509231849116
738532.53944898350164294243,-9.47187719351787,-22.1749015778069,-302.509231849116
738532.53944907395634800196,-9.31493575853755,-21.9071779534288,-302.509231849116
738532.53944916441105306149,-9.29647206030457,-22.156437879574,-302.509231849116
738532.53944925486575812101,-9.21338541825617,-21.9625690481277,-302.509231849116
738532.53944934532046318054,-9.43494979705191,-22.4056978057192,-302.509231849116
738532.53944943577516824007,-9.55496383556627,-22.2949156163213,-302.509231849116
738532.53944952622987329960,-9.55496383556627,-22.53494369335,-302.509231849116
738532.53944961680099368095,-9.48110904263436,-22.3410748619037,-302.509231849116
738532.53944970725569874048,-9.37032685323649,-22.5811029389325,-302.509231849116
738532.53944979771040380001,-9.33339945677053,-22.7472762230293,-302.509231849116
738532.53944988816510885954,-9.37955870235298,-22.8395947141942,-302.509231849116
738532.53944997861981391907,-9.35186315500351,-22.9965361491745,-302.509231849116
738532.53945006907451897860,-9.37032685323649,-22.6549577318644,-302.509231849116
738532.53945015952922403812,-9.37032685323649,-22.4241615039521,-302.509231849116
738532.53945024998392909765,-9.43494979705191,-22.0733512375256,-302.509231849116
738532.53945034043863415718,-9.38879055146947,-22.2487563707389,-302.509231849116
738532.53945043089333921671,-9.50880458998382,-22.3780022583697,-302.509231849116
738532.53945052134804427624,-9.46264534440138,-23.439664906766,-302.509231849116
738532.53945061180274933577,-9.37955870235298,-23.1627094332713,-302.509231849116
738532.53945070225745439529,-9.24108096560564,-22.968840601825,-302.509231849116
738532.53945079271215945482,-9.28724021118808,-22.5072481460005,-302.509231849116
738532.53945088316686451435,-9.17645802179022,-22.5811029389325,-302.509231849116
738532.53945097362156957388,-9.16722617267373,-22.7842036194952,-302.509231849116
738532.53945106407627463341,-9.13029877620777,-22.2579882198553,-302.509231849116
738532.53945115453097969294,-9.11183507797479,-21.9625690481277,-302.509231849116
738532.53945124498568475246,-8.73332926419874,-21.5748313852351,-302.509231849116
738532.53945133544038981199,-8.75179296243171,-21.6948454237495,-302.509231849116
738532.53945142589509487152,-8.94566179387799,-22.6549577318644,-302.509231849116
738532.53945151634979993105,-9.04721213415937,-22.3041474654378,-302.509231849116
738532.53945160692092031240,-9.08413953062532,-21.9625690481277,-302.509231849116
738532.53945169737562537193,-9.17645802179022,-22.7288125247963,-302.509231849116
738532.53945178783033043146,-9.2780083620716,-22.4426252021851,-302.509231849116
738532.53945187828503549099,-8.83487960448012,-21.8702505569628,-302.509231849116
738532.53945196873974055052,-8.91796624652852,-21.9902645954772,-302.509231849116
738532.53945205919444561005,-9.19492172002319,-22.4426252021851,-302.509231849116
738532.53945214964915066957,-9.09337137974181,-22.3133793145543,-302.509231849116
738532.53945224010385572910,-8.9364299447615,-22.3872341074862,-302.509231849116
738532.53945233055856078863,-9.03798028504288,-22.3872341074862,-302.509231849116
738532.53945242101326584816,-8.90873439741203,-22.4703207495346,-302.509231849116
738532.53945251146797090769,-8.9364299447615,-23.0242316965239,-302.509231849116
738532.53945260192267596722,-8.96412549211096,-22.7565080721458,-302.509231849116
738532.53945269237738102674,-8.96412549211096,-22.7842036194952,-302.509231849116
738532.53945278283208608627,-9.00105288857692,-22.7565080721458,-302.509231849116
738532.53945287328679114580,-8.9364299447615,-23.0149998474075,-302.509231849116
738532.53945296374149620533,-8.99182103946043,-22.7749717703787,-302.509231849116
738532.53945305419620126486,-9.02874843592639,-22.2764519180883,-302.509231849116
738532.53945314465090632439,-9.13029877620777,-22.5811029389325,-302.509231849116
738532.53945323510561138391,-9.22261726737266,-22.4703207495346,-302.509231849116
738532.53945332556031644344,-9.23184911648915,-22.1749015778069,-302.509231849116
738532.53945341601502150297,-9.25954466383862,-22.0641193884091,-302.509231849116
738532.53945350646972656250,-9.19492172002319,-21.704077272866,-302.509231849116
738532.53945359704084694386,-9.20415356913968,-21.9902645954772,-302.509231849116
738532.53945368749555200338,-9.45341349528489,-21.7317728202155,-302.509231849116
738532.53945377795025706291,-9.51803643910031,-21.6302224799341,-302.509231849116
738532.53945386840496212244,-9.46264534440138,-22.0733512375256,-302.509231849116
738532.53945395885966718197,-9.46264534440138,-21.8333231604968,-302.509231849116
738532.53945404931437224150,-9.16722617267373,-21.6671498764,-302.509231849116
738532.53945413976907730103,-8.58561967833491,-21.1593981749931,-302.509231849116
738532.53945423022378236055,-8.35482345042268,-21.2147892696921,-302.509231849116
738532.53945432067848742008,-8.89950254829554,-21.288644062624,-302.509231849116
738532.53945441113319247961,-9.23184911648915,-21.6948454237495,-302.509231849116
738532.53945450158789753914,-9.42571794793542,-21.233252967925,-302.509231849116
738532.53945459204260259867,-9.55496383556627,-21.3624988555559,-302.509231849116
738532.53945468249730765820,-9.60112308114872,-21.1040070802942,-302.509231849116
738532.53945477295201271772,-9.54573198644978,-21.2609485152745,-302.509231849116
738532.53945486340671777725,-9.58265938291574,-20.8824427014985,-302.509231849116
738532.53945495386142283678,-9.63805047761467,-21.0855433820612,-302.509231849116
738532.53945504431612789631,-9.68420972319712,-20.817819757683,-302.509231849116
738532.53945513477083295584,-9.61035493026521,-21.0578478347118,-302.509231849116
738532.53945522522553801537,-9.68420972319712,-20.7901242103336,-302.509231849116
738532.53945531568024307489,-9.67497787408063,-20.854747154149,-302.509231849116
738532.53945540613494813442,-9.7026734214301,-20.5316324350719,-302.509231849116
738532.53945549658965319395,-9.74883266701254,-20.817819757683,-302.509231849116
738532.53945558716077357531,-9.68420972319712,-20.5131687368389,-302.509231849116
738532.53945567761547863483,-9.66574602496414,-20.439313943907,-302.509231849116
738532.53945576807018369436,-9.58265938291574,-20.6054872280038,-302.509231849116
738532.53945585852488875389,-9.79499191259499,-20.6054872280038,-302.509231849116
738532.53945594897959381342,-9.42571794793542,-20.4947050386059,-302.509231849116
738532.53945603943429887295,-9.69344157231361,-20.5685598315378,-302.509231849116
738532.53945612988900393248,-9.59189123203223,-20.7993560594501,-302.509231849116
738532.53945622034370899200,-9.53650013733329,-20.5962553788873,-302.509231849116
738532.53945631079841405153,-9.63805047761467,-21.0486159855953,-302.509231849116
738532.53945640125311911106,-9.48110904263436,-20.6885738700522,-302.509231849116
738532.53945649170782417059,-9.55496383556627,-21.0763115329447,-302.509231849116
738532.53945658216252923012,-9.41648609881893,-20.7531968138676,-302.509231849116
738532.53945667261723428965,-9.25031281472213,-20.8270516067995,-302.509231849116
738532.53945676307193934917,-9.21338541825617,-20.5870235297708,-302.509231849116
738532.53945685352664440870,-9.40725424970244,-21.5286721396527,-302.509231849116
738532.53945694398134946823,-9.23184911648915,-20.7531968138676,-302.509231849116
738532.53945703443605452776,-9.48110904263436,-21.0209204382458,-302.509231849116
738532.53945712489075958729,-9.25954466383862,-20.5408642841884,-302.509231849116
738532.53945721534546464682,-9.31493575853755,-20.7255012665181,-302.509231849116
738532.53945730580016970634,-9.26877651295511,-20.7162694174017,-302.509231849116
738532.53945739625487476587,-9.28724021118808,-20.7255012665181,-302.509231849116
738532.53945748670957982540,-9.38879055146947,-20.8455153050325,-302.509231849116
738532.53945757728070020676,-9.21338541825617,-20.5316324350719,-302.509231849116
738532.53945766773540526628,-9.38879055146947,-21.0024567400128,-302.509231849116
738532.53945775819011032581,-9.53650013733329,-20.8916745506149,-302.509231849116
738532.53945784864481538534,-9.47187719351787,-21.0578478347118,-302.509231849116
738532.53945793909952044487,-9.25954466383862,-20.6239509262368,-302.509231849116
738532.53945802955422550440,-9.60112308114872,-21.1778618732261,-302.509231849116
738532.53945812000893056393,-9.50880458998382,-20.9009063997314,-302.509231849116
738532.53945821046363562346,-9.37032685323649,-20.873210852382,-302.509231849116
738532.53945830091834068298,-9.49034089175085,-20.9009063997314,-302.509231849116
738532.53945839137304574251,-9.50880458998382,-20.9562974944304,-302.509231849116
738532.53945848182775080204,-9.60112308114872,-21.0486159855953,-302.509231849116
738532.53945857228245586157,-9.55496383556627,-21.0209204382458,-302.509231849116
738532.53945866273716092110,-9.51803643910031,-20.9562974944304,-302.509231849116
738532.53945875319186598063,-9.49034089175085,-20.8639790032655,-302.509231849116
738532.53945884364657104015,-9.36109500412,-20.817819757683,-302.509231849116
738532.53945893410127609968,-9.47187719351787,-20.8270516067995,-302.509231849116
738532.53945902455598115921,-9.42571794793542,-20.9470656453139,-302.509231849116
738532.53945911501068621874,-9.56419568468276,-20.9009063997314,-302.509231849116
738532.53945920546539127827,-9.5272682882168,-21.0855433820612,-302.509231849116
738532.53945929592009633780,-9.46264534440138,-20.7993560594501,-302.509231849116
738532.53945938637480139732,-9.40725424970244,-20.9193700979644,-302.509231849116
738532.53945947682950645685,-9.42571794793542,-20.8455153050325,-302.509231849116
738532.53945956740062683821,-9.40725424970244,-20.9286019470809,-302.509231849116
738532.53945965785533189774,-9.40725424970244,-20.8639790032655,-302.509231849116
738532.53945974831003695726,-9.45341349528489,-20.9101382488479,-302.509231849116
738532.53945983876474201679,-9.56419568468276,-21.0209204382458,-302.509231849116
738532.53945992921944707632,-9.41648609881893,-20.8639790032655,-302.509231849116
738532.53946001967415213585,-9.50880458998382,-21.0209204382458,-302.509231849116
738532.53946011012885719538,-9.49034089175085,-20.8916745506149,-302.509231849116
738532.53946020058356225491,-9.38879055146947,-20.9286019470809,-302.509231849116
738532.53946029103826731443,-9.36109500412,-20.7624286629841,-302.509231849116
738532.53946038149297237396,-9.26877651295511,-20.8639790032655,-302.509231849116
738532.53946047194767743349,-9.58265938291574,-20.9470656453139,-302.509231849116
738532.53946056240238249302,-9.45341349528489,-21.0486159855953,-302.509231849116
738532.53946065285708755255,-9.41648609881893,-20.7531968138676,-302.509231849116
738532.53946074331179261208,-9.40725424970244,-21.0024567400128,-302.509231849116
738532.53946083376649767160,-9.4441816461684,-20.7255012665181,-302.509231849116
738532.53946092422120273113,-9.51803643910031,-21.0947752311777,-302.509231849116
738532.53946101467590779066,-9.47187719351787,-20.7624286629841,-302.509231849116
738532.53946110513061285019,-9.35186315500351,-20.9378337961974,-302.509231849116
738532.53946119558531790972,-9.31493575853755,-20.5962553788873,-302.509231849116
738532.53946128604002296925,-9.28724021118808,-20.6516464735862,-302.509231849116
738532.53946137649472802877,-9.39802240058595,-20.9009063997314,-302.509231849116
738532.53946146694943308830,-9.40725424970244,-20.7716605121006,-302.509231849116
738532.53946155752055346966,-9.33339945677053,-20.9101382488479,-302.509231849116
738532.53946164797525852919,-9.20415356913968,-20.5777916806543,-302.509231849116
738532.53946173842996358871,-9.23184911648915,-20.8639790032655,-302.509231849116
738532.53946182888466864824,-9.07490768150883,-20.4947050386059,-302.509231849116
738532.53946191933937370777,-9.32416760765404,-21.1409344767602,-302.509231849116
738532.53946200979407876730,-9.28724021118808,-20.7531968138676,-302.509231849116
738532.53946210024878382683,-9.4441816461684,-21.2055574205756,-302.509231849116
738532.53946219070348888636,-9.37955870235298,-20.7993560594501,-302.509231849116
738532.53946228115819394588,-9.26877651295511,-20.9655293435469,-302.509231849116
738532.53946237161289900541,-9.35186315500351,-20.7255012665181,-302.509231849116
738532.53946246206760406494,-9.25031281472213,-20.9101382488479,-302.509231849116
738532.53946255252230912447,-9.29647206030457,-20.6516464735862,-302.509231849116
738532.53946264297701418400,-9.46264534440138,-21.0670796838282,-302.509231849116
738532.53946273343171924353,-9.4441816461684,-20.7993560594501,-302.509231849116
738532.53946282388642430305,-9.40725424970244,-20.9470656453139,-302.509231849116
738532.53946291434112936258,-9.37032685323649,-20.7347331156346,-302.509231849116
738532.53946300479583442211,-9.30570390942106,-20.7993560594501,-302.509231849116
738532.53946309525053948164,-9.37955870235298,-20.7531968138676,-302.509231849116
738532.53946318570524454117,-9.43494979705191,-20.6793420209357,-302.509231849116
738532.53946327615994960070,-9.12106692709128,-20.6885738700522,-302.509231849116
738532.53946336661465466022,-9.2780083620716,-20.7070375682852,-302.509231849116
738532.53946345706935971975,-8.79795220801416,-20.8085879085665,-302.509231849116
738532.53946354764048010111,-8.41021454512162,-20.4670094912564,-302.509231849116
738532.53946363809518516064,-8.4194463942381,-20.7808923612171,-302.509231849116
738532.53946372854989022017,-8.7610248115482,-20.7531968138676,-302.509231849116
738532.53946381900459527969,-8.99182103946043,-21.0486159855953,-302.509231849116
738532.53946390945930033922,-9.25954466383862,-20.7808923612171,-302.509231849116
738532.53946399991400539875,-9.04721213415937,-20.6608783227027,-302.509231849116
738532.53946409036871045828,-9.28724021118808,-20.7070375682852,-302.509231849116
738532.53946418082341551781,-9.30570390942106,-20.854747154149,-302.509231849116
738532.53946427127812057734,-9.36109500412,-20.7808923612171,-302.509231849116
738532.53946436173282563686,-9.2780083620716,-20.7716605121006,-302.509231849116
738532.53946445218753069639,-9.36109500412,-20.8270516067995,-302.509231849116
738532.53946454264223575592,-9.32416760765404,-20.817819757683,-302.509231849116
738532.53946463309694081545,-9.22261726737266,-20.7255012665181,-302.509231849116
738532.53946472355164587498,-9.23184911648915,-20.6331827753533,-302.509231849116
738532.53946481400635093451,-9.23184911648915,-20.6885738700522,-302.509231849116
738532.53946490446105599403,-9.12106692709128,-20.3654591509751,-302.509231849116
738532.53946499491576105356,-9.05644398327586,-20.45777764214,-302.509231849116
738532.53946508537046611309,-9.23184911648915,-20.3746910000916,-302.509231849116
738532.53946517582517117262,-9.31493575853755,-20.6608783227027,-302.509231849116
738532.53946526627987623215,-9.20415356913968,-20.2916043580432,-302.509231849116
738532.53946535673458129168,-9.17645802179022,-20.3931546983245,-302.509231849116
738532.53946544718928635120,-9.13953062532426,-20.2177495651112,-302.509231849116
738532.53946553776040673256,-9.31493575853755,-20.4762413403729,-302.509231849116
738532.53946562821511179209,-9.25031281472213,-20.2823725089267,-302.509231849116
738532.53946571866981685162,-9.19492172002319,-20.1715903195288,-302.509231849116
738532.53946580912452191114,-9.08413953062532,-20.005417035432,-302.509231849116
738532.53946589957922697067,-9.17645802179022,-19.8946348460341,-302.509231849116
738532.53946599003393203020,-9.1856898709067,-19.8946348460341,-302.509231849116
738532.53946608048863708973,-9.13953062532426,-19.6638386181219,-302.509231849116
738532.53946617094334214926,-9.09337137974181,-19.6730704672384,-302.509231849116
738532.53946626139804720879,-9.12106692709128,-19.4330423902097,-302.509231849116
738532.53946635185275226831,-9.06567583239235,-19.5068971831416,-302.509231849116
738532.53946644230745732784,-9.03798028504288,-19.2945646534623,-302.509231849116
738532.53946653276216238737,-9.06567583239235,-19.5161290322581,-302.509231849116
738532.53946662321686744690,-8.96412549211096,-19.119159520249,-302.426145207068
738532.53946671367157250643,-9.25031281472213,-19.5807519760735,-302.509231849116
738532.53946680412627756596,-9.25031281472213,-19.3499557481613,-302.509231849116
738532.53946689458098262548,-9.29647206030457,-19.5068971831416,-302.509231849116
738532.53946698503568768501,-9.4441816461684,-19.6823023163549,-302.509231849116
738532.53946707549039274454,-9.59189123203223,-20.023880733665,-302.509231849116
738532.53946716594509780407,-9.60112308114872,-20.1346629230628,-302.509231849116
738532.53946725639980286360,-9.75806451612903,-19.986953337199,-302.509231849116
738532.53946734685450792313,-9.65651417584765,-19.8392437513352,-302.509231849116
738532.53946743730921298265,-9.54573198644978,-19.6915341654714,-302.509231849116
738532.53946752788033336401,-9.57342753379925,-20.005417035432,-302.509231849116
738532.53946761833503842354,-9.40725424970244,-19.9500259407331,-302.509231849116
738532.53946770878974348307,-9.35186315500351,-20.6424146244697,-302.509231849116
738532.53946779924444854259,-9.29647206030457,-20.817819757683,-302.509231849116
738532.53946788969915360212,-9.37955870235298,-21.2147892696921,-302.509231849116
738532.53946798015385866165,-9.43494979705191,-20.023880733665,-302.509231849116
738532.53946807060856372118,-9.21338541825617,-19.3591875972777,-302.509231849116
738532.53946816106326878071,-9.13953062532426,-18.6575670644246,-302.509231849116
738532.53946825151797384024,-8.90873439741203,-18.4267708365123,-302.509231849116
738532.53946834197267889977,-8.68717001861629,-18.0021057771538,-302.509231849116
738532.53946843242738395929,-8.92719809564501,-18.5837122714927,-302.509231849116
738532.53946852288208901882,-9.08413953062532,-18.7960448011719,-302.509231849116
738532.53946861333679407835,-9.1026032288583,-18.7129581591235,-302.509231849116
738532.53946870379149913788,-9.09337137974181,-18.5652485732597,-302.509231849116
738532.53946879424620419741,-9.15799432355724,-18.4729300820948,-302.481536301767
738532.53946888470090925694,-9.25031281472213,-18.4083071382794,-302.509231849116
738532.53946897515561431646,-9.28724021118808,-17.909787285989,-302.453840754418
738532.53946906561031937599,-9.26877651295511,-18.3344523453475,-302.426145207068
738532.53946915606502443552,-9.08413953062532,-18.3436841944639,-302.509231849116
738532.53946924651972949505,-9.1856898709067,-18.9068269905698,-302.509231849116
738532.53946933697443455458,-9.19492172002319,-19.0268410290841,-302.509231849116
738532.53946942742913961411,-9.30570390942106,-19.5068971831416,-302.509231849116
738532.53946951800025999546,-9.25031281472213,-19.0637684255501,-302.509231849116
738532.53946960845496505499,-9.2780083620716,-19.6730704672384,-302.509231849116
738532.53946969890967011452,-9.35186315500351,-19.553056428724,-302.509231849116
738532.53946978936437517405,-9.33339945677053,-19.553056428724,-302.509231849116
738532.53946987981908023357,-9.30570390942106,-19.553056428724,-302.509231849116
738532.53946997027378529310,-9.32416760765404,-19.8761711478011,-302.509231849116
738532.53947006072849035263,-9.37955870235298,-19.2207098605304,-302.509231849116
738532.53947015118319541216,-9.36109500412,-19.3961149937437,-302.435377056185
738532.53947024163790047169,-9.26877651295511,-19.4422742393261,-302.481536301767
738532.53947033209260553122,-9.26877651295511,-19.4330423902097,-302.509231849116
738532.53947042254731059074,-9.2780083620716,-19.1930143131809,-302.509231849116
738532.53947051300201565027,-9.43494979705191,-19.2761009552293,-302.509231849116
738532.53947060345672070980,-9.41648609881893,-19.4145786919767,-302.509231849116
738532.53947069391142576933,-9.37955870235298,-19.3130283516953,-302.509231849116
738532.53947078436613082886,-9.28724021118808,-19.5253608813746,-302.509231849116
738532.53947087482083588839,-9.34263130588702,-19.4330423902097,-302.509231849116
738532.53947096527554094791,-9.4441816461684,-19.7930845057527,-302.509231849116
738532.53947105573024600744,-9.41648609881893,-19.8207800531022,-302.509231849116
738532.53947114618495106697,-9.38879055146947,-19.9407940916166,-302.509231849116
738532.53947123663965612650,-9.41648609881893,-19.968489638966,-302.509231849116
738532.53947132709436118603,-9.38879055146947,-19.986953337199,-302.509231849116
738532.53947141766548156738,-9.36109500412,-19.8300119022187,-302.509231849116
738532.53947150812018662691,-9.28724021118808,-19.7838526566362,-302.509231849116
738532.53947159857489168644,-9.25031281472213,-19.7653889584033,-302.509231849116
738532.53947168902959674597,-9.37955870235298,-19.9038666951506,-302.509231849116
738532.53947177948430180550,-9.36109500412,-19.8761711478011,-302.509231849116
738532.53947186993900686502,-9.42571794793542,-19.9130985442671,-302.509231849116
738532.53947196039371192455,-9.45341349528489,-20.0146488845485,-302.509231849116
738532.53947205084841698408,-9.46264534440138,-19.9315622425001,-302.509231849116
738532.53947214130312204361,-9.51803643910031,-20.0146488845485,-302.509231849116
738532.53947223175782710314,-9.48110904263436,-19.8484756004517,-302.509231849116
738532.53947232221253216267,-9.4441816461684,-19.8300119022187,-302.509231849116
738532.53947241266723722219,-9.5272682882168,-19.7469252601703,-302.509231849116
738532.53947250312194228172,-9.53650013733329,-19.8115482039857,-302.509231849116
738532.53947259357664734125,-9.49034089175085,-19.58998382519,-302.509231849116
738532.53947268403135240078,-9.53650013733329,-19.6176793725394,-302.509231849116
738532.53947277448605746031,-9.7026734214301,-19.7376934110538,-302.509231849116
738532.53947286494076251984,-9.63805047761467,-19.6730704672384,-302.509231849116
738532.53947295539546757936,-9.6195867793817,-19.6546067690054,-302.509231849116
738532.53947304585017263889,-9.61035493026521,-19.6915341654714,-302.509231849116
738532.53947313630487769842,-9.48110904263436,-19.7376934110538,-302.509231849116
738532.53947322675958275795,-9.09337137974181,-19.5807519760735,-302.509231849116
738532.53947331721428781748,-8.65024262215033,-19.5622882778405,-302.509231849116
738532.53947340778540819883,-8.77948850978118,-19.5807519760735,-302.5
738532.53947349824011325836,-9.11183507797479,-20.1992858668783,-302.509231849116
738532.53947358869481831789,-9.37955870235298,-20.023880733665,-302.509231849116
738532.53947367914952337742,-9.5272682882168,-19.9592577898495,-302.416913357952
738532.53947376960422843695,-9.50880458998382,-19.6915341654714,-302.481536301767
738532.53947386005893349648,-9.51803643910031,-19.7376934110538,-302.5
738532.53947395051363855600,-9.57342753379925,-19.6269112216559,-302.509231849116
738532.53947404096834361553,-9.6195867793817,-19.9315622425001,-302.509231849116
738532.53947413142304867506,-9.65651417584765,-19.8300119022187,-302.509231849116
738532.53947422187775373459,-9.6195867793817,-19.8669392986847,-302.490768150883
738532.53947431233245879412,-9.60112308114872,-19.7561571092868,-302.509231849116
738532.53947440278716385365,-9.6195867793817,-19.8023163548692,-302.509231849116
738532.53947449324186891317,-9.60112308114872,-19.8207800531022,-302.509231849116
738532.53947458369657397270,-9.59189123203223,-19.7469252601703,-302.509231849116
738532.53947467415127903223,-9.61035493026521,-19.8484756004517,-302.509231849116
738532.53947476460598409176,-9.6195867793817,-19.7469252601703,-302.509231849116
738532.53947485506068915129,-9.51803643910031,-19.7653889584033,-302.509231849116
738532.53947494551539421082,-9.66574602496414,-19.7838526566362,-302.509231849116
738532.53947503597009927034,-9.62881862849818,-19.8023163548692,-302.509231849116
738532.53947512642480432987,-9.62881862849818,-19.6453749198889,-302.509231849116
738532.53947521687950938940,-9.55496383556627,-19.6915341654714,-302.509231849116
738532.53947530733421444893,-9.56419568468276,-19.7838526566362,-302.509231849116
738532.53947539790533483028,-9.51803643910031,-19.9592577898495,-302.509231849116
738532.53947548836003988981,-9.55496383556627,-19.7192297128208,-302.509231849116
738532.53947557881474494934,-9.58265938291574,-19.7746208075198,-302.509231849116
738532.53947566926945000887,-9.5272682882168,-19.5253608813746,-302.509231849116
738532.53947575972415506840,-9.48110904263436,-19.5807519760735,-302.509231849116
738532.53947585017886012793,-9.45341349528489,-19.5807519760735,-302.509231849116
738532.53947594063356518745,-9.47187719351787,-19.553056428724,-302.509231849116
738532.53947603108827024698,-9.49034089175085,-19.5438245796075,-302.509231849116
738532.53947612154297530651,-9.46264534440138,-19.58998382519,-302.509231849116
738532.53947621199768036604,-9.42571794793542,-19.553056428724,-302.472304452651
738532.53947630245238542557,-9.36109500412,-19.4422742393261,-302.509231849116
738532.53947639290709048510,-9.37955870235298,-19.5438245796075,-302.509231849116
738532.53947648336179554462,-9.40725424970244,-19.4053468428602,-302.509231849116
738532.53947657381650060415,-9.40725424970244,-19.534592730491,-302.509231849116
738532.53947666427120566368,-9.49957274086734,-19.4884334849086,-302.509231849116
738532.53947675472591072321,-9.5272682882168,-19.5622882778405,-302.509231849116
738532.53947684518061578274,-9.50880458998382,-19.553056428724,-302.5
738532.53947693563532084227,-9.59189123203223,-19.7376934110538,-302.509231849116
738532.53947702609002590179,-9.62881862849818,-19.6730704672384,-302.509231849116
738532.53947711654473096132,-9.67497787408063,-19.986953337199,-302.509231849116
738532.53947720699943602085,-9.66574602496414,-19.8023163548692,-302.509231849116
738532.53947729745414108038,-9.6195867793817,-19.6269112216559,-302.509231849116
738532.53947738802526146173,-9.61035493026521,-19.6823023163549,-302.509231849116
738532.53947747847996652126,-9.5272682882168,-19.6915341654714,-302.509231849116
738532.53947756893467158079,-9.49034089175085,-19.7469252601703,-302.509231849116
738532.53947765938937664032,-9.49034089175085,-20.0423444318979,-302.509231849116
738532.53947774984408169985,-9.49957274086734,-20.3654591509751,-302.509231849116
738532.53947784029878675938,-9.49957274086734,-20.3654591509751,-302.509231849116
738532.53947793075349181890,-9.5272682882168,-20.7070375682852,-302.509231849116
738532.53947802120819687843,-9.47187719351787,-20.7162694174017,-302.509231849116
738532.53947811166290193796,-9.4441816461684,-20.854747154149,-302.472304452651
738532.53947820211760699749,-9.49957274086734,-20.6608783227027,-302.509231849116
738532.53947829257231205702,-9.5272682882168,-21.0209204382458,-302.509231849116
738532.53947838302701711655,-9.51803643910031,-20.9562974944304,-302.509231849116
738532.53947847348172217607,-9.49034089175085,-20.9747611926634,-302.509231849116
738532.53947856393642723560,-9.46264534440138,-20.9655293435469,-302.509231849116
738532.53947865439113229513,-9.43494979705191,-20.9747611926634,-302.509231849116
738532.53947874484583735466,-9.48110904263436,-21.1686300241096,-302.509231849116
738532.53947883530054241419,-9.53650013733329,-20.873210852382,-302.509231849116
738532.53947892575524747372,-9.54573198644978,-20.6978057191687,-302.509231849116
738532.53947901620995253325,-9.57342753379925,-20.836283455916,-302.509231849116
738532.53947910666465759277,-9.54573198644978,-21.0393841364788,-302.509231849116
738532.53947919711936265230,-9.55496383556627,-20.873210852382,-302.509231849116
738532.53947928757406771183,-9.55496383556627,-20.7255012665181,-302.509231849116
738532.53947937814518809319,-9.55496383556627,-20.0977355265969,-302.509231849116
738532.53947946859989315271,-9.56419568468276,-20.3469954527421,-302.509231849116
738532.53947955905459821224,-9.57342753379925,-20.1900540177618,-302.509231849116
738532.53947964950930327177,-9.60112308114872,-20.2085177159947,-302.509231849116
738532.53947973996400833130,-9.62881862849818,-19.9223303933836,-302.509231849116
738532.53947983041871339083,-9.64728232673116,-19.9777214880825,-302.509231849116
738532.53947992087341845036,-9.69344157231361,-19.8115482039857,-302.509231849116
738532.53948001132812350988,-9.72113711966307,-19.8854029969176,-302.509231849116
738532.53948010178282856941,-9.65651417584765,-19.8577074495682,-302.509231849116
738532.53948019223753362894,-9.68420972319712,-19.9130985442671,-302.509231849116
738532.53948028269223868847,-9.73036896877956,-20.1069673757134,-302.509231849116
738532.53948037314694374800,-9.73960081789605,-20.1992858668783,-302.509231849116
738532.53948046360164880753,-9.79499191259499,-20.5039368877224,-302.509231849116
738532.53948055405635386705,-9.74883266701254,-20.5131687368389,-302.509231849116
738532.53948064451105892658,-9.77652821436201,-20.817819757683,-302.509231849116
738532.53948073496576398611,-9.7857600634785,-20.8270516067995,-302.509231849116
738532.53948082542046904564,-9.73960081789605,-20.9839930417798,-302.509231849116
738532.53948091587517410517,-9.68420972319712,-20.9655293435469,-302.509231849116
738532.53948100632987916470,-9.68420972319712,-21.0578478347118,-302.509231849116
738532.53948109678458422422,-9.64728232673116,-21.0024567400128,-302.509231849116
738532.53948118723928928375,-9.60112308114872,-20.9839930417798,-302.509231849116
738532.53948127769399434328,-9.58265938291574,-20.7808923612171,-302.509231849116
738532.53948136826511472464,-9.57342753379925,-20.8270516067995,-302.509231849116
738532.53948145871981978416,-9.66574602496414,-20.873210852382,-302.509231849116
738532.53948154917452484369,-9.68420972319712,-20.817819757683,-302.509231849116
738532.53948163962922990322,-9.65651417584765,-20.6147190771203,-302.509231849116
738532.53948173008393496275,-9.7026734214301,-20.8824427014985,-302.509231849116
738532.53948182053864002228,-9.7026734214301,-20.8824427014985,-302.509231849116
738532.53948191099334508181,-9.7026734214301,-20.7808923612171,-302.509231849116
738532.53948200144805014133,-9.72113711966307,-20.8455153050325,-302.509231849116
738532.53948209190275520086,-9.73036896877956,-20.7439649647511,-302.509231849116
738532.53948218235746026039,-9.72113711966307,-20.5870235297708,-302.509231849116
738532.53948227281216531992,-9.74883266701254,-20.3654591509751,-302.509231849116
738532.53948236326687037945,-9.73960081789605,-20.6331827753533,-302.509231849116
738532.53948245372157543898,-9.72113711966307,-20.5224005859554,-302.509231849116
738532.53948254417628049850,-9.74883266701254,-20.5777916806543,-302.509231849116
738532.53948263463098555803,-9.79499191259499,-20.4854731894894,-302.509231849116
738532.53948272508569061756,-9.7857600634785,-20.5500961333048,-302.509231849116
738532.53948281554039567709,-9.67497787408063,-20.3654591509751,-302.509231849116
738532.53948290599510073662,-9.34263130588702,-20.383922849208,-302.509231849116
738532.53948299644980579615,-8.92719809564501,-20.0977355265969,-302.398449659719
738532.53948308690451085567,-8.87180700094607,-20.2085177159947,-302.490768150883
738532.53948317735921591520,-9.2780083620716,-20.5039368877224,-302.509231849116
738532.53948326781392097473,-9.49034089175085,-20.7624286629841,-302.509231849116
738532.53948335838504135609,-9.71190527054659,-20.5777916806543,-302.509231849116
738532.53948344883974641562,-9.72113711966307,-20.4485457930235,-302.509231849116
738532.53948353929445147514,-9.73036896877956,-20.3654591509751,-302.490768150883
738532.53948362974915653467,-9.73036896877956,-20.3192999053926,-302.444608905301
738532.53948372020386159420,-9.73036896877956,-20.439313943907,-302.472304452651
738532.53948381065856665373,-9.73960081789605,-20.3285317545091,-302.509231849116
738532.53948390111327171326,-9.72113711966307,-20.4854731894894,-302.509231849116
738532.53948399156797677279,-9.73036896877956,-20.402386547441,-302.509231849116
738532.53948408202268183231,-9.73036896877956,-20.4670094912564,-302.509231849116
738532.53948417247738689184,-9.72113711966307,-20.3377636036256,-302.509231849116
738532.53948426293209195137,-9.73036896877956,-20.3931546983245,-302.509231849116
738532.53948435338679701090,-9.73960081789605,-20.2916043580432,-302.435377056185
738532.53948444384150207043,-9.71190527054659,-20.3377636036256,-302.509231849116
738532.53948453429620712996,-9.72113711966307,-20.3100680562761,-302.509231849116
738532.53948462475091218948,-9.72113711966307,-20.3100680562761,-302.509231849116
738532.53948471520561724901,-9.7026734214301,-20.2916043580432,-302.509231849116
738532.53948480566032230854,-9.69344157231361,-20.2639088106937,-302.509231849116
738532.53948489611502736807,-9.67497787408063,-20.3192999053926,-302.509231849116
738532.53948498656973242760,-9.67497787408063,-20.2823725089267,-302.509231849116
738532.53948507702443748713,-9.68420972319712,-20.3377636036256,-302.509231849116
738532.53948516747914254665,-9.67497787408063,-20.2823725089267,-302.509231849116
738532.53948525793384760618,-9.64728232673116,-20.3285317545091,-302.509231849116
738532.53948534850496798754,-9.63805047761467,-20.2731406598102,-302.509231849116
738532.53948543895967304707,-9.63805047761467,-20.3192999053926,-302.509231849116
738532.53948552941437810659,-9.62881862849818,-20.1808221686453,-302.509231849116
738532.53948561986908316612,-9.6195867793817,-20.2639088106937,-302.509231849116
738532.53948571032378822565,-9.61035493026521,-20.2269814142277,-302.490768150883
738532.53948580077849328518,-9.60112308114872,-20.2823725089267,-302.509231849116
738532.53948589123319834471,-9.58265938291574,-20.2454451124607,-302.509231849116
738532.53948598168790340424,-9.56419568468276,-20.2454451124607,-302.481536301767
738532.53948607214260846376,-9.53650013733329,-20.2546769615772,-302.509231849116
738532.53948616259731352329,-9.53650013733329,-20.2546769615772,-302.5
738532.53948625305201858282,-9.53650013733329,-20.2639088106937,-302.490768150883
738532.53948634350672364235,-9.57342753379925,-20.2823725089267,-302.509231849116
738532.53948643396142870188,-9.59189123203223,-20.4116183965575,-302.509231849116
738532.53948652441613376141,-9.6195867793817,-20.4300820947905,-302.509231849116
738532.53948661487083882093,-9.67497787408063,-20.5777916806543,-302.509231849116
738532.53948670532554388046,-9.7026734214301,-20.5500961333048,-302.509231849116
738532.53948679578024893999,-9.73036896877956,-20.6516464735862,-302.509231849116
738532.53948688623495399952,-9.73960081789605,-20.5962553788873,-302.509231849116
738532.53948697668965905905,-9.74883266701254,-20.7439649647511,-302.509231849116
738532.53948706714436411858,-9.75806451612903,-20.6424146244697,-302.509231849116
738532.53948715759906917810,-9.75806451612903,-20.6793420209357,-302.509231849116
738532.53948724805377423763,-9.75806451612903,-20.5685598315378,-302.509231849116
738532.53948733862489461899,-9.74883266701254,-20.6793420209357,-302.509231849116
738532.53948742907959967852,-9.74883266701254,-20.6239509262368,-302.509231849116
738532.53948751953430473804,-9.74883266701254,-20.6516464735862,-302.509231849116
738532.53948760998900979757,-9.73960081789605,-20.6608783227027,-302.509231849116
738532.53948770044371485710,-9.73960081789605,-20.5316324350719,-302.509231849116
738532.53948779089841991663,-9.73036896877956,-20.5500961333048,-302.509231849116
738532.53948788135312497616,-9.72113711966307,-20.4300820947905,-302.389217810602
738532.53948797180783003569,-9.72113711966307,-20.5039368877224,-302.509231849116
738532.53948806226253509521,-9.71190527054659,-20.3931546983245,-302.509231849116
738532.53948815271724015474,-9.7026734214301,-20.4947050386059,-302.509231849116
738532.53948824317194521427,-9.72113711966307,-20.383922849208,-302.509231849116
738532.53948833362665027380,-9.71190527054659,-20.5039368877224,-302.472304452651
738532.53948842408135533333,-9.71190527054659,-20.3746910000916,-302.509231849116
738532.53948851453606039286,-9.7026734214301,-20.4947050386059,-302.509231849116
738532.53948860499076545238,-9.7026734214301,-20.4116183965575,-302.509231849116
738532.53948869544547051191,-9.72113711966307,-20.5131687368389,-302.509231849116
738532.53948878590017557144,-9.72113711966307,-20.4300820947905,-302.509231849116
738532.53948887635488063097,-9.72113711966307,-20.5408642841884,-302.509231849116
738532.53948896680958569050,-9.71190527054659,-20.4762413403729,-302.509231849116
738532.53948905726429075003,-9.72113711966307,-20.5500961333048,-302.509231849116
738532.53948914771899580956,-9.73036896877956,-20.3100680562761,-302.509231849116
738532.53948923817370086908,-9.73036896877956,-20.4670094912564,-302.509231849116
738532.53948932874482125044,-9.72113711966307,-20.5039368877224,-302.472304452651
738532.53948941919952630997,-9.74883266701254,-20.4485457930235,-302.509231849116
738532.53948950965423136950,-9.73036896877956,-20.5500961333048,-302.509231849116
738532.53948960010893642902,-9.72113711966307,-20.4485457930235,-302.444608905301
738532.53948969056364148855,-9.69344157231361,-20.5777916806543,-302.509231849116
738532.53948978101834654808,-9.68420972319712,-20.5039368877224,-302.509231849116
738532.53948987147305160761,-9.67497787408063,-20.6424146244697,-302.509231849116
738532.53948996192775666714,-9.65651417584765,-20.5316324350719,-302.509231849116
738532.53949005238246172667,-9.62881862849818,-20.6147190771203,-302.509231849116
738532.53949014283716678619,-9.62881862849818,-20.5870235297708,-302.509231849116
738532.53949023329187184572,-9.62881862849818,-20.6516464735862,-302.509231849116
738532.53949032374657690525,-9.67497787408063,-20.5777916806543,-302.509231849116
738532.53949041420128196478,-9.69344157231361,-20.6701101718192,-302.509231849116
738532.53949050465598702431,-9.72113711966307,-20.6793420209357,-302.490768150883
738532.53949059511069208384,-9.74883266701254,-20.7531968138676,-302.509231849116
738532.53949068556539714336,-9.75806451612903,-20.7347331156346,-302.509231849116
738532.53949077602010220289,-9.76729636524552,-20.7439649647511,-302.5
738532.53949086647480726242,-9.7857600634785,-20.7901242103336,-302.509231849116
738532.53949095692951232195,-9.80422376171148,-20.7808923612171,-302.509231849116
738532.53949104738421738148,-9.80422376171148,-20.8085879085665,-302.509231849116
738532.53949113783892244101,-9.82268745994446,-20.7255012665181,-302.509231849116
738532.53949122829362750053,-9.81345561082797,-20.7901242103336,-302.509231849116
738532.53949131886474788189,-9.81345561082797,-20.6331827753533,-302.416913357952
738532.53949140931945294142,-9.81345561082797,-20.6701101718192,-302.389217810602
738532.53949149977415800095,-9.88731040375988,-20.6147190771203,-302.481536301767
738532.53949159022886306047,-9.81345561082797,-20.6701101718192,-302.490768150883
738532.53949168068356812000,-9.6195867793817,-20.5777916806543,-302.426145207068
738532.53949177113827317953,-9.22261726737266,-20.5224005859554,-302.435377056185
738532.53949186159297823906,-8.80718405713065,-20.5131687368389,-302.453840754418
738532.53949195204768329859,-9.13029877620777,-20.6331827753533,-302.444608905301
738532.53949204250238835812,-9.49957274086734,-20.9378337961974,-302.509231849116
738532.53949213295709341764,-9.7026734214301,-20.9655293435469,-302.509231849116
738532.53949222341179847717,-9.79499191259499,-20.8270516067995,-302.509231849116
738532.53949231386650353670,-9.7857600634785,-20.6978057191687,-302.490768150883
738532.53949240432120859623,-9.79499191259499,-20.7531968138676,-302.509231849116
738532.53949249477591365576,-9.79499191259499,-20.6147190771203,-302.509231849116
738532.53949258523061871529,-9.80422376171148,-20.6885738700522,-302.509231849116
738532.53949267568532377481,-9.79499191259499,-20.5316324350719,-302.509231849116
738532.53949276614002883434,-9.7857600634785,-20.6608783227027,-302.509231849116
738532.53949285659473389387,-9.80422376171148,-20.5777916806543,-302.509231849116
738532.53949294704943895340,-9.73960081789605,-20.6147190771203,-302.509231849116
738532.53949303750414401293,-9.71190527054659,-20.5224005859554,-302.509231849116
738532.53949312795884907246,-9.74883266701254,-20.5408642841884,-302.509231849116
738532.53949321841355413198,-9.80422376171148,-20.5777916806543,-302.509231849116
738532.53949330898467451334,-9.85961485641041,-20.6054872280038,-302.509231849116
738532.53949339943937957287,-9.83191930906094,-20.5962553788873,-302.509231849116
738532.53949348989408463240,-9.81345561082797,-20.5316324350719,-302.509231849116
738532.53949358034878969193,-9.79499191259499,-20.5685598315378,-302.472304452651
738532.53949367080349475145,-9.77652821436201,-20.5224005859554,-302.5
738532.53949376125819981098,-9.74883266701254,-20.5685598315378,-302.509231849116
738532.53949385171290487051,-9.73960081789605,-20.4854731894894,-302.472304452651
738532.53949394216760993004,-9.73960081789605,-20.6147190771203,-302.509231849116
738532.53949403262231498957,-9.72113711966307,-20.5131687368389,-302.5
738532.53949412307702004910,-9.7026734214301,-20.6147190771203,-302.481536301767
738532.53949421353172510862,-9.67497787408063,-20.5131687368389,-302.509231849116
738532.53949430398643016815,-9.6195867793817,-20.5870235297708,-302.509231849116
738532.53949439444113522768,-9.6195867793817,-20.4854731894894,-302.490768150883
738532.53949448489584028721,-9.61035493026521,-20.6331827753533,-302.509231849116
738532.53949457535054534674,-9.58265938291574,-20.5131687368389,-302.5
738532.53949466580525040627,-9.58265938291574,-20.6424146244697,-302.509231849116
738532.53949475625995546579,-9.56419568468276,-20.5131687368389,-302.444608905301
738532.53949484671466052532,-9.54573198644978,-20.6239509262368,-302.472304452651
738532.53949493716936558485,-9.53650013733329,-20.6331827753533,-302.379985961486
738532.53949502762407064438,-9.55496383556627,-20.5593279824213,-302.5
738532.53949511807877570391,-9.57342753379925,-20.7070375682852,-302.509231849116
738532.53949520864989608526,-9.6195867793817,-20.6608783227027,-302.509231849116
738532.53949529910460114479,-9.65651417584765,-20.836283455916,-302.509231849116
738532.53949538955930620432,-9.69344157231361,-20.7716605121006,-302.509231849116
738532.53949548001401126385,-9.73960081789605,-20.9378337961974,-302.509231849116
738532.53949557046871632338,-9.75806451612903,-20.873210852382,-302.509231849116
738532.53949566092342138290,-9.77652821436201,-21.0116885891293,-302.509231849116
738532.53949575137812644243,-9.73960081789605,-20.8824427014985,-302.509231849116
738532.53949584183283150196,-9.77652821436201,-21.0116885891293,-302.509231849116
738532.53949593228753656149,-9.80422376171148,-20.9378337961974,-302.509231849116
738532.53949602274224162102,-9.80422376171148,-21.0393841364788,-302.509231849116
738532.53949611319694668055,-9.83191930906094,-20.9747611926634,-302.509231849116
738532.53949620365165174007,-9.83191930906094,-21.0486159855953,-302.509231849116
738532.53949629410635679960,-9.84115115817743,-20.9839930417798,-302.509231849116
738532.53949638456106185913,-9.83191930906094,-21.0116885891293,-302.509231849116
738532.53949647501576691866,-9.80422376171148,-20.9470656453139,-302.509231849116
738532.53949656547047197819,-9.69344157231361,-20.836283455916,-302.481536301767
738532.53949665592517703772,-9.64728232673116,-20.7439649647511,-302.472304452651
738532.53949674637988209724,-9.66574602496414,-20.7439649647511,-302.5
738532.53949683683458715677,-9.76729636524552,-20.9101382488479,-302.509231849116
738532.53949692728929221630,-9.76729636524552,-20.7901242103336,-302.509231849116
738532.53949701774399727583,-9.99809259315775,-21.1317026276437,-302.509231849116
738532.53949710819870233536,-10.0627155369732,-21.0763115329447,-302.509231849116
738532.53949719876982271671,-9.97962889492477,-21.0763115329447,-302.509231849116
738532.53949728922452777624,-9.90577410199286,-20.9009063997314,-302.509231849116
738532.53949737967923283577,-9.92423780022584,-20.9562974944304,-302.509231849116
738532.53949747013393789530,-9.7857600634785,-20.7255012665181,-302.509231849116
738532.53949756058864295483,-9.8688467055269,-20.7993560594501,-302.509231849116
738532.53949765104334801435,-9.85038300729392,-20.6608783227027,-302.509231849116
738532.53949774149805307388,-10.173497726371,-20.9562974944304,-302.509231849116
738532.53949783195275813341,-10.0904110843226,-20.7993560594501,-302.509231849116
738532.53949792240746319294,-9.89654225287637,-20.5500961333048,-302.509231849116
738532.53949801286216825247,-9.89654225287637,-20.5408642841884,-302.509231849116
738532.53949810331687331200,-9.96116519669179,-20.5408642841884,-302.509231849116
738532.53949819377157837152,-9.74883266701254,-20.2823725089267,-302.509231849116
738532.53949828422628343105,-9.91500595110935,-20.5316324350719,-302.509231849116
738532.53949837468098849058,-9.85038300729392,-20.5224005859554,-302.426145207068
738532.53949846513569355011,-9.82268745994446,-20.5500961333048,-302.509231849116
738532.53949855559039860964,-9.88731040375988,-20.7070375682852,-302.509231849116
738532.53949864604510366917,-9.87807855464339,-20.7070375682852,-302.509231849116
738532.53949873649980872869,-9.89654225287637,-20.8270516067995,-302.509231849116
738532.53949882695451378822,-9.89654225287637,-20.7808923612171,-302.509231849116
738532.53949891740921884775,-9.90577410199286,-20.836283455916,-302.509231849116
738532.53949900786392390728,-9.93346964934233,-20.9193700979644,-302.509231849116
738532.53949909831862896681,-9.97039704580828,-21.1040070802942,-302.509231849116
738532.53949918888974934816,-10.0811792352062,-21.2424848170415,-302.509231849116
738532.53949927934445440769,-10.0165562913907,-21.1778618732261,-302.509231849116
738532.53949936979915946722,-9.97039704580828,-21.1501663258766,-302.509231849116
738532.53949946025386452675,-9.97962889492477,-21.1224707785272,-302.509231849116
738532.53949955070856958628,-9.85038300729392,-21.0763115329447,-302.509231849116
738532.53949964116327464581,-9.96116519669179,-21.1040070802942,-302.509231849116
738532.53949973161797970533,-10.0996429334391,-21.3163396099734,-302.509231849116
738532.53949982207268476486,-10.0996429334391,-21.2240211188086,-302.509231849116
738532.53949991252738982439,-9.9519333475753,-21.2147892696921,-302.509231849116
738532.53950000298209488392,-9.82268745994446,-21.1778618732261,-302.509231849116
738532.53950009343679994345,-9.25954466383862,-21.0855433820612,-302.509231849116
738532.53950018389150500298,-8.95489364299448,-21.0116885891293,-302.509231849116
738532.53950027434621006250,-9.26877651295511,-21.1593981749931,-302.509231849116
738532.53950036480091512203,-9.68420972319712,-21.5563676870022,-302.509231849116
738532.53950045525562018156,-9.9519333475753,-21.7594683675649,-302.509231849116
738532.53950054571032524109,-9.99809259315775,-21.6209906308176,-302.509231849116
738532.53950063616503030062,-10.0257881405072,-21.5471358378857,-302.509231849116
738532.53950072661973536015,-9.97039704580828,-21.4363536484878,-302.509231849116
738532.53950081707444041967,-9.9519333475753,-21.288644062624,-302.509231849116
738532.53950090752914547920,-10.0257881405072,-21.4917447431867,-302.509231849116
738532.53950099798385053873,-9.92423780022584,-21.2240211188086,-302.509231849116
738532.53950108843855559826,-9.97039704580828,-21.3809625537889,-302.509231849116
738532.53950117900967597961,-10.0627155369732,-21.2424848170415,-302.509231849116
738532.53950126946438103914,-10.0627155369732,-21.4455854976043,-302.509231849116
738532.53950135991908609867,-9.91500595110935,-21.2240211188086,-302.509231849116
738532.53950145037379115820,-10.0627155369732,-21.4917447431867,-302.509231849116
738532.53950154082849621773,-9.96116519669179,-21.2978759117405,-302.509231849116
738532.53950163128320127726,-10.0073244422742,-21.4178899502548,-302.509231849116
738532.53950172173790633678,-9.96116519669179,-21.2147892696921,-302.509231849116
738532.53950181219261139631,-9.94270149845882,-21.3440351573229,-302.509231849116
738532.53950190264731645584,-9.88731040375988,-21.2240211188086,-302.509231849116
738532.53950199310202151537,-10.1273384807886,-21.6025269325846,-302.509231849116
738532.53950208355672657490,-10.0073244422742,-21.3901944029054,-302.509231849116
738532.53950217401143163443,-9.85038300729392,-21.3532670064394,-302.509231849116
738532.53950226446613669395,-10.1273384807886,-21.6394543290506,-302.509231849116
738532.53950235492084175348,-10.0719473860897,-21.6117587817011,-302.509231849116
738532.53950244537554681301,-9.91500595110935,-21.5932950834681,-302.509231849116
738532.53950253583025187254,-9.85038300729392,-21.4271217993713,-302.509231849116
738532.53950262628495693207,-9.97962889492477,-21.5563676870022,-302.509231849116
738532.53950271673966199160,-9.93346964934233,-21.4086581011383,-302.509231849116
738532.53950280719436705112,-9.7857600634785,-21.5194402905362,-302.509231849116
738532.53950289764907211065,-9.88731040375988,-21.4363536484878,-302.509231849116
738532.53950298810377717018,-9.84115115817743,-21.4455854976043,-302.509231849116
738532.53950307855848222971,-9.80422376171148,-21.2147892696921,-302.509231849116
738532.53950316912960261106,-9.96116519669179,-21.5471358378857,-302.509231849116
738532.53950325958430767059,-9.72113711966307,-21.307107760857,-302.509231849116
738532.53950335003901273012,-9.62881862849818,-21.3624988555559,-302.509231849116
738532.53950344049371778965,-9.73960081789605,-21.3163396099734,-302.509231849116
738532.53950353094842284918,-9.97039704580828,-21.6579180272835,-302.509231849116
738532.53950362140312790871,-9.99809259315775,-21.6763817255165,-302.509231849116
738532.53950371185783296824,-9.97039704580828,-21.7594683675649,-302.509231849116
738532.53950380231253802776,-9.94270149845882,-21.6763817255165,-302.509231849116
738532.53950389276724308729,-10.0350199896237,-21.7502365184484,-302.509231849116
738532.53950398322194814682,-9.92423780022584,-21.6671498764,-302.509231849116
738532.53950407367665320635,-9.73960081789605,-21.3994262520219,-302.509231849116
738532.53950416413135826588,-10.0534836878567,-21.7963957640309,-302.509231849116
738532.53950425458606332541,-10.1365703299051,-21.7687002166814,-302.509231849116
738532.53950434504076838493,-10.0811792352062,-21.8425550096133,-302.509231849116
738532.53950443549547344446,-9.92423780022584,-21.5286721396527,-302.509231849116
738532.53950452595017850399,-9.85038300729392,-21.6209906308176,-302.509231849116
738532.53950461640488356352,-10.0350199896237,-21.722540971099,-302.509231849116
738532.53950470685958862305,-10.0442518387402,-21.7779320657979,-302.509231849116
738532.53950479731429368258,-9.85961485641041,-21.4917447431867,-302.509231849116
738532.53950488776899874210,-9.87807855464339,-21.5932950834681,-302.509231849116
738532.53950497822370380163,-9.82268745994446,-21.4732810449538,-302.509231849116
738532.53950506867840886116,-9.9519333475753,-21.6579180272835,-302.509231849116
738532.53950515924952924252,-10.0534836878567,-21.7963957640309,-302.509231849116
738532.53950524970423430204,-9.96116519669179,-21.7687002166814,-302.509231849116
738532.53950534015893936157,-9.87807855464339,-21.7133091219825,-302.509231849116
738532.53950543061364442110,-9.92423780022584,-21.6671498764,-302.5
738532.53950552106834948063,-9.89654225287637,-21.7779320657979,-302.509231849116
738532.53950561152305454016,-9.85038300729392,-21.5655995361187,-302.509231849116
738532.53950570197775959969,-9.8688467055269,-21.7502365184484,-302.509231849116
738532.53950579243246465921,-10.0257881405072,-21.7687002166814,-302.509231849116
738532.53950588288716971874,-9.92423780022584,-21.7594683675649,-302.509231849116
738532.53950597334187477827,-9.94270149845882,-21.6025269325846,-302.509231849116
738532.53950606379657983780,-9.98886074404126,-21.8979461043123,-302.509231849116
738532.53950615425128489733,-9.94270149845882,-21.8148594622639,-302.509231849116
738532.53950624470598995686,-9.85038300729392,-21.3440351573229,-302.509231849116
738532.53950633516069501638,-9.84115115817743,-21.5748313852351,-302.509231849116
738532.53950642561540007591,-9.89654225287637,-21.6302224799341,-302.509231849116
738532.53950651607010513544,-9.83191930906094,-21.6394543290506,-302.509231849116
738532.53950660652481019497,-9.88731040375988,-21.6763817255165,-302.509231849116
738532.53950669697951525450,-9.87807855464339,-21.8425550096133,-302.509231849116
738532.53950678743422031403,-9.84115115817743,-21.7594683675649,-302.509231849116
738532.53950687788892537355,-9.73036896877956,-21.8056276131474,-302.509231849116
738532.53950696834363043308,-9.76729636524552,-21.7687002166814,-302.509231849116
738532.53950705879833549261,-9.69344157231361,-21.8610187078463,-302.509231849116
738532.53950714936945587397,-9.76729636524552,-21.7779320657979,-302.509231849116
738532.53950723982416093349,-9.69344157231361,-21.8979461043123,-302.509231849116
738532.53950733027886599302,-9.81345561082797,-21.8702505569628,-302.509231849116
738532.53950742073357105255,-9.85038300729392,-22.0918149357585,-302.509231849116
738532.53950751118827611208,-9.82268745994446,-21.8610187078463,-302.509231849116
738532.53950760164298117161,-9.9519333475753,-22.1749015778069,-302.509231849116
738532.53950769209768623114,-9.77652821436201,-21.8425550096133,-302.509231849116
738532.53950778255239129066,-9.88731040375988,-22.1287423322245,-302.509231849116
738532.53950787300709635019,-9.88731040375988,-21.9348735007782,-302.509231849116
738532.53950796346180140972,-9.73036896877956,-21.7963957640309,-302.509231849116
738532.53950805391650646925,-9.77652821436201,-22.0087282937101,-302.509231849116
738532.53950814437121152878,-9.99809259315775,-22.0733512375256,-302.509231849116
738532.53950823482591658831,-9.74883266701254,-22.0548875392926,-302.509231849116
738532.53950832528062164783,-9.93346964934233,-22.0179601428266,-302.509231849116
738532.53950841573532670736,-9.7857600634785,-22.1472060304575,-302.509231849116
738532.53950850619003176689,-9.76729636524552,-22.0641193884091,-302.509231849116
738532.53950859664473682642,-9.4441816461684,-22.2764519180883,-302.509231849116
738532.53950868709944188595,-8.95489364299448,-21.9348735007782,-302.509231849116
738532.53950877755414694548,-8.68717001861629,-22.0456556901761,-302.509231849116
738532.53950886800885200500,-9.32416760765404,-22.119510483108,-302.509231849116
738532.53950895846355706453,-9.5272682882168,-22.5995666371654,-302.509231849116
738532.53950904891826212406,-9.71190527054659,-22.3410748619037,-302.509231849116
738532.53950913948938250542,-9.82268745994446,-22.5257118442335,-302.509231849116
738532.53950922994408756495,-9.76729636524552,-22.1841334269234,-302.509231849116
738532.53950932039879262447,-9.76729636524552,-22.2302926725059,-302.509231849116
738532.53950941085349768400,-9.80422376171148,-22.0641193884091,-302.509231849116
738532.53950950130820274353,-9.87807855464339,-22.1472060304575,-302.509231849116
738532.53950959176290780306,-9.82268745994446,-21.9348735007782,-302.509231849116
738532.53950968221761286259,-9.83191930906094,-21.9441053498947,-302.509231849116
738532.53950977267231792212,-9.81345561082797,-21.8887142551958,-302.509231849116
738532.53950986312702298164,-9.79499191259499,-21.7502365184484,-302.509231849116
738532.53950995358172804117,-9.72113711966307,-21.8794824060793,-302.509231849116
738532.53951004403643310070,-9.83191930906094,-21.741004669332,-302.509231849116
738532.53951013449113816023,-9.73036896877956,-21.7594683675649,-302.509231849116
738532.53951022494584321976,-9.7857600634785,-21.5379039887692,-302.509231849116
738532.53951031540054827929,-9.84115115817743,-21.722540971099,-302.509231849116
738532.53951040585525333881,-9.73036896877956,-21.4363536484878,-302.509231849116
738532.53951049630995839834,-9.7857600634785,-21.6209906308176,-302.509231849116
738532.53951058676466345787,-9.61035493026521,-21.307107760857,-302.509231849116
738532.53951067721936851740,-9.63805047761467,-21.4640491958373,-302.509231849116
738532.53951076767407357693,-9.82268745994446,-21.5102084414197,-302.509231849116
738532.53951085812877863646,-9.71190527054659,-21.4732810449538,-302.509231849116
738532.53951094858348369598,-9.69344157231361,-21.4178899502548,-302.509231849116
738532.53951103903818875551,-9.75806451612903,-21.4548173467208,-302.509231849116
738532.53951112960930913687,-9.55496383556627,-21.2147892696921,-302.509231849116
738532.53951122006401419640,-9.66574602496414,-21.1963255714591,-302.509231849116
738532.53951131051871925592,-9.63805047761467,-21.2424848170415,-302.509231849116
738532.53951140097342431545,-9.65651417584765,-21.2055574205756,-302.509231849116
738532.53951149142812937498,-9.68420972319712,-21.4917447431867,-302.509231849116
738532.53951158188283443451,-9.59189123203223,-21.251716666158,-302.509231849116
738532.53951167233753949404,-9.56419568468276,-21.3163396099734,-302.509231849116
738532.53951176279224455357,-9.57342753379925,-21.1132389294107,-302.490768150883
738532.53951185324694961309,-9.59189123203223,-21.233252967925,-302.509231849116
738532.53951194370165467262,-9.58265938291574,-21.1778618732261,-302.509231849116
738532.53951203415635973215,-9.56419568468276,-21.2055574205756,-302.509231849116
738532.53951212461106479168,-9.54573198644978,-21.1778618732261,-302.481536301767
738532.53951221506576985121,-9.73036896877956,-21.4455854976043,-302.509231849116
738532.53951230552047491074,-9.71190527054659,-21.5286721396527,-302.509231849116
738532.53951239597517997026,-9.75806451612903,-21.5932950834681,-302.509231849116
738532.53951248642988502979,-9.69344157231361,-21.6486861781671,-302.509231849116
738532.53951257688459008932,-9.79499191259499,-21.722540971099,-302.509231849116
738532.53951266733929514885,-9.73036896877956,-21.8517868587298,-302.509231849116
738532.53951275779400020838,-9.65651417584765,-21.6671498764,-302.509231849116
738532.53951284824870526791,-9.68420972319712,-21.7779320657979,-302.509231849116
738532.53951293870341032743,-9.85038300729392,-21.7779320657979,-302.509231849116
738532.53951302915811538696,-9.7857600634785,-21.8425550096133,-302.509231849116
738532.53951311972923576832,-9.73960081789605,-21.5748313852351,-302.509231849116
738532.53951321018394082785,-9.69344157231361,-21.6948454237495,-302.509231849116
738532.53951330063864588737,-9.64728232673116,-21.4178899502548,-302.509231849116
738532.53951339109335094690,-9.77652821436201,-21.7133091219825,-302.509231849116
738532.53951348154805600643,-9.62881862849818,-21.3624988555559,-302.509231849116
738532.53951357200276106596,-9.56419568468276,-21.3809625537889,-302.509231849116
738532.53951366245746612549,-9.64728232673116,-21.5009765923032,-302.509231849116
738532.53951375291217118502,-9.80422376171148,-21.5379039887692,-302.509231849116
738532.53951384336687624454,-9.68420972319712,-21.5009765923032,-302.509231849116
738532.53951393382158130407,-9.69344157231361,-21.4178899502548,-302.509231849116
738532.53951402427628636360,-9.68420972319712,-21.5563676870022,-302.509231849116
738532.53951411473099142313,-9.88731040375988,-21.5932950834681,-302.509231849116
738532.53951420518569648266,-9.65651417584765,-21.5286721396527,-302.509231849116
738532.53951429564040154219,-9.66574602496414,-21.3901944029054,-302.509231849116
738532.53951438609510660172,-9.73036896877956,-21.6302224799341,-302.509231849116
738532.53951447654981166124,-9.83191930906094,-21.5286721396527,-302.509231849116
738532.53951456700451672077,-9.72113711966307,-21.5932950834681,-302.509231849116
738532.53951465745922178030,-9.73036896877956,-21.3901944029054,-302.509231849116
738532.53951474791392683983,-9.56419568468276,-21.3994262520219,-302.509231849116
738532.53951483836863189936,-9.73960081789605,-21.3994262520219,-302.509231849116
738532.53951492882333695889,-9.76729636524552,-21.5748313852351,-302.509231849116
738532.53951501927804201841,-9.73960081789605,-21.4086581011383,-302.509231849116
738532.53951510984916239977,-9.71190527054659,-21.5471358378857,-302.509231849116
738532.53951520030386745930,-9.75806451612903,-21.4917447431867,-302.509231849116
738532.53951529075857251883,-9.83191930906094,-21.6948454237495,-302.509231849116
738532.53951538121327757835,-9.75806451612903,-21.5563676870022,-302.509231849116
738532.53951547166798263788,-9.73036896877956,-21.5102084414197,-302.509231849116
738532.53951556212268769741,-9.73960081789605,-21.722540971099,-302.509231849116
738532.53951565257739275694,-9.6195867793817,-21.3809625537889,-302.509231849116
738532.53951574303209781647,-9.57342753379925,-21.5009765923032,-302.509231849116
738532.53951583348680287600,-9.74883266701254,-21.4917447431867,-302.509231849116
738532.53951592394150793552,-9.49034089175085,-21.4086581011383,-302.509231849116
738532.53951601439621299505,-9.74883266701254,-21.4640491958373,-302.5
738532.53951610485091805458,-9.57342753379925,-21.4640491958373,-302.509231849116
738532.53951619530562311411,-9.87807855464339,-21.5840632343516,-302.509231849116
738532.53951628576032817364,-9.82268745994446,-21.704077272866,-302.509231849116
738532.53951637621503323317,-9.76729636524552,-21.5102084414197,-302.509231849116
738532.53951646666973829269,-9.83191930906094,-21.6579180272835,-302.509231849116
738532.53951655712444335222,-9.84115115817743,-21.5655995361187,-302.509231849116
738532.53951664757914841175,-9.87807855464339,-21.7133091219825,-302.509231849116
738532.53951673803385347128,-9.81345561082797,-21.5563676870022,-302.509231849116
738532.53951682848855853081,-9.75806451612903,-21.5748313852351,-302.509231849116
738532.53951691894326359034,-9.82268745994446,-21.6117587817011,-302.509231849116
738532.53951700951438397169,-9.85038300729392,-21.6117587817011,-302.509231849116
738532.53951709996908903122,-9.65651417584765,-21.4363536484878,-302.509231849116
738532.53951719042379409075,-9.75806451612903,-21.5102084414197,-302.509231849116
738532.53951728087849915028,-9.83191930906094,-21.6948454237495,-302.509231849116
738532.53951737133320420980,-9.85038300729392,-21.6302224799341,-302.509231849116
738532.53951746178790926933,-9.71190527054659,-21.8517868587298,-302.509231849116
738532.53951755224261432886,-9.32416760765404,-21.5379039887692,-302.509231849116
738532.53951764269731938839,-9.01028473769341,-21.6302224799341,-302.509231849116
738532.53951773315202444792,-8.96412549211096,-21.4271217993713,-302.490768150883
738532.53951782360672950745,-9.26877651295511,-21.722540971099,-302.509231849116
738532.53951791406143456697,-9.56419568468276,-21.8794824060793,-302.509231849116
738532.53951800451613962650,-9.85961485641041,-21.8794824060793,-302.509231849116
738532.53951809497084468603,-9.77652821436201,-21.685613574633,-302.509231849116
738532.53951818542554974556,-9.67497787408063,-21.5563676870022,-302.509231849116
738532.53951827588025480509,-9.74883266701254,-21.6117587817011,-302.509231849116
738532.53951836633495986462,-9.74883266701254,-21.5009765923032,-302.509231849116
738532.53951845678966492414,-9.73960081789605,-21.4640491958373,-302.509231849116
738532.53951854724436998367,-9.88731040375988,-21.4455854976043,-302.509231849116
738532.53951863769907504320,-9.9519333475753,-21.722540971099,-302.509231849116
738532.53951872815378010273,-9.83191930906094,-21.5194402905362,-302.509231849116
738532.53951881860848516226,-9.81345561082797,-21.722540971099,-302.509231849116
738532.53951890906319022179,-9.85038300729392,-21.5563676870022,-302.509231849116
738532.53951899963431060314,-9.67497787408063,-21.5471358378857,-302.509231849116
738532.53951909008901566267,-9.80422376171148,-21.3994262520219,-302.509231849116
738532.53951918054372072220,-9.91500595110935,-21.6209906308176,-302.509231849116
738532.53951927099842578173,-9.8688467055269,-21.4825128940703,-302.509231849116
738532.53951936145313084126,-9.72113711966307,-21.288644062624,-302.509231849116
738532.53951945190783590078,-9.73036896877956,-21.2794122135075,-302.509231849116
738532.53951954236254096031,-9.88731040375988,-21.3717307046724,-302.509231849116
738532.53951963281724601984,-9.77652821436201,-21.3348033082064,-302.463072603534
738532.53951972327195107937,-9.71190527054659,-21.2147892696921,-302.509231849116
738532.53951981372665613890,-9.93346964934233,-21.5932950834681,-302.509231849116
738532.53951990418136119843,-9.80422376171148,-21.3348033082064,-302.490768150883
738532.53951999463606625795,-9.75806451612903,-21.5286721396527,-302.509231849116
738532.53952008509077131748,-9.80422376171148,-21.4178899502548,-302.509231849116
738532.53952017554547637701,-9.67497787408063,-21.5194402905362,-302.509231849116
738532.53952026600018143654,-9.69344157231361,-21.3440351573229,-302.463072603534
738532.53952035645488649607,-9.67497787408063,-21.5471358378857,-302.509231849116
738532.53952044690959155560,-9.6195867793817,-21.2424848170415,-302.509231849116
738532.53952053736429661512,-9.79499191259499,-21.6486861781671,-302.509231849116
738532.53952062781900167465,-9.71190527054659,-21.307107760857,-302.490768150883
738532.53952071827370673418,-9.66574602496414,-21.4640491958373,-302.509231849116
738532.53952080872841179371,-9.73960081789605,-21.2609485152745,-302.509231849116
738532.53952089918311685324,-9.66574602496414,-21.3717307046724,-302.444608905301
738532.53952098975423723459,-9.77652821436201,-21.288644062624,-302.463072603534
738532.53952108020894229412,-9.85038300729392,-21.3901944029054,-302.509231849116
738532.53952117066364735365,-9.77652821436201,-21.4825128940703,-302.509231849116
738532.53952126111835241318,-9.80422376171148,-21.3348033082064,-302.509231849116
738532.53952135157305747271,-9.79499191259499,-21.5102084414197,-302.509231849116
738532.53952144202776253223,-9.88731040375988,-21.3994262520219,-302.509231849116
738532.53952153248246759176,-9.92423780022584,-21.6763817255165,-302.509231849116
738532.53952162293717265129,-9.89654225287637,-21.4455854976043,-302.509231849116
738532.53952171339187771082,-9.8688467055269,-21.6209906308176,-302.509231849116
738532.53952180384658277035,-9.88731040375988,-21.4086581011383,-302.509231849116
738532.53952189430128782988,-9.96116519669179,-21.704077272866,-302.509231849116
738532.53952198475599288940,-9.84115115817743,-21.3624988555559,-302.509231849116
738532.53952207521069794893,-9.76729636524552,-21.5009765923032,-302.509231849116
738532.53952216566540300846,-9.90577410199286,-21.4455854976043,-302.509231849116
738532.53952225612010806799,-9.90577410199286,-21.5932950834681,-302.509231849116
738532.53952234657481312752,-9.85961485641041,-21.3717307046724,-302.509231849116
738532.53952243702951818705,-9.94270149845882,-21.5748313852351,-302.509231849116
738532.53952252748422324657,-9.85961485641041,-21.3717307046724,-302.509231849116
738532.53952261793892830610,-9.87807855464339,-21.4732810449538,-302.509231849116
738532.53952270839363336563,-9.9519333475753,-21.4732810449538,-302.509231849116
738532.53952279884833842516,-9.92423780022584,-21.4640491958373,-302.509231849116
738532.53952288930304348469,-9.94270149845882,-21.4363536484878,-302.509231849116
738532.53952297987416386604,-9.94270149845882,-21.3163396099734,-302.509231849116
738532.53952307032886892557,-9.79499191259499,-21.3624988555559,-302.5
738532.53952316078357398510,-9.93346964934233,-21.233252967925,-302.287667470321
738532.53952325123827904463,-9.92423780022584,-21.4548173467208,-302.426145207068
738532.53952334169298410416,-9.92423780022584,-21.233252967925,-302.463072603534
738532.53952343214768916368,-9.97962889492477,-21.5102084414197,-302.472304452651
738532.53952352260239422321,-9.88731040375988,-21.2609485152745,-302.481536301767
738532.53952361305709928274,-9.89654225287637,-21.3994262520219,-302.509231849116
738532.53952370351180434227,-9.84115115817743,-21.251716666158,-302.5
738532.53952379396650940180,-9.88731040375988,-21.4548173467208,-302.509231849116
738532.53952388442121446133,-9.94270149845882,-21.4363536484878,-302.509231849116
738532.53952397487591952085,-9.88731040375988,-21.4363536484878,-302.509231849116
738532.53952406533062458038,-10.0627155369732,-21.9718008972442,-302.509231849116
738532.53952415578532963991,-9.93346964934233,-21.6302224799341,-302.509231849116
738532.53952424624003469944,-9.89654225287637,-21.5563676870022,-302.509231849116
738532.53952433669473975897,-9.8688467055269,-21.4455854976043,-302.463072603534
738532.53952442714944481850,-9.89654225287637,-21.5748313852351,-302.509231849116
738532.53952451760414987803,-9.85961485641041,-21.4548173467208,-302.509231849116
738532.53952460805885493755,-9.85961485641041,-21.5840632343516,-302.5
738532.53952469851355999708,-9.93346964934233,-21.5655995361187,-302.472304452651
738532.53952478896826505661,-9.97039704580828,-21.7594683675649,-302.509231849116
738532.53952487942297011614,-9.97962889492477,-21.6025269325846,-302.509231849116
738532.53952496999409049749,-9.96116519669179,-21.685613574633,-302.509231849116
738532.53952506044879555702,-9.90577410199286,-21.5563676870022,-302.407681508835
738532.53952515090350061655,-9.89654225287637,-21.6394543290506,-302.509231849116
738532.53952524135820567608,-9.83191930906094,-21.5379039887692,-302.509231849116
738532.53952533181291073561,-9.76729636524552,-21.4363536484878,-302.444608905301
738532.53952542226761579514,-9.83191930906094,-21.5471358378857,-302.5
738532.53952551272232085466,-9.76729636524552,-21.4178899502548,-302.5
738532.53952560317702591419,-9.80422376171148,-21.5194402905362,-302.490768150883
738532.53952569363173097372,-9.87807855464339,-21.5102084414197,-302.490768150883
738532.53952578408643603325,-9.91500595110935,-21.4640491958373,-302.490768150883
738532.53952587454114109278,-9.94270149845882,-21.4455854976043,-302.481536301767
738532.53952596499584615231,-9.96116519669179,-21.741004669332,-302.463072603534
738532.53952605545055121183,-9.94270149845882,-21.6763817255165,-302.490768150883
738532.53952614590525627136,-9.88731040375988,-21.8333231604968,-302.509231849116
738532.53952623635996133089,-9.97039704580828,-21.7594683675649,-302.509231849116
738532.53952632681466639042,-9.88731040375988,-21.9256416516617,-302.426145207068
738532.53952641726937144995,-9.94270149845882,-21.8056276131474,-302.509231849116
738532.53952650772407650948,-9.96116519669179,-22.0271919919431,-302.509231849116
738532.53952659817878156900,-9.84115115817743,-21.7687002166814,-302.509231849116
738532.53952668863348662853,-9.85961485641041,-21.8979461043123,-302.370754112369
738532.53952677908819168806,-9.99809259315775,-22.0733512375256,-302.509231849116
738532.53952686954289674759,-10.1365703299051,-22.101046784875,-302.509231849116
738532.53952696011401712894,-10.0534836878567,-22.0641193884091,-302.509231849116
738532.53952705056872218847,-9.91500595110935,-21.9256416516617,-302.509231849116
738532.53952714102342724800,-9.75806451612903,-22.137974181341,-302.509231849116
738532.53952723147813230753,-9.34263130588702,-21.8702505569628,-302.453840754418
738532.53952732193283736706,-9.0195165868099,-21.9810327463607,-302.407681508835
738532.53952741238754242659,-9.37955870235298,-21.9441053498947,-302.490768150883
738532.53952750284224748611,-9.6195867793817,-22.4426252021851,-302.509231849116
738532.53952759329695254564,-9.87807855464339,-22.2672200689718,-302.509231849116
738532.53952768375165760517,-9.80422376171148,-22.1841334269234,-302.509231849116
738532.53952777420636266470,-9.90577410199286,-22.0641193884091,-302.490768150883
738532.53952786466106772423,-10.0811792352062,-22.3687704092532,-302.509231849116
738532.53952795511577278376,-10.0719473860897,-22.156437879574,-302.509231849116
738532.53952804557047784328,-9.99809259315775,-22.2302926725059,-302.509231849116
738532.53952813602518290281,-9.90577410199286,-22.0087282937101,-302.509231849116
738532.53952822647988796234,-9.98886074404126,-22.3041474654378,-302.509231849116
738532.53952831693459302187,-10.0719473860897,-22.3041474654378,-302.509231849116
738532.53952840738929808140,-10.0257881405072,-22.3318430127873,-302.509231849116
738532.53952849784400314093,-9.98886074404126,-22.1749015778069,-302.509231849116
738532.53952858829870820045,-9.96116519669179,-22.082583086642,-302.509231849116
738532.53952867875341325998,-9.92423780022584,-22.2025971251564,-302.509231849116
738532.53952876920811831951,-9.9519333475753,-22.0456556901761,-302.509231849116
738532.53952885966282337904,-9.9519333475753,-22.1656697286904,-302.444608905301
738532.53952895023394376040,-9.94270149845882,-21.9718008972442,-302.509231849116
738532.53952904068864881992,-9.85038300729392,-22.0548875392926,-302.509231849116
738532.53952913114335387945,-9.83191930906094,-21.8333231604968,-302.490768150883
738532.53952922159805893898,-9.8688467055269,-22.0641193884091,-302.490768150883
738532.53952931205276399851,-10.0996429334391,-22.156437879574,-302.509231849116
738532.53952940250746905804,-10.0257881405072,-22.2672200689718,-302.509231849116
738532.53952949296217411757,-9.96116519669179,-22.0733512375256,-302.444608905301
738532.53952958341687917709,-9.93346964934233,-22.1749015778069,-302.509231849116
738532.53952967387158423662,-9.92423780022584,-22.137974181341,-302.509231849116
738532.53952976432628929615,-9.87807855464339,-22.1656697286904,-302.490768150883
738532.53952985478099435568,-9.83191930906094,-21.9902645954772,-302.509231849116
738532.53952994523569941521,-9.79499191259499,-21.9256416516617,-302.490768150883
738532.53953003569040447474,-9.75806451612903,-21.8887142551958,-302.453840754418
738532.53953012614510953426,-9.80422376171148,-21.8887142551958,-302.296899319437
738532.53953021659981459379,-9.67497787408063,-21.7779320657979,-302.398449659719
738532.53953030705451965332,-9.76729636524552,-21.7779320657979,-302.463072603534
738532.53953039750922471285,-9.84115115817743,-21.9718008972442,-302.444608905301
738532.53953048796392977238,-9.8688467055269,-21.7502365184484,-302.444608905301
738532.53953057841863483191,-9.83191930906094,-21.9348735007782,-302.481536301767
738532.53953066887333989143,-9.88731040375988,-21.9164098025452,-302.490768150883
738532.53953075932804495096,-9.92423780022584,-22.1102786339915,-302.490768150883
738532.53953084978275001049,-9.89654225287637,-21.8887142551958,-302.5
738532.53953094035387039185,-9.7857600634785,-21.8794824060793,-302.509231849116
738532.53953103080857545137,-10.0257881405072,-22.1749015778069,-302.509231849116
738532.53953112126328051090,-10.0073244422742,-22.2302926725059,-302.509231849116
738532.53953121171798557043,-9.88731040375988,-22.0918149357585,-302.509231849116
738532.53953130217269062996,-10.0719473860897,-22.2764519180883,-302.472304452651
738532.53953139262739568949,-10.0442518387402,-22.3041474654378,-302.509231849116
738532.53953148308210074902,-10.0627155369732,-22.3226111636708,-302.509231849116
738532.53953157353680580854,-10.0350199896237,-22.3780022583697,-302.509231849116
738532.53953166399151086807,-9.98886074404126,-22.2118289742729,-302.509231849116
738532.53953175444621592760,-10.0442518387402,-22.3687704092532,-302.509231849116
738532.53953184490092098713,-10.0350199896237,-22.1656697286904,-302.509231849116
738532.53953193535562604666,-10.0073244422742,-22.2487563707389,-302.490768150883
738532.53953202581033110619,-9.99809259315775,-22.0364238410596,-302.490768150883
738532.53953211626503616571,-9.89654225287637,-22.119510483108,-302.509231849116
738532.53953220671974122524,-9.80422376171148,-21.8148594622639,-302.481536301767
738532.53953229717444628477,-9.91500595110935,-22.0179601428266,-302.5
738532.53953238762915134430,-10.1642658772546,-22.2210608233894,-302.509231849116
738532.53953247808385640383,-10.0996429334391,-22.137974181341,-302.5
738532.53953256853856146336,-9.97962889492477,-22.0456556901761,-302.444608905301
738532.53953265899326652288,-10.0073244422742,-22.0087282937101,-302.435377056185
738532.53953274944797158241,-10.0257881405072,-22.0918149357585,-302.444608905301
738532.53953283990267664194,-10.0073244422742,-21.9625690481277,-302.370754112369
738532.53953293047379702330,-10.0165562913907,-22.1102786339915,-302.453840754418
738532.53953302092850208282,-10.0257881405072,-21.9718008972442,-302.490768150883
738532.53953311138320714235,-9.97962889492477,-22.082583086642,-302.463072603534
738532.53953320183791220188,-10.0534836878567,-21.9902645954772,-302.490768150883
738532.53953329229261726141,-9.99809259315775,-22.082583086642,-302.509231849116
738532.53953338274732232094,-10.0165562913907,-21.8794824060793,-302.444608905301
738532.53953347320202738047,-10.1088747825556,-22.1472060304575,-302.5
738532.53953356365673243999,-10.0904110843226,-21.8979461043123,-302.361522263253
738532.53953365411143749952,-10.0811792352062,-22.0548875392926,-302.324594866787
738532.53953374456614255905,-10.0073244422742,-21.7594683675649,-302.379985961486
738532.53953383502084761858,-9.9519333475753,-21.8517868587298,-302.463072603534
738532.53953392547555267811,-10.0719473860897,-21.7502365184484,-302.426145207068
738532.53953401593025773764,-10.1365703299051,-21.9718008972442,-302.472304452651
738532.53953410638496279716,-10.0904110843226,-21.7502365184484,-302.472304452651
738532.53953419683966785669,-10.0534836878567,-21.7133091219825,-302.407681508835
738532.53953428729437291622,-10.1458021790216,-21.9441053498947,-302.472304452651
738532.53953437774907797575,-10.1088747825556,-21.741004669332,-302.435377056185
738532.53953446820378303528,-10.0904110843226,-21.8702505569628,-302.453840754418
738532.53953455865848809481,-10.0719473860897,-21.685613574633,-302.416913357952
738532.53953464911319315434,-10.0996429334391,-21.8979461043123,-302.463072603534
738532.53953473956789821386,-10.0996429334391,-21.704077272866,-302.444608905301
738532.53953483002260327339,-10.0534836878567,-21.8333231604968,-302.426145207068
738532.53953492059372365475,-10.0073244422742,-21.6486861781671,-302.435377056185
738532.53953501104842871428,-9.97039704580828,-21.7963957640309,-302.444608905301
738532.53953510150313377380,-9.91500595110935,-21.5840632343516,-302.361522263253
738532.53953519195783883333,-10.0073244422742,-21.8240913113804,-302.453840754418
738532.53953528241254389286,-9.83191930906094,-21.5194402905362,-302.426145207068
738532.53953537286724895239,-10.1181066316721,-21.9533371990112,-302.416913357952
738532.53953546332195401192,-10.1642658772546,-21.8794824060793,-302.453840754418
738532.53953555377665907145,-10.1273384807886,-21.9441053498947,-302.472304452651
738532.53953564423136413097,-10.1827295754875,-21.9441053498947,-302.472304452651
738532.53953573468606919050,-10.2011932737205,-22.0087282937101,-302.463072603534
738532.53953582514077425003,-10.173497726371,-21.9810327463607,-302.463072603534
738532.53953591559547930956,-10.1458021790216,-22.0087282937101,-302.416913357952
738532.53953600605018436909,-10.1365703299051,-22.0918149357585,-302.407681508835
738532.53953609650488942862,-10.1273384807886,-21.8794824060793,-302.407681508835
738532.53953618695959448814,-10.1181066316721,-22.0548875392926,-302.426145207068
738532.53953627741429954767,-10.1181066316721,-21.8240913113804,-302.389217810602
738532.53953636786900460720,-10.1458021790216,-22.0087282937101,-302.453840754418
738532.53953645832370966673,-10.1642658772546,-21.8517868587298,-302.453840754418
738532.53953654877841472626,-10.0534836878567,-22.0087282937101,-302.463072603534
738532.53953663923311978579,-9.80422376171148,-21.8610187078463,-302.389217810602
738532.53953672968782484531,-9.37032685323649,-21.9071779534288,-302.379985961486
738532.53953682014252990484,-9.0195165868099,-21.7779320657979,-302.361522263253
738532.53953691071365028620,-9.49034089175085,-22.0179601428266,-302.426145207068
738532.53953700116835534573,-9.80422376171148,-22.3780022583697,-302.509231849116
738532.53953709162306040525,-10.0627155369732,-22.4426252021851,-302.509231849116
738532.53953718207776546478,-10.1273384807886,-22.3318430127873,-302.370754112369
738532.53953727253247052431,-10.1088747825556,-22.2949156163213,-302.416913357952
738532.53953736298717558384,-10.0534836878567,-22.2487563707389,-302.5
738532.53953745344188064337,-10.1088747825556,-22.2395245216224,-302.490768150883
738532.53953754389658570290,-10.1273384807886,-22.3503067110202,-302.509231849116
738532.53953763435129076242,-10.1088747825556,-22.2672200689718,-302.5
738532.53953772480599582195,-10.0811792352062,-22.3503067110202,-302.509231849116
738532.53953781526070088148,-10.0996429334391,-22.2210608233894,-302.435377056185
738532.53953790571540594101,-10.0904110843226,-22.3226111636708,-302.509231849116
738532.53953799617011100054,-10.0811792352062,-22.156437879574,-302.481536301767
738532.53953808662481606007,-10.0811792352062,-22.2210608233894,-302.472304452651
738532.53953817707952111959,-10.0165562913907,-22.0456556901761,-302.463072603534
738532.53953826753422617912,-10.0996429334391,-22.156437879574,-302.490768150883
738532.53953835798893123865,-10.0904110843226,-22.137974181341,-302.472304452651
738532.53953844844363629818,-10.0350199896237,-22.0918149357585,-302.34305856502
738532.53953853889834135771,-10.0257881405072,-22.119510483108,-302.472304452651
738532.53953862935304641724,-10.0811792352062,-22.119510483108,-302.463072603534
738532.53953871980775147676,-10.0442518387402,-22.1933652760399,-302.453840754418
738532.53953881026245653629,-10.0350199896237,-22.101046784875,-302.453840754418
738532.53953890083357691765,-10.0165562913907,-22.2395245216224,-302.416913357952
738532.53953899128828197718,-9.99809259315775,-22.119510483108,-302.426145207068
738532.53953908174298703671,-9.97039704580828,-22.2395245216224,-302.472304452651
738532.53953917219769209623,-9.97962889492477,-22.0548875392926,-302.444608905301
738532.53953926265239715576,-9.9519333475753,-22.2302926725059,-302.398449659719
738532.53953935310710221529,-9.9519333475753,-22.0271919919431,-302.352290414136
738532.53953944356180727482,-9.91500595110935,-22.1933652760399,-302.379985961486
738532.53953953401651233435,-9.89654225287637,-21.9625690481277,-302.370754112369
738532.53953962447121739388,-9.87807855464339,-22.137974181341,-302.398449659719
738532.53953971492592245340,-9.85961485641041,-22.0364238410596,-302.370754112369
738532.53953980538062751293,-9.87807855464339,-21.9810327463607,-302.398449659719
738532.53953989583533257246,-9.84115115817743,-22.0271919919431,-302.435377056185
738532.53953998629003763199,-9.85961485641041,-21.9902645954772,-302.416913357952
738532.53954007674474269152,-9.88731040375988,-22.156437879574,-302.416913357952
738532.53954016719944775105,-9.92423780022584,-22.1102786339915,-302.444608905301
738532.53954025765415281057,-9.94270149845882,-22.3133793145543,-302.481536301767
738532.53954034810885787010,-9.99809259315775,-22.2118289742729,-302.444608905301
738532.53954043856356292963,-10.0073244422742,-22.4518570513016,-302.5
738532.53954052901826798916,-10.0350199896237,-22.3226111636708,-302.490768150883
738532.53954061947297304869,-10.0534836878567,-22.571871089816,-302.5
738532.53954070992767810822,-10.0719473860897,-22.4149296548357,-302.389217810602
738532.53954080049879848957,-10.0534836878567,-22.6364940336314,-302.453840754418
738532.53954089095350354910,-10.0534836878567,-22.4610889004181,-302.490768150883
738532.53954098140820860863,-10.0719473860897,-22.6457258827479,-302.509231849116
738532.53954107186291366816,-10.0534836878567,-22.4333933530686,-302.5
738532.53954116231761872768,-10.0534836878567,-22.6180303353984,-302.509231849116
738532.53954125277232378721,-10.0442518387402,-22.4518570513016,-302.453840754418
738532.53954134322702884674,-10.0719473860897,-22.6180303353984,-302.509231849116
738532.53954143368173390627,-10.0534836878567,-22.4610889004181,-302.481536301767
738532.53954152413643896580,-10.0719473860897,-22.5903347880489,-302.426145207068
738532.53954161459114402533,-10.0627155369732,-22.6180303353984,-302.453840754418
738532.53954170504584908485,-10.0627155369732,-22.4056978057192,-302.435377056185
738532.53954179550055414438,-10.0811792352062,-22.6272621845149,-302.426145207068
738532.53954188595525920391,-10.0811792352062,-22.4518570513016,-302.444608905301
738532.53954197640996426344,-10.0719473860897,-22.6272621845149,-302.453840754418
738532.53954206686466932297,-10.0904110843226,-22.4518570513016,-302.416913357952
738532.53954215731937438250,-10.0996429334391,-22.6549577318644,-302.463072603534
738532.53954224777407944202,-10.0904110843226,-22.4703207495346,-302.398449659719
738532.53954233822878450155,-10.1088747825556,-22.6826532792138,-302.509231849116
738532.53954242868348956108,-10.0996429334391,-22.4887844477676,-302.490768150883
738532.53954251913819462061,-10.1088747825556,-22.6549577318644,-302.481536301767
738532.53954260959289968014,-10.0904110843226,-22.4980162968841,-302.509231849116
738532.53954270004760473967,-10.1273384807886,-22.6457258827479,-302.463072603534
738532.53954279061872512102,-10.1088747825556,-22.53494369335,-302.416913357952
738532.53954288107343018055,-10.1273384807886,-22.6272621845149,-302.444608905301
738532.53954297152813524008,-10.1273384807886,-22.571871089816,-302.435377056185
738532.53954306198284029961,-10.1273384807886,-22.5995666371654,-302.416913357952
738532.53954315243754535913,-10.1088747825556,-22.5626392406995,-302.407681508835
738532.53954324289225041866,-10.1550340281381,-22.5626392406995,-302.463072603534
738532.53954333334695547819,-10.1273384807886,-22.5626392406995,-302.463072603534
738532.53954342380166053772,-10.1365703299051,-22.4795525986511,-302.463072603534
738532.53954351425636559725,-10.1365703299051,-22.5903347880489,-302.5
738532.53954360471107065678,-10.173497726371,-22.4241615039521,-302.444608905301
738532.53954369516577571630,-10.1642658772546,-22.571871089816,-302.435377056185
738532.53954378562048077583,-10.1642658772546,-22.4241615039521,-302.5
738532.53954387607518583536,-10.1458021790216,-22.516479995117,-302.509231849116
738532.53954396652989089489,-10.173497726371,-22.4149296548357,-302.463072603534
738532.53954405698459595442,-10.1827295754875,-22.4980162968841,-302.5
738532.53954414743930101395,-10.1827295754875,-22.4149296548357,-302.509231849116
738532.53954423789400607347,-10.2196569719535,-22.4518570513016,-302.379985961486
738532.53954432834871113300,-10.1827295754875,-22.4241615039521,-302.398449659719
738532.53954441880341619253,-10.2011932737205,-22.4518570513016,-302.5
738532.53954450925812125206,-10.2011932737205,-22.4887844477676,-302.5
738532.53954459971282631159,-10.1827295754875,-22.4241615039521,-302.472304452651
738532.53954469016753137112,-10.1550340281381,-22.4980162968841,-302.472304452651
738532.53954478073865175247,-10.173497726371,-22.4149296548357,-302.463072603534
738532.53954487119335681200,-10.2196569719535,-22.571871089816,-302.481536301767
738532.53954496164806187153,-10.22888882107,-22.4426252021851,-302.453840754418
738532.53954505210276693106,-10.247352519303,-22.6272621845149,-302.509231849116
738532.53954514255747199059,-10.2565843684194,-22.4980162968841,-302.509231849116
738532.53954523301217705011,-10.2935117648854,-22.7011169774468,-302.472304452651
738532.53954532346688210964,-10.2842799157689,-22.553407391583,-302.481536301767
738532.53954541392158716917,-10.2935117648854,-22.6180303353984,-302.509231849116
738532.53954550437629222870,-10.2935117648854,-22.5995666371654,-302.509231849116
738532.53954559483099728823,-10.3119754631184,-22.6364940336314,-302.490768150883
738532.53954568528570234776,-10.2842799157689,-22.6457258827479,-302.509231849116
738532.53954577574040740728,-10.2935117648854,-22.5995666371654,-302.509231849116
738532.53954586619511246681,-10.3119754631184,-22.6826532792138,-302.481536301767
738532.53954595664981752634,-10.3027436140019,-22.5811029389325,-302.490768150883
738532.53954604710452258587,-10.3027436140019,-22.6918851283303,-302.509231849116
738532.53954613755922764540,-10.3489028595843,-22.5441755424665,-302.453840754418
738532.53954622801393270493,-10.2381206701865,-22.7011169774468,-302.416913357952
738532.53954631846863776445,-10.0257881405072,-22.5441755424665,-302.352290414136
738532.53954640892334282398,-9.50880458998382,-22.5072481460005,-302.34305856502
738532.53954649937804788351,-9.08413953062532,-22.2210608233894,-302.296899319437
738532.53954658983275294304,-9.58265938291574,-22.6641895809809,-302.379985961486
738532.53954668028745800257,-9.93346964934233,-22.8303628650777,-302.444608905301
738532.53954677085857838392,-10.2381206701865,-23.0611590929899,-302.509231849116
738532.53954686131328344345,-10.3119754631184,-22.7288125247963,-302.463072603534
738532.53954695176798850298,-10.2565843684194,-22.7842036194952,-302.444608905301
738532.53954704222269356251,-10.3027436140019,-22.571871089816,-302.407681508835
738532.53954713267739862204,-10.2750480666524,-22.6272621845149,-302.444608905301
738532.53954722313210368156,-10.191961424604,-22.4795525986511,-302.407681508835
738532.53954731358680874109,-10.0904110843226,-22.2118289742729,-302.370754112369
738532.53954740404151380062,-10.2196569719535,-22.5257118442335,-302.453840754418
738532.53954749449621886015,-10.3396710104678,-22.4887844477676,-302.407681508835
738532.53954758495092391968,-10.4689168980987,-22.7749717703787,-302.435377056185
738532.53954767540562897921,-10.4227576525162,-22.5257118442335,-302.444608905301
738532.53954776586033403873,-10.3765984069338,-22.5995666371654,-302.296899319437
738532.53954785631503909826,-10.3581347087008,-22.3318430127873,-302.269203772088
738532.53954794676974415779,-10.3212073122349,-22.4518570513016,-302.398449659719
738532.53954803722444921732,-10.2011932737205,-22.119510483108,-302.34305856502
738532.53954812767915427685,-10.1642658772546,-22.2395245216224,-302.361522263253
738532.53954821813385933638,-10.173497726371,-22.0271919919431,-302.333826715903
738532.53954830858856439590,-10.1827295754875,-22.1841334269234,-302.435377056185
738532.53954839904326945543,-10.1365703299051,-21.9810327463607,-302.416913357952
738532.53954848949797451496,-10.210425122837,-22.2487563707389,-302.389217810602
738532.53954857995267957449,-10.0904110843226,-22.082583086642,-302.31536301767
738532.53954867040738463402,-10.1273384807886,-22.2949156163213,-302.444608905301
738532.53954876097850501537,-10.210425122837,-22.3133793145543,-302.435377056185
738532.53954885143321007490,-10.1365703299051,-22.4056978057192,-302.463072603534
738532.53954894188791513443,-10.1273384807886,-22.3687704092532,-302.416913357952
738532.53954903234262019396,-10.0627155369732,-22.3687704092532,-302.407681508835
738532.53954912279732525349,-10.0442518387402,-22.4518570513016,-302.472304452651
738532.53954921325203031301,-10.0442518387402,-22.2302926725059,-302.352290414136
738532.53954930370673537254,-9.91500595110935,-22.2764519180883,-302.398449659719
738532.53954939416144043207,-9.90577410199286,-22.082583086642,-302.389217810602
738532.53954948461614549160,-9.93346964934233,-22.2949156163213,-302.398449659719
738532.53954957507085055113,-9.87807855464339,-22.0271919919431,-302.389217810602
738532.53954966552555561066,-9.96116519669179,-22.2487563707389,-302.407681508835
738532.53954975598026067019,-10.0257881405072,-22.1749015778069,-302.389217810602
738532.53954984643496572971,-10.1181066316721,-22.3780022583697,-302.361522263253
738532.53954993688967078924,-10.1273384807886,-22.3133793145543,-302.407681508835
738532.53955002734437584877,-10.1458021790216,-22.6826532792138,-302.472304452651
738532.53955011779908090830,-10.1088747825556,-22.4887844477676,-302.352290414136
738532.53955020825378596783,-10.1088747825556,-22.5072481460005,-302.426145207068
738532.53955029870849102736,-10.1088747825556,-22.4610889004181,-302.407681508835
738532.53955038916319608688,-10.1273384807886,-22.4426252021851,-302.352290414136
738532.53955047961790114641,-10.0811792352062,-22.4887844477676,-302.398449659719
738532.53955057007260620594,-10.1827295754875,-22.5257118442335,-302.463072603534
738532.53955066052731126547,-10.173497726371,-22.6364940336314,-302.379985961486
738532.53955075109843164682,-10.1458021790216,-22.4887844477676,-302.398449659719
738532.53955084155313670635,-10.1458021790216,-22.5811029389325,-302.463072603534
738532.53955093200784176588,-10.173497726371,-22.4887844477676,-302.463072603534
738532.53955102246254682541,-10.173497726371,-22.6180303353984,-302.398449659719
738532.53955111291725188494,-10.1642658772546,-22.4703207495346,-302.407681508835
738532.53955120337195694447,-10.1642658772546,-22.5441755424665,-302.416913357952
738532.53955129382666200399,-10.1642658772546,-22.4887844477676,-302.324594866787
738532.53955138428136706352,-10.1458021790216,-22.5072481460005,-302.287667470321
738532.53955147473607212305,-10.0719473860897,-22.4518570513016,-302.370754112369
738532.53955156519077718258,-10.0996429334391,-22.4518570513016,-302.361522263253
738532.53955165564548224211,-10.0811792352062,-22.553407391583,-302.379985961486
738532.53955174610018730164,-10.173497726371,-22.6087984862819,-302.416913357952
738532.53955183655489236116,-10.0811792352062,-22.6641895809809,-302.472304452651
738532.53955192700959742069,-9.96116519669179,-22.4333933530686,-302.435377056185
738532.53955201746430248022,-10.2011932737205,-22.7657399212622,-302.426145207068
738532.53955210791900753975,-10.2011932737205,-22.6734214300974,-302.398449659719
738532.53955219837371259928,-10.1642658772546,-22.7657399212622,-302.444608905301
738532.53955228882841765881,-10.173497726371,-22.571871089816,-302.453840754418
738532.53955237928312271833,-9.97039704580828,-22.5072481460005,-302.444608905301
738532.53955246973782777786,-10.0719473860897,-22.4703207495346,-302.398449659719
738532.53955256019253283739,-10.0442518387402,-22.6918851283303,-302.481536301767
738532.53955265064723789692,-10.191961424604,-22.7011169774468,-302.472304452651
738532.53955274121835827827,-10.2381206701865,-23.0519272438734,-302.472304452651
738532.53955283167306333780,-10.1550340281381,-22.950376903592,-302.463072603534
738532.53955292212776839733,-10.173497726371,-22.9965361491745,-302.5
738532.53955301258247345686,-10.0996429334391,-22.950376903592,-302.509231849116
738532.53955310303717851639,-10.0904110843226,-22.7472762230293,-302.435377056185
738532.53955319349188357592,-10.1088747825556,-22.8026673177282,-302.490768150883
738532.53955328394658863544,-10.0904110843226,-22.6549577318644,-302.509231849116
738532.53955337440129369497,-9.96116519669179,-22.6734214300974,-302.453840754418
738532.53955346485599875450,-10.0350199896237,-22.7472762230293,-302.435377056185
738532.53955355531070381403,-10.1365703299051,-23.0426953947569,-302.509231849116
738532.53955364576540887356,-10.1088747825556,-23.3288827173681,-302.509231849116
738532.53955373622011393309,-9.99809259315775,-23.6889248329112,-302.509231849116
738532.53955382667481899261,-10.0165562913907,-24.0305032502213,-302.509231849116
738532.53955391712952405214,-10.0719473860897,-24.1597491378521,-302.509231849116
738532.53955400758422911167,-9.98886074404126,-24.1689809869686,-302.509231849116
738532.53955409803893417120,-9.93346964934233,-24.9444563127537,-302.509231849116
738532.53955418849363923073,-9.85961485641041,-24.6213415936766,-302.509231849116
738532.53955427894834429026,-10.0350199896237,-24.5013275551622,-302.509231849116
738532.53955436940304934978,-10.0442518387402,-24.4090090639973,-302.509231849116
738532.53955445985775440931,-10.0073244422742,-24.1228217413862,-302.509231849116
738532.53955455031245946884,-9.8688467055269,-23.6704611346782,-302.509231849116
738532.53955464076716452837,-9.91500595110935,-23.5504470961638,-302.407681508835
738532.53955473133828490973,-9.97039704580828,-23.5042878505814,-302.509231849116
738532.53955482179298996925,-9.97039704580828,-23.2734916226691,-302.379985961486
738532.53955491224769502878,-9.98886074404126,-23.3288827173681,-302.259971922971
738532.53955500270240008831,-9.79499191259499,-22.968840601825,-302.333826715903
738532.53955509315710514784,-9.98886074404126,-23.2919553209021,-302.407681508835
738532.53955518361181020737,-10.0257881405072,-23.1904049806207,-302.398449659719
738532.53955527406651526690,-10.1088747825556,-23.4673604541154,-302.453840754418
738532.53955536452122032642,-10.0165562913907,-23.2550279244362,-302.481536301767
738532.53955545497592538595,-10.0719473860897,-23.3011871700186,-302.472304452651
738532.53955554543063044548,-10.0350199896237,-23.0334635456404,-302.472304452651
738532.53955563588533550501,-10.0811792352062,-23.0796227912229,-302.472304452651
738532.53955572634004056454,-10.0811792352062,-22.8211310159612,-302.407681508835
738532.53955581679474562407,-9.94270149845882,-22.7195806756798,-302.435377056185
738532.53955590724945068359,-9.9519333475753,-22.6180303353984,-302.472304452651
738532.53955599770415574312,-10.0904110843226,-22.8026673177282,-302.398449659719
738532.53955608815886080265,-10.0534836878567,-22.6918851283303,-302.463072603534
738532.53955617861356586218,-10.0904110843226,-22.6641895809809,-302.463072603534
738532.53955626906827092171,-9.99809259315775,-22.6272621845149,-302.361522263253
738532.53955635952297598124,-9.77652821436201,-22.6826532792138,-302.407681508835
738532.53955644997768104076,-9.35186315500351,-22.6364940336314,-302.333826715903
738532.53955654043238610029,-9.15799432355724,-22.553407391583,-302.34305856502
738532.53955663088709115982,-9.20415356913968,-22.6364940336314,-302.435377056185
738532.53955672145821154118,-9.62881862849818,-22.9042176580096,-302.509231849116
738532.53955681191291660070,-9.89654225287637,-23.1811731315043,-302.490768150883
738532.53955690236762166023,-9.91500595110935,-22.7380443739128,-302.435377056185
738532.53955699282232671976,-10.1458021790216,-22.987304300058,-302.435377056185
738532.53955708327703177929,-10.0996429334391,-22.7934354686117,-302.407681508835
738532.53955717373173683882,-9.96116519669179,-22.7011169774468,-302.407681508835
738532.53955726418644189835,-9.89654225287637,-22.5903347880489,-302.416913357952
738532.53955735464114695787,-10.173497726371,-22.9042176580096,-302.490768150883
738532.53955744509585201740,-10.1827295754875,-22.9411450544755,-302.444608905301
738532.53955753555055707693,-10.0534836878567,-22.7934354686117,-302.5
738532.53955762600526213646,-10.1088747825556,-22.9411450544755,-302.509231849116
738532.53955771645996719599,-10.1458021790216,-23.005767998291,-302.435377056185
738532.53955780691467225552,-10.0073244422742,-22.931913205359,-302.509231849116
738532.53955789736937731504,-10.0165562913907,-22.9042176580096,-302.509231849116
738532.53955798782408237457,-10.0350199896237,-23.005767998291,-302.509231849116
738532.53955807827878743410,-9.96116519669179,-22.7195806756798,-302.472304452651
