time_dn,ecg_projection_ll_ra_mV,ecg_projection_la_ra_mV,ecg_projection_vx_rl_mV
738465.40137552190572023392,1.71712393566698,0.378505813776055,-297.930234687338
738465.40137561236042529345,1.74481948301645,0.415433210242012,-297.847148045289
738465.40137570281513035297,1.84636982329783,0.535447248756371,-297.810220648823
738465.40137579326983541250,1.80021057771538,0.470824304940947,-297.828684347056
738465.40137588360812515020,1.78174687948241,0.452360606707968,-297.847148045289
738465.40137597406283020973,1.88329721976379,0.572374645222327,-297.782525101474
738465.40137606451753526926,1.83713797418134,0.516983550523392,-297.884075441755
738465.40137615497224032879,1.83713797418134,0.489288003173925,-297.884075441755
738465.40137624542694538832,1.92945646534623,0.581606494338817,-297.921002838221
738465.40137633588165044785,1.90176091799676,0.535447248756371,-297.745597705008
738465.40137642621994018555,1.88329721976379,0.480056154057436,-297.81945249794
738465.40137651667464524508,1.88329721976379,0.489288003173925,-297.911770989105
738465.40137660712935030460,1.99407940916166,0.590838343455306,-297.856379894406
738465.40137669758405536413,1.84636982329783,0.424665059358501,-297.921002838221
738465.40137678803876042366,1.80021057771538,0.378505813776055,-297.957930234687
738465.40137687837705016136,1.8740653706473,0.470824304940947,-297.948698385571
738465.40137696883175522089,1.80944242683187,0.387737662892544,-297.893307290872
738465.40137705928646028042,1.73558763389996,0.304651020844142,-297.856379894406
738465.40137714974116533995,1.73558763389996,0.332346568193609,-297.874843592639
738465.40137724019587039948,1.698660237434,0.286187322611164,-297.884075441755
738465.40137733065057545900,1.77251503036592,0.378505813776055,-297.893307290872
738465.40137742098886519670,1.80944242683187,0.396969512009033,-297.865611743522
738465.40137751144357025623,1.67096469008454,0.258491775261696,-297.902539139988
738465.40137760189827531576,1.80021057771538,0.369273964659566,-297.902539139988
738465.40137769235298037529,1.698660237434,0.286187322611164,-297.884075441755
738465.40137778280768543482,1.74481948301645,0.313882869960631,-297.893307290872
738465.40137787314597517252,1.77251503036592,0.341578417310099,-297.902539139988
738465.40137796360068023205,1.78174687948241,0.332346568193609,-297.921002838221
738465.40137805405538529158,1.75405133213294,0.313882869960631,-297.930234687338
738465.40137814451009035110,1.72635578478347,0.295419171727653,-297.902539139988
738465.40137823496479541063,1.77251503036592,0.350810266426588,-297.939466536454
738465.40137832541950047016,1.77251503036592,0.341578417310099,-297.930234687338
738465.40137841575779020786,1.75405133213294,0.332346568193609,-297.948698385571
738465.40137850621249526739,1.71712393566698,0.267723624378185,-297.921002838221
738465.40137859666720032692,1.72635578478347,0.304651020844142,-297.967162083804
738465.40137868712190538645,1.77251503036592,0.341578417310099,-297.921002838221
738465.40137877757661044598,1.71712393566698,0.286187322611164,-297.902539139988
738465.40137886803131550550,1.72635578478347,0.295419171727653,-297.939466536454
738465.40137895836960524321,1.76328318124943,0.332346568193609,-297.939466536454
738465.40137904882431030273,1.68019653920103,0.249259926145207,-297.985625782037
738465.40137913927901536226,1.68019653920103,0.258491775261696,-297.948698385571
738465.40137922973372042179,1.80021057771538,0.387737662892544,-297.921002838221
738465.40137932018842548132,1.74481948301645,0.304651020844142,-297.939466536454
738465.40137941052671521902,1.73558763389996,0.295419171727653,-297.97639393292
738465.40137950098142027855,1.74481948301645,0.286187322611164,-297.874843592639
738465.40137959143612533808,1.76328318124943,0.313882869960631,-297.967162083804
738465.40137968189083039761,1.7909787285989,0.350810266426588,-297.921002838221
738465.40137977234553545713,1.90176091799676,0.461592455824458,-297.847148045289
738465.40137986280024051666,1.86483352153081,0.406201361125523,-297.893307290872
738465.40137995313853025436,1.76328318124943,0.350810266426588,-297.939466536454
738465.40138004359323531389,1.77251503036592,0.341578417310099,-297.874843592639
738465.40138013404794037342,1.86483352153081,0.443128757591479,-297.911770989105
738465.40138022450264543295,1.698660237434,0.276955473494675,-297.930234687338
738465.40138031495735049248,1.67096469008454,0.249259926145207,-297.948698385571
738465.40138040529564023018,1.68942838831751,0.286187322611164,-297.902539139988
738465.40138049575034528971,1.68942838831751,0.276955473494675,-297.97639393292
738465.40138058620505034924,1.68942838831751,0.286187322611164,-297.939466536454
738465.40138067665975540876,1.68942838831751,0.276955473494675,-297.930234687338
738465.40138076711446046829,1.698660237434,0.295419171727653,-297.902539139988
738465.40138085756916552782,1.66173284096805,0.240028077028718,-297.874843592639
738465.40138094790745526552,1.64326914273507,0.22156437879574,-297.911770989105
738465.40138103836216032505,1.62480544450209,0.193868831446272,-297.911770989105
738465.40138112881686538458,1.67096469008454,0.286187322611164,-297.930234687338
738465.40138121927157044411,1.66173284096805,0.295419171727653,-297.856379894406
738465.40138130972627550364,1.77251503036592,0.600070192571795,-297.800988799707
738465.40138140018098056316,2.22487563707389,0.886257515182958,-297.708670308542
738465.40138149051927030087,2.97265541550951,1.03396710104678,-297.63481551561
738465.40138158097397536039,3.03727835932493,0.784707174901578,-297.671742912076
738465.40138167142868041992,2.42797631763665,0.240028077028718,-297.847148045289
738465.40138176188338547945,1.98484756004517,-0.0369273964659566,-297.930234687338
738465.40138185233809053898,1.78174687948241,0.0461592455824458,-297.985625782037
738465.40138194267638027668,1.82790612506485,0.267723624378185,-297.921002838221
738465.40138203313108533621,1.72635578478347,0.258491775261696,-297.911770989105
738465.40138212358579039574,1.698660237434,0.267723624378185,-297.930234687338
738465.40138221404049545527,1.698660237434,0.276955473494675,-297.97639393292
738465.40138230449520051479,1.66173284096805,0.267723624378185,-297.967162083804
738465.40138239494990557432,1.66173284096805,0.276955473494675,-297.939466536454
738465.40138248528819531202,1.77251503036592,0.387737662892544,-297.948698385571
738465.40138257574290037155,1.74481948301645,0.332346568193609,-297.939466536454
738465.40138266619760543108,1.66173284096805,0.267723624378185,-297.939466536454
738465.40138275665231049061,1.65250099185156,0.267723624378185,-297.939466536454
738465.40138284710701555014,1.73558763389996,0.369273964659566,-297.97639393292
738465.40138293744530528784,1.70789208655049,0.32311471907712,-297.930234687338
738465.40138302790001034737,1.74481948301645,0.341578417310099,-297.957930234687
738465.40138311835471540689,1.71712393566698,0.341578417310099,-297.939466536454
738465.40138320880942046642,1.80021057771538,0.424665059358501,-297.930234687338
738465.40138329926412552595,1.8740653706473,0.516983550523392,-297.939466536454
738465.40138338971883058548,1.8740653706473,0.507751701406903,-297.773293252358
738465.40138348005712032318,1.78174687948241,0.424665059358501,-297.810220648823
738465.40138357051182538271,1.80944242683187,0.443128757591479,-297.911770989105
738465.40138366096653044224,1.90176091799676,0.54467909787286,-297.874843592639
738465.40138375142123550177,1.84636982329783,0.461592455824458,-297.884075441755
738465.40138384187594056129,1.88329721976379,0.498519852290414,-297.893307290872
738465.40138393233064562082,2.00331125827815,0.609302041688284,-297.893307290872
738465.40138402266893535852,1.94792016357921,0.563142796105838,-297.856379894406
738465.40138411312364041805,1.89252906888028,0.470824304940947,-297.911770989105
738465.40138420357834547758,1.91099276711325,0.489288003173925,-297.939466536454
738465.40138429403305053711,1.89252906888028,0.443128757591479,-297.847148045289
738465.40138438448775559664,1.82790612506485,0.387737662892544,-297.930234687338
738465.40138447482604533434,1.83713797418134,0.387737662892544,-297.930234687338
738465.40138456528075039387,1.85560167241432,0.424665059358501,-297.957930234687
738465.40138465573545545340,1.80021057771538,0.369273964659566,-297.911770989105
738465.40138474619016051292,1.80021057771538,0.369273964659566,-297.939466536454
738465.40138483664486557245,1.85560167241432,0.424665059358501,-297.967162083804
738465.40138492709957063198,1.75405133213294,0.32311471907712,-297.930234687338
738465.40138501743786036968,1.70789208655049,0.286187322611164,-297.800988799707
738465.40138510789256542921,1.78174687948241,0.341578417310099,-297.837916196173
738465.40138519834727048874,1.73558763389996,0.304651020844142,-297.865611743522
738465.40138528880197554827,1.72635578478347,0.286187322611164,-297.837916196173
738465.40138537925668060780,1.74481948301645,0.313882869960631,-297.911770989105
738465.40138546959497034550,1.7909787285989,0.360042115543077,-297.874843592639
738465.40138556004967540503,1.7909787285989,0.360042115543077,-297.893307290872
738465.40138565050438046455,1.72635578478347,0.295419171727653,-297.865611743522
738465.40138574095908552408,1.78174687948241,0.350810266426588,-297.948698385571
738465.40138583141379058361,1.88329721976379,0.452360606707968,-297.865611743522
738465.40138592186849564314,1.70789208655049,0.286187322611164,-297.921002838221
738465.40138601220678538084,1.67096469008454,0.249259926145207,-297.893307290872
738465.40138610266149044037,1.75405133213294,0.341578417310099,-297.939466536454
738465.40138619311619549990,1.71712393566698,0.286187322611164,-297.939466536454
738465.40138628357090055943,1.698660237434,0.295419171727653,-297.865611743522
738465.40138637402560561895,1.73558763389996,0.332346568193609,-297.911770989105
738465.40138646448031067848,1.76328318124943,0.360042115543077,-297.902539139988
738465.40138655481860041618,1.70789208655049,0.304651020844142,-297.921002838221
738465.40138664527330547571,1.66173284096805,0.240028077028718,-297.948698385571
738465.40138673572801053524,1.68942838831751,0.286187322611164,-297.911770989105
738465.40138682618271559477,1.71712393566698,0.304651020844142,-297.902539139988
738465.40138691663742065430,1.71712393566698,0.304651020844142,-297.911770989105
738465.40138700697571039200,1.698660237434,0.295419171727653,-297.791756950591
738465.40138709743041545153,1.70789208655049,0.295419171727653,-297.985625782037
738465.40138718788512051105,1.73558763389996,0.295419171727653,-297.957930234687
738465.40138727833982557058,1.7909787285989,0.341578417310099,-297.948698385571
738465.40138736879453063011,1.85560167241432,0.452360606707968,-297.921002838221
738465.40138745924923568964,1.80021057771538,0.387737662892544,-298.00408948027
738465.40138754958752542734,1.75405133213294,0.341578417310099,-297.957930234687
738465.40138764004223048687,1.75405133213294,0.369273964659566,-297.921002838221
738465.40138773049693554640,1.73558763389996,0.369273964659566,-297.957930234687
738465.40138782095164060593,1.67096469008454,0.295419171727653,-297.985625782037
738465.40138791140634566545,1.698660237434,0.332346568193609,-297.874843592639
738465.40138800174463540316,1.73558763389996,0.369273964659566,-297.957930234687
738465.40138809219934046268,1.6155735953856,0.267723624378185,-297.967162083804
738465.40138818265404552221,1.58787804803613,0.21233252967925,-297.930234687338
738465.40138827310875058174,1.59710989715262,0.230796227912229,-297.967162083804
738465.40138836356345564127,1.6155735953856,0.258491775261696,-297.967162083804
738465.40138845401816070080,1.65250099185156,0.295419171727653,-297.994857631153
738465.40138854435645043850,1.6155735953856,0.258491775261696,-297.884075441755
738465.40138863481115549803,1.63403729361858,0.286187322611164,-298.013321329386
738465.40138872526586055756,1.72635578478347,0.369273964659566,-297.97639393292
738465.40138881572056561708,1.56018250068667,0.249259926145207,-297.957930234687
738465.40138890617527067661,1.54171880245369,0.230796227912229,-297.985625782037
738465.40138899651356041431,1.72635578478347,0.664693136387219,-297.893307290872
738465.40138908696826547384,2.30796227912229,1.0247352519303,-297.717902157659
738465.40138917742297053337,3.03727835932493,1.18167668691061,-297.616351817377
738465.40138926787767559290,2.94495986816004,0.821634571367534,-297.727134006775
738465.40138935833238065243,2.28949858088931,0.249259926145207,-297.930234687338
738465.40138944878708571196,1.91099276711325,0.064622943815424,-297.967162083804
738465.40138953912537544966,1.66173284096805,0.101550340281381,-298.068712424085
738465.40138962958008050919,1.67096469008454,0.22156437879574,-297.967162083804
738465.40138972003478556871,1.63403729361858,0.249259926145207,-297.921002838221
738465.40138981048949062824,1.60634174626911,0.258491775261696,-297.948698385571
738465.40138990094419568777,1.64326914273507,0.295419171727653,-297.930234687338
738465.40138999139890074730,1.66173284096805,0.350810266426588,-297.939466536454
738465.40139008173719048500,1.55095065157018,0.258491775261696,-297.948698385571
738465.40139017219189554453,1.55095065157018,0.258491775261696,-298.013321329386
738465.40139026264660060406,1.56941434980316,0.286187322611164,-297.930234687338
738465.40139035310130566359,1.58787804803613,0.304651020844142,-297.921002838221
738465.40139044355601072311,1.64326914273507,0.360042115543077,-297.893307290872
738465.40139053389430046082,1.65250099185156,0.369273964659566,-297.837916196173
738465.40139062434900552034,1.60634174626911,0.332346568193609,-297.985625782037
738465.40139071480371057987,1.68019653920103,0.396969512009033,-297.939466536454
738465.40139080525841563940,1.72635578478347,0.452360606707968,-297.948698385571
738465.40139089571312069893,1.58787804803613,0.304651020844142,-297.930234687338
738465.40139098616782575846,1.58787804803613,0.313882869960631,-297.902539139988
738465.40139107650611549616,1.68019653920103,0.396969512009033,-297.911770989105
738465.40139116696082055569,1.71712393566698,0.452360606707968,-297.985625782037
738465.40139125741552561522,1.698660237434,0.43389690847499,-297.948698385571
738465.40139134787023067474,1.73558763389996,0.470824304940947,-297.884075441755
738465.40139143832493573427,1.74481948301645,0.470824304940947,-297.930234687338
738465.40139152866322547197,1.81867427594836,0.54467909787286,-297.930234687338
738465.40139161911793053150,1.80944242683187,0.507751701406903,-297.930234687338
738465.40139170957263559103,1.8740653706473,0.563142796105838,-297.939466536454
738465.40139180002734065056,1.76328318124943,0.415433210242012,-297.930234687338
738465.40139189048204571009,1.80021057771538,0.452360606707968,-297.957930234687
738465.40139198093675076962,1.77251503036592,0.424665059358501,-297.930234687338
738465.40139207127504050732,1.67096469008454,0.350810266426588,-297.948698385571
738465.40139216172974556684,1.67096469008454,0.360042115543077,-297.957930234687
738465.40139225218445062637,1.73558763389996,0.415433210242012,-297.948698385571
738465.40139234263915568590,1.67096469008454,0.350810266426588,-297.97639393292
738465.40139243309386074543,1.73558763389996,0.387737662892544,-297.967162083804
738465.40139252354856580496,1.63403729361858,0.32311471907712,-298.00408948027
738465.40139261388685554266,1.57864619891964,0.267723624378185,-297.97639393292
738465.40139270434156060219,1.57864619891964,0.258491775261696,-298.00408948027
738465.40139279479626566172,1.57864619891964,0.258491775261696,-298.00408948027
738465.40139288525097072124,1.58787804803613,0.276955473494675,-297.921002838221
738465.40139297570567578077,1.66173284096805,0.332346568193609,-297.97639393292
738465.40139306604396551847,1.64326914273507,0.32311471907712,-298.022553178503
738465.40139315649867057800,1.58787804803613,0.267723624378185,-297.921002838221
738465.40139324695337563753,1.64326914273507,0.32311471907712,-298.031785027619
738465.40139333740808069706,1.70789208655049,0.387737662892544,-297.957930234687
738465.40139342786278575659,1.62480544450209,0.295419171727653,-298.022553178503
738465.40139351831749081612,1.6155735953856,0.304651020844142,-297.967162083804
738465.40139360865578055382,1.57864619891964,0.258491775261696,-298.022553178503
738465.40139369911048561335,1.60634174626911,0.286187322611164,-298.022553178503
738465.40139378956519067287,1.65250099185156,0.313882869960631,-297.930234687338
738465.40139388001989573240,1.60634174626911,0.286187322611164,-297.957930234687
738465.40139397047460079193,1.66173284096805,0.341578417310099,-297.865611743522
738465.40139406081289052963,1.64326914273507,0.341578417310099,-297.81945249794
738465.40139415126759558916,1.56941434980316,0.267723624378185,-297.930234687338
738465.40139424172230064869,1.55095065157018,0.258491775261696,-297.967162083804
738465.40139433217700570822,1.56941434980316,0.267723624378185,-297.902539139988
738465.40139442263171076775,1.6155735953856,0.304651020844142,-297.902539139988
738465.40139451308641582727,1.64326914273507,0.332346568193609,-297.884075441755
738465.40139460342470556498,1.698660237434,0.387737662892544,-297.921002838221
738465.40139469387941062450,1.58787804803613,0.267723624378185,-297.921002838221
738465.40139478433411568403,1.58787804803613,0.258491775261696,-297.930234687338
738465.40139487478882074356,1.60634174626911,0.276955473494675,-297.967162083804
738465.40139496524352580309,1.67096469008454,0.332346568193609,-297.97639393292
738465.40139505569823086262,1.70789208655049,0.369273964659566,-297.97639393292
738465.40139514603652060032,1.67096469008454,0.341578417310099,-298.013321329386
738465.40139523649122565985,1.65250099185156,0.341578417310099,-297.911770989105
738465.40139532694593071938,1.68019653920103,0.360042115543077,-297.97639393292
738465.40139541740063577890,1.6155735953856,0.313882869960631,-297.994857631153
738465.40139550785534083843,1.698660237434,0.406201361125523,-297.921002838221
738465.40139559819363057613,1.65250099185156,0.369273964659566,-298.00408948027
738465.40139568864833563566,1.45863216040529,0.166173284096805,-298.041016876736
738465.40139577910304069519,1.48632770775475,0.203100680562761,-298.022553178503
738465.40139586955774575472,1.56941434980316,0.286187322611164,-297.948698385571
738465.40139596001245081425,1.55095065157018,0.267723624378185,-298.022553178503
738465.40139605046715587378,1.47709585863826,0.203100680562761,-298.013321329386
738465.40139614080544561148,1.49555955687124,0.22156437879574,-297.957930234687
738465.40139623126015067101,1.49555955687124,0.230796227912229,-298.031785027619
738465.40139632171485573053,1.54171880245369,0.258491775261696,-298.031785027619
738465.40139641216956079006,1.5324869533372,0.295419171727653,-298.031785027619
738465.40139650262426584959,1.58787804803613,0.350810266426588,-297.994857631153
738465.40139659296255558729,1.66173284096805,0.572374645222327,-297.939466536454
738465.40139668341726064682,2.07716605121006,0.812402722251045,-297.791756950591
738465.40139677387196570635,2.85264137699515,0.969344157231361,-297.653279213843
738465.40139686432667076588,2.93572801904355,0.766243476668599,-297.754829554125
738465.40139695478137582541,2.35412152470473,0.341578417310099,-297.957930234687
738465.40139704523608088493,1.89252906888028,0.0923184911648915,-297.994857631153
738465.40139713557437062263,1.59710989715262,0.0923184911648915,-298.114871669668
738465.40139722602907568216,1.62480544450209,0.203100680562761,-298.041016876736
738465.40139731648378074169,1.54171880245369,0.230796227912229,-298.013321329386
738465.40139740693848580122,1.52325510422071,0.240028077028718,-298.031785027619
738465.40139749739319086075,1.58787804803613,0.304651020844142,-297.791756950591
738465.40139758784789592028,1.6155735953856,0.350810266426588,-297.847148045289
738465.40139767818618565798,1.43093661305582,0.193868831446272,-297.939466536454
738465.40139776864089071751,1.45863216040529,0.203100680562761,-297.921002838221
738465.40139785909559577703,1.49555955687124,0.240028077028718,-297.902539139988
738465.40139794955030083656,1.5324869533372,0.295419171727653,-297.911770989105
738465.40139804000500589609,1.49555955687124,0.258491775261696,-297.939466536454
738465.40139813034329563379,1.51402325510422,0.276955473494675,-297.985625782037
738465.40139822079800069332,1.5324869533372,0.286187322611164,-297.939466536454
738465.40139831125270575285,1.59710989715262,0.369273964659566,-297.939466536454
738465.40139840170741081238,1.6155735953856,0.387737662892544,-297.930234687338
738465.40139849216211587191,1.56018250068667,0.32311471907712,-297.967162083804
738465.40139858261682093143,1.67096469008454,0.43389690847499,-297.939466536454
738465.40139867295511066914,1.67096469008454,0.43389690847499,-297.930234687338
738465.40139876340981572866,1.57864619891964,0.332346568193609,-297.967162083804
738465.40139885386452078819,1.6155735953856,0.378505813776055,-298.00408948027
738465.40139894431922584772,1.64326914273507,0.406201361125523,-297.939466536454
738465.40139903477393090725,1.71712393566698,0.470824304940947,-297.957930234687
738465.40139912511222064495,1.74481948301645,0.498519852290414,-297.893307290872
738465.40139921556692570448,1.72635578478347,0.452360606707968,-297.921002838221
738465.40139930602163076401,1.81867427594836,0.526215399639882,-297.893307290872
738465.40139939647633582354,1.7909787285989,0.498519852290414,-297.939466536454
738465.40139948693104088306,1.70789208655049,0.406201361125523,-297.911770989105
738465.40139957738574594259,1.77251503036592,0.452360606707968,-297.939466536454
738465.40139966772403568029,1.70789208655049,0.387737662892544,-297.930234687338
738465.40139975817874073982,1.65250099185156,0.32311471907712,-297.939466536454
738465.40139984863344579935,1.63403729361858,0.313882869960631,-298.022553178503
738465.40139993908815085888,1.62480544450209,0.313882869960631,-297.985625782037
738465.40140002954285591841,1.54171880245369,0.240028077028718,-298.031785027619
738465.40140011999756097794,1.57864619891964,0.267723624378185,-297.994857631153
738465.40140021033585071564,1.59710989715262,0.295419171727653,-298.050248725852
738465.40140030079055577517,1.57864619891964,0.276955473494675,-297.994857631153
738465.40140039124526083469,1.57864619891964,0.276955473494675,-298.00408948027
738465.40140048169996589422,1.56941434980316,0.267723624378185,-298.013321329386
738465.40140057215467095375,1.59710989715262,0.286187322611164,-298.031785027619
738465.40140066249296069145,1.60634174626911,0.286187322611164,-298.00408948027
738465.40140075294766575098,1.6155735953856,0.295419171727653,-298.022553178503
738465.40140084340237081051,1.58787804803613,0.276955473494675,-297.994857631153
738465.40140093385707587004,1.6155735953856,0.304651020844142,-297.967162083804
738465.40140102431178092957,1.60634174626911,0.295419171727653,-297.837916196173
738465.40140111476648598909,1.63403729361858,0.304651020844142,-297.939466536454
738465.40140120510477572680,1.62480544450209,0.304651020844142,-297.994857631153
738465.40140129555948078632,1.68942838831751,0.378505813776055,-297.985625782037
738465.40140138601418584585,1.71712393566698,0.406201361125523,-298.013321329386
738465.40140147646889090538,1.58787804803613,0.276955473494675,-298.031785027619
738465.40140156692359596491,1.55095065157018,0.249259926145207,-297.97639393292
738465.40140165726188570261,1.62480544450209,0.313882869960631,-297.97639393292
738465.40140174771659076214,1.75405133213294,0.43389690847499,-298.041016876736
738465.40140183817129582167,1.51402325510422,0.184636982329783,-298.013321329386
738465.40140192862600088120,1.54171880245369,0.230796227912229,-298.022553178503
738465.40140201908070594072,1.52325510422071,0.22156437879574,-297.985625782037
738465.40140210953541100025,1.51402325510422,0.203100680562761,-297.985625782037
738465.40140219987370073795,1.5324869533372,0.240028077028718,-297.902539139988
738465.40140229032840579748,1.63403729361858,0.313882869960631,-297.902539139988
738465.40140238078311085701,1.70789208655049,0.369273964659566,-297.911770989105
738465.40140247123781591654,1.59710989715262,0.258491775261696,-297.911770989105
738465.40140256169252097607,1.62480544450209,0.304651020844142,-297.893307290872
738465.40140265214722603559,1.67096469008454,0.313882869960631,-297.874843592639
738465.40140274248551577330,1.80944242683187,0.480056154057436,-297.884075441755
738465.40140283294022083282,1.68019653920103,0.350810266426588,-297.939466536454
738465.40140292339492589235,1.5324869533372,0.22156437879574,-297.97639393292
738465.40140301384963095188,1.55095065157018,0.249259926145207,-297.948698385571
738465.40140310430433601141,1.59710989715262,0.304651020844142,-297.97639393292
738465.40140319464262574911,1.63403729361858,0.32311471907712,-297.97639393292
738465.40140328509733080864,1.54171880245369,0.249259926145207,-297.948698385571
738465.40140337555203586817,1.50479140598773,0.21233252967925,-297.985625782037
738465.40140346600674092770,1.51402325510422,0.22156437879574,-297.967162083804
738465.40140355646144598722,1.52325510422071,0.240028077028718,-297.994857631153
738465.40140364691615104675,1.63403729361858,0.332346568193609,-298.00408948027
738465.40140373725444078445,1.52325510422071,0.22156437879574,-297.994857631153
738465.40140382770914584398,1.50479140598773,0.193868831446272,-297.994857631153
738465.40140391816385090351,1.49555955687124,0.21233252967925,-297.948698385571
738465.40140400861855596304,1.40324106570635,0.184636982329783,-297.948698385571
738465.40140409907326102257,1.57864619891964,0.332346568193609,-297.985625782037
738465.40140418941155076027,1.8740653706473,0.793939024018067,-297.865611743522
738465.40140427986625581980,2.41874446852016,0.904721213415937,-297.754829554125
738465.40140437032096087933,3.00958281197546,0.923184911648915,-297.699438459426
738465.40140446077566593885,2.8064821314127,0.590838343455306,-297.81945249794
738465.40140455123037099838,2.14178899502548,0.166173284096805,-297.828684347056
738465.40140464168507605791,1.77251503036592,0.0276955473494674,-298.00408948027
738465.40140473202336579561,1.65250099185156,0.129245887630848,-298.068712424085
738465.40140482247807085514,1.64326914273507,0.258491775261696,-298.068712424085
738465.40140491293277591467,1.57864619891964,0.249259926145207,-297.967162083804
738465.40140500338748097420,1.55095065157018,0.249259926145207,-298.050248725852
738465.40140509384218603373,1.56018250068667,0.267723624378185,-298.00408948027
738465.40140518418047577143,1.55095065157018,0.276955473494675,-297.985625782037
738465.40140527463518083096,1.56941434980316,0.295419171727653,-298.031785027619
738465.40140536508988589048,1.56941434980316,0.286187322611164,-298.022553178503
738465.40140545554459095001,1.54171880245369,0.267723624378185,-298.050248725852
738465.40140554599929600954,1.55095065157018,0.276955473494675,-297.967162083804
738465.40140563645400106907,1.60634174626911,0.341578417310099,-298.059480574969
738465.40140572679229080677,1.67096469008454,0.406201361125523,-297.994857631153
738465.40140581724699586630,1.62480544450209,0.360042115543077,-297.97639393292
738465.40140590770170092583,1.50479140598773,0.230796227912229,-297.893307290872
738465.40140599815640598536,1.59710989715262,0.32311471907712,-297.893307290872
738465.40140608861111104488,1.63403729361858,0.369273964659566,-297.893307290872
738465.40140617906581610441,1.6155735953856,0.350810266426588,-297.911770989105
738465.40140626940410584211,1.67096469008454,0.415433210242012,-297.884075441755
738465.40140635985881090164,1.68019653920103,0.415433210242012,-297.874843592639
738465.40140645031351596117,1.74481948301645,0.480056154057436,-297.874843592639
738465.40140654076822102070,1.86483352153081,0.590838343455306,-297.921002838221
738465.40140663122292608023,1.698660237434,0.424665059358501,-297.893307290872
738465.40140672156121581793,1.66173284096805,0.369273964659566,-297.921002838221
738465.40140681201592087746,1.698660237434,0.396969512009033,-297.874843592639
738465.40140690247062593699,1.76328318124943,0.443128757591479,-297.884075441755
738465.40140699292533099651,1.81867427594836,0.489288003173925,-297.884075441755
738465.40140708338003605604,1.75405133213294,0.396969512009033,-297.902539139988
738465.40140717383474111557,1.73558763389996,0.387737662892544,-297.884075441755
738465.40140726417303085327,1.73558763389996,0.378505813776055,-297.911770989105
738465.40140735462773591280,1.698660237434,0.350810266426588,-297.921002838221
738465.40140744508244097233,1.72635578478347,0.369273964659566,-297.921002838221
738465.40140753553714603186,1.74481948301645,0.406201361125523,-297.948698385571
738465.40140762599185109138,1.58787804803613,0.249259926145207,-297.948698385571
738465.40140771633014082909,1.59710989715262,0.258491775261696,-297.985625782037
738465.40140780678484588861,1.59710989715262,0.240028077028718,-297.957930234687
738465.40140789723955094814,1.63403729361858,0.286187322611164,-297.967162083804
738465.40140798769425600767,1.62480544450209,0.286187322611164,-297.911770989105
738465.40140807814896106720,1.63403729361858,0.286187322611164,-297.828684347056
738465.40140816860366612673,1.66173284096805,0.32311471907712,-297.865611743522
738465.40140825894195586443,1.64326914273507,0.276955473494675,-297.957930234687
738465.40140834939666092396,1.60634174626911,0.249259926145207,-298.013321329386
738465.40140843985136598349,1.64326914273507,0.276955473494675,-297.985625782037
738465.40140853030607104301,1.73558763389996,0.387737662892544,-297.994857631153
738465.40140862076077610254,1.65250099185156,0.286187322611164,-298.013321329386
738465.40140871121548116207,1.59710989715262,0.230796227912229,-297.994857631153
738465.40140880155377089977,1.64326914273507,0.276955473494675,-297.948698385571
738465.40140889200847595930,1.62480544450209,0.258491775261696,-298.031785027619
738465.40140898246318101883,1.60634174626911,0.240028077028718,-298.00408948027
738465.40140907291788607836,1.68019653920103,0.332346568193609,-297.967162083804
738465.40140916337259113789,1.68942838831751,0.332346568193609,-298.013321329386
738465.40140925371088087559,1.64326914273507,0.267723624378185,-298.022553178503
738465.40140934416558593512,1.60634174626911,0.249259926145207,-297.97639393292
738465.40140943462029099464,1.58787804803613,0.230796227912229,-297.985625782037
738465.40140952507499605417,1.68019653920103,0.332346568193609,-298.00408948027
738465.40140961552970111370,1.72635578478347,0.369273964659566,-298.022553178503
738465.40140970598440617323,1.57864619891964,0.21233252967925,-297.97639393292
738465.40140979632269591093,1.60634174626911,0.240028077028718,-298.00408948027
738465.40140988677740097046,1.59710989715262,0.230796227912229,-298.00408948027
738465.40140997723210602999,1.65250099185156,0.258491775261696,-297.911770989105
738465.40141006768681108952,1.65250099185156,0.258491775261696,-298.00408948027
738465.40141015814151614904,1.66173284096805,0.295419171727653,-298.00408948027
738465.40141024847980588675,1.7909787285989,0.406201361125523,-297.948698385571
738465.40141033893451094627,1.80021057771538,0.406201361125523,-297.939466536454
738465.40141042938921600580,1.59710989715262,0.230796227912229,-298.00408948027
738465.40141051984392106533,1.59710989715262,0.240028077028718,-297.948698385571
738465.40141061029862612486,1.65250099185156,0.304651020844142,-297.957930234687
738465.40141070075333118439,1.62480544450209,0.276955473494675,-297.994857631153
738465.40141079109162092209,1.66173284096805,0.304651020844142,-298.022553178503
738465.40141088154632598162,1.60634174626911,0.258491775261696,-297.911770989105
738465.40141097200103104115,1.6155735953856,0.267723624378185,-298.013321329386
738465.40141106245573610067,1.60634174626911,0.258491775261696,-298.013321329386
738465.40141115291044116020,1.52325510422071,0.166173284096805,-297.985625782037
738465.40141124336514621973,1.52325510422071,0.184636982329783,-297.921002838221
738465.40141133370343595743,1.56941434980316,0.22156437879574,-297.911770989105
738465.40141142415814101696,1.56941434980316,0.22156437879574,-297.893307290872
738465.40141151461284607649,1.59710989715262,0.22156437879574,-297.874843592639
738465.40141160506755113602,1.49555955687124,0.21233252967925,-297.847148045289
738465.40141169552225619555,1.62480544450209,0.313882869960631,-297.800988799707
738465.40141178586054593325,1.81867427594836,0.710852381969665,-297.810220648823
738465.40141187631525099277,2.32642597735527,0.840098269600513,-297.699438459426
738465.40141196676995605230,2.981887264626,0.904721213415937,-297.66251106296
738465.40141205722466111183,2.91726432081057,0.627765739921262,-297.727134006775
738465.40141214767936617136,2.31719412823878,0.230796227912229,-297.939466536454
738465.40141223813407123089,1.88329721976379,0.00923184911648915,-298.022553178503
738465.40141232847236096859,1.67096469008454,0.064622943815424,-298.068712424085
738465.40141241892706602812,1.66173284096805,0.193868831446272,-297.939466536454
738465.40141250938177108765,1.58787804803613,0.175405133213294,-297.957930234687
738465.40141259983647614717,1.55095065157018,0.175405133213294,-298.00408948027
738465.40141269029118120670,1.57864619891964,0.21233252967925,-298.022553178503
738465.40141278062947094440,1.56018250068667,0.21233252967925,-297.957930234687
738465.40141287108417600393,1.56018250068667,0.22156437879574,-298.00408948027
738465.40141296153888106346,1.57864619891964,0.240028077028718,-297.994857631153
738465.40141305199358612299,1.6155735953856,0.276955473494675,-297.985625782037
738465.40141314244829118252,1.59710989715262,0.276955473494675,-297.97639393292
738465.40141323290299624205,1.60634174626911,0.267723624378185,-297.985625782037
738465.40141332324128597975,1.66173284096805,0.332346568193609,-298.022553178503
738465.40141341369599103928,1.698660237434,0.378505813776055,-297.97639393292
738465.40141350415069609880,1.6155735953856,0.276955473494675,-297.985625782037
738465.40141359460540115833,1.58787804803613,0.258491775261696,-297.967162083804
738465.40141368506010621786,1.60634174626911,0.286187322611164,-297.985625782037
738465.40141377551481127739,1.70789208655049,0.378505813776055,-297.97639393292
738465.40141386585310101509,1.68942838831751,0.360042115543077,-297.939466536454
738465.40141395630780607462,1.698660237434,0.369273964659566,-297.985625782037
738465.40141404676251113415,1.72635578478347,0.378505813776055,-297.957930234687
738465.40141413721721619368,1.81867427594836,0.489288003173925,-297.911770989105
738465.40141422767192125320,1.7909787285989,0.461592455824458,-297.921002838221
738465.40141431801021099091,1.80021057771538,0.461592455824458,-297.97639393292
738465.40141440846491605043,1.84636982329783,0.480056154057436,-297.948698385571
738465.40141449891962110996,1.80944242683187,0.424665059358501,-297.921002838221
738465.40141458937432616949,1.86483352153081,0.452360606707968,-297.939466536454
738465.40141467982903122902,1.84636982329783,0.443128757591479,-297.97639393292
738465.40141477028373628855,1.74481948301645,0.332346568193609,-297.902539139988
738465.40141486062202602625,1.75405133213294,0.341578417310099,-297.957930234687
738465.40141495107673108578,1.71712393566698,0.313882869960631,-297.911770989105
738465.40141504153143614531,1.72635578478347,0.304651020844142,-297.865611743522
738465.40141513198614120483,1.698660237434,0.295419171727653,-297.837916196173
738465.40141522244084626436,1.75405133213294,0.341578417310099,-297.791756950591
738465.40141531277913600206,1.67096469008454,0.258491775261696,-297.911770989105
738465.40141540323384106159,1.65250099185156,0.240028077028718,-297.921002838221
738465.40141549368854612112,1.72635578478347,0.313882869960631,-297.921002838221
738465.40141558414325118065,1.68019653920103,0.267723624378185,-297.911770989105
738465.40141567459795624018,1.6155735953856,0.21233252967925,-297.948698385571
738465.40141576505266129971,1.66173284096805,0.240028077028718,-297.911770989105
738465.40141585539095103741,1.68019653920103,0.267723624378185,-297.930234687338
738465.40141594584565609694,1.68942838831751,0.267723624378185,-297.893307290872
738465.40141603630036115646,1.71712393566698,0.295419171727653,-297.994857631153
738465.40141612675506621599,1.66173284096805,0.230796227912229,-297.874843592639
738465.40141621720977127552,1.67096469008454,0.258491775261696,-297.902539139988
738465.40141630766447633505,1.66173284096805,0.22156437879574,-297.884075441755
738465.40141639800276607275,1.67096469008454,0.240028077028718,-297.930234687338
738465.40141648845747113228,1.698660237434,0.267723624378185,-297.874843592639
738465.40141657891217619181,1.68019653920103,0.240028077028718,-297.911770989105
738465.40141666936688125134,1.68019653920103,0.249259926145207,-297.902539139988
738465.40141675982158631086,1.68942838831751,0.258491775261696,-297.930234687338
738465.40141685015987604856,1.66173284096805,0.230796227912229,-297.967162083804
738465.40141694061458110809,1.66173284096805,0.240028077028718,-297.957930234687
738465.40141703106928616762,1.71712393566698,0.295419171727653,-298.022553178503
738465.40141712152399122715,1.67096469008454,0.22156437879574,-297.921002838221
738465.40141721197869628668,1.62480544450209,0.203100680562761,-298.022553178503
738465.40141730243340134621,1.68019653920103,0.249259926145207,-297.957930234687
738465.40141739277169108391,1.68019653920103,0.249259926145207,-297.921002838221
738465.40141748322639614344,1.68942838831751,0.258491775261696,-297.957930234687
738465.40141757368110120296,1.64326914273507,0.21233252967925,-297.97639393292
738465.40141766413580626249,1.68942838831751,0.230796227912229,-297.967162083804
738465.40141775459051132202,1.74481948301645,0.295419171727653,-297.97639393292
738465.40141784492880105972,1.68942838831751,0.240028077028718,-297.97639393292
738465.40141793538350611925,1.71712393566698,0.267723624378185,-297.967162083804
738465.40141802583821117878,1.75405133213294,0.295419171727653,-297.911770989105
738465.40141811629291623831,1.74481948301645,0.304651020844142,-297.97639393292
738465.40141820674762129784,1.74481948301645,0.313882869960631,-297.957930234687
738465.40141829720232635736,1.72635578478347,0.304651020844142,-297.939466536454
738465.40141838754061609507,1.67096469008454,0.258491775261696,-297.985625782037
738465.40141847799532115459,1.66173284096805,0.230796227912229,-297.97639393292
738465.40141856845002621412,1.67096469008454,0.249259926145207,-297.902539139988
738465.40141865890473127365,1.63403729361858,0.22156437879574,-297.902539139988
738465.40141874935943633318,1.65250099185156,0.230796227912229,-297.884075441755
738465.40141883981414139271,1.70789208655049,0.276955473494675,-297.985625782037
738465.40141893015243113041,1.54171880245369,0.120014038514359,-297.948698385571
738465.40141902060713618994,1.58787804803613,0.166173284096805,-297.994857631153
738465.40141911106184124947,1.6155735953856,0.184636982329783,-297.939466536454
738465.40141920151654630899,1.62480544450209,0.184636982329783,-297.893307290872
738465.40141929197125136852,1.68942838831751,0.276955473494675,-297.957930234687
738465.40141938230954110622,1.48632770775475,0.129245887630848,-297.939466536454
738465.40141947276424616575,1.64326914273507,0.295419171727653,-297.921002838221
738465.40141956321895122528,1.98484756004517,0.793939024018067,-297.745597705008
738465.40141965367365628481,2.67723624378185,0.950880458998382,-297.66251106296
738465.40141974412836134434,3.04651020844142,0.812402722251045,-297.63481551561
738465.40141983458306640387,2.71416364024781,0.396969512009033,-297.782525101474
738465.40141992492135614157,2.16025269325846,0.064622943815424,-297.97639393292
738465.40142001537606120110,1.7909787285989,-0.064622943815424,-298.013321329386
738465.40142010583076626062,1.67096469008454,0.0553910946989349,-297.97639393292
738465.40142019628547132015,1.68019653920103,0.175405133213294,-297.930234687338
738465.40142028674017637968,1.66173284096805,0.203100680562761,-297.948698385571
738465.40142037707846611738,1.66173284096805,0.203100680562761,-297.902539139988
738465.40142046753317117691,1.66173284096805,0.240028077028718,-298.00408948027
738465.40142055798787623644,1.66173284096805,0.240028077028718,-297.967162083804
738465.40142064844258129597,1.63403729361858,0.22156437879574,-297.97639393292
738465.40142073889728635550,1.59710989715262,0.193868831446272,-297.930234687338
738465.40142082935199141502,1.65250099185156,0.240028077028718,-297.967162083804
738465.40142091969028115273,1.65250099185156,0.240028077028718,-297.939466536454
738465.40142101014498621225,1.64326914273507,0.230796227912229,-297.967162083804
738465.40142110059969127178,1.68019653920103,0.276955473494675,-297.967162083804
738465.40142119105439633131,1.65250099185156,0.249259926145207,-297.97639393292
738465.40142128150910139084,1.65250099185156,0.258491775261696,-297.921002838221
738465.40142137196380645037,1.74481948301645,0.332346568193609,-297.948698385571
738465.40142146230209618807,1.75405133213294,0.341578417310099,-297.957930234687
738465.40142155275680124760,1.7909787285989,0.387737662892544,-297.911770989105
738465.40142164321150630713,1.75405133213294,0.360042115543077,-297.939466536454
738465.40142173366621136665,1.7909787285989,0.387737662892544,-297.948698385571
738465.40142182412091642618,1.83713797418134,0.443128757591479,-297.939466536454
738465.40142191445920616388,1.81867427594836,0.43389690847499,-297.874843592639
738465.40142200491391122341,1.88329721976379,0.480056154057436,-297.939466536454
738465.40142209536861628294,1.89252906888028,0.461592455824458,-297.902539139988
738465.40142218582332134247,1.85560167241432,0.424665059358501,-297.727134006775
738465.40142227627802640200,1.8740653706473,0.415433210242012,-297.865611743522
738465.40142236673273146152,1.88329721976379,0.43389690847499,-297.948698385571
738465.40142245707102119923,1.8740653706473,0.406201361125523,-297.957930234687
738465.40142254752572625875,1.85560167241432,0.369273964659566,-297.902539139988
738465.40142263798043131828,1.8740653706473,0.396969512009033,-297.948698385571
738465.40142272843513637781,1.7909787285989,0.304651020844142,-297.948698385571
738465.40142281888984143734,1.71712393566698,0.249259926145207,-297.948698385571
738465.40142290922813117504,1.73558763389996,0.258491775261696,-297.893307290872
738465.40142299968283623457,1.71712393566698,0.258491775261696,-297.81945249794
738465.40142309013754129410,1.76328318124943,0.276955473494675,-297.884075441755
738465.40142318059224635363,1.75405133213294,0.286187322611164,-297.930234687338
738465.40142327104695141315,1.70789208655049,0.230796227912229,-297.874843592639
738465.40142336150165647268,1.7909787285989,0.332346568193609,-297.902539139988
738465.40142345183994621038,1.73558763389996,0.258491775261696,-297.893307290872
738465.40142354229465126991,1.66173284096805,0.193868831446272,-297.911770989105
738465.40142363274935632944,1.65250099185156,0.175405133213294,-297.893307290872
738465.40142372320406138897,1.698660237434,0.22156437879574,-297.930234687338
738465.40142381365876644850,1.68942838831751,0.21233252967925,-297.967162083804
738465.40142390399705618620,1.68942838831751,0.22156437879574,-297.930234687338
738465.40142399445176124573,1.75405133213294,0.267723624378185,-297.921002838221
738465.40142408490646630526,1.75405133213294,0.258491775261696,-297.930234687338
738465.40142417536117136478,1.67096469008454,0.203100680562761,-297.97639393292
738465.40142426581587642431,1.73558763389996,0.258491775261696,-297.985625782037
738465.40142435627058148384,1.76328318124943,0.286187322611164,-297.985625782037
738465.40142444660887122154,1.75405133213294,0.267723624378185,-297.939466536454
738465.40142453706357628107,1.68942838831751,0.21233252967925,-297.967162083804
738465.40142462751828134060,1.63403729361858,0.166173284096805,-297.921002838221
738465.40142471797298640013,1.68019653920103,0.21233252967925,-297.948698385571
738465.40142480842769145966,1.67096469008454,0.203100680562761,-297.97639393292
738465.40142489888239651918,1.68019653920103,0.230796227912229,-297.930234687338
738465.40142498922068625689,1.68019653920103,0.22156437879574,-297.911770989105
738465.40142507967539131641,1.68942838831751,0.249259926145207,-297.97639393292
738465.40142517013009637594,1.698660237434,0.249259926145207,-297.948698385571
738465.40142526058480143547,1.68019653920103,0.21233252967925,-297.97639393292
738465.40142535103950649500,1.66173284096805,0.193868831446272,-297.967162083804
738465.40142544137779623270,1.68019653920103,0.203100680562761,-297.967162083804
738465.40142553183250129223,1.67096469008454,0.193868831446272,-297.97639393292
738465.40142562228720635176,1.72635578478347,0.267723624378185,-297.967162083804
738465.40142571274191141129,1.76328318124943,0.295419171727653,-297.736365855892
738465.40142580319661647081,1.80944242683187,0.341578417310099,-297.874843592639
738465.40142589365132153034,1.73558763389996,0.286187322611164,-297.97639393292
738465.40142598398961126804,1.698660237434,0.267723624378185,-297.902539139988
738465.40142607444431632757,1.68942838831751,0.249259926145207,-297.893307290872
738465.40142616489902138710,1.65250099185156,0.21233252967925,-297.893307290872
738465.40142625535372644663,1.66173284096805,0.22156437879574,-297.911770989105
738465.40142634580843150616,1.60634174626911,0.184636982329783,-297.884075441755
738465.40142643614672124386,1.60634174626911,0.193868831446272,-297.911770989105
738465.40142652660142630339,1.698660237434,0.258491775261696,-297.957930234687
738465.40142661705613136292,1.67096469008454,0.240028077028718,-297.97639393292
738465.40142670751083642244,1.55095065157018,0.129245887630848,-297.939466536454
738465.40142679796554148197,1.55095065157018,0.138477736747337,-298.013321329386
738465.40142688842024654150,1.57864619891964,0.166173284096805,-297.985625782037
738465.40142697875853627920,1.68942838831751,0.267723624378185,-297.930234687338
738465.40142706921324133873,1.68942838831751,0.286187322611164,-297.985625782037
738465.40142715966794639826,1.4494003112888,0.0738547929319132,-298.013321329386
738465.40142725012265145779,1.57864619891964,0.258491775261696,-297.893307290872
738465.40142734057735651731,1.9571520126957,0.793939024018067,-297.754829554125
738465.40142743103206157684,2.68646809289834,0.997039704580828,-297.671742912076
738465.40142752137035131454,3.00035096285897,0.923184911648915,-297.644047364727
738465.40142761182505637407,2.6403088473159,0.489288003173925,-297.791756950591
738465.40142770227976143360,2.13255714590899,0.156941434980316,-297.939466536454
738465.40142779273446649313,1.71712393566698,-0.0276955473494674,-298.041016876736
738465.40142788318917155266,1.60634174626911,0,-297.994857631153
738465.40142797352746129036,1.6155735953856,0.147709585863826,-297.97639393292
738465.40142806398216634989,1.58787804803613,0.166173284096805,-297.948698385571
738465.40142815443687140942,1.58787804803613,0.175405133213294,-297.957930234687
738465.40142824489157646894,1.58787804803613,0.184636982329783,-297.985625782037
738465.40142833534628152847,1.6155735953856,0.230796227912229,-297.985625782037
738465.40142842580098658800,1.60634174626911,0.240028077028718,-297.994857631153
738465.40142851613927632570,1.54171880245369,0.166173284096805,-297.994857631153
738465.40142860659398138523,1.57864619891964,0.22156437879574,-298.013321329386
738465.40142869704868644476,1.63403729361858,0.276955473494675,-297.967162083804
738465.40142878750339150429,1.54171880245369,0.184636982329783,-298.022553178503
738465.40142887795809656382,1.56941434980316,0.203100680562761,-297.985625782037
738465.40142896829638630152,1.62480544450209,0.276955473494675,-297.930234687338
738465.40142905875109136105,1.65250099185156,0.286187322611164,-297.957930234687
738465.40142914920579642057,1.60634174626911,0.249259926145207,-298.013321329386
738465.40142923966050148010,1.62480544450209,0.267723624378185,-297.773293252358
738465.40142933011520653963,1.71712393566698,0.387737662892544,-297.81945249794
738465.40142942056991159916,1.68942838831751,0.332346568193609,-297.874843592639
738465.40142951090820133686,1.67096469008454,0.32311471907712,-297.930234687338
738465.40142960136290639639,1.70789208655049,0.350810266426588,-297.911770989105
738465.40142969181761145592,1.73558763389996,0.396969512009033,-297.97639393292
738465.40142978227231651545,1.77251503036592,0.406201361125523,-297.911770989105
738465.40142987272702157497,1.78174687948241,0.406201361125523,-297.930234687338
738465.40142996318172663450,1.77251503036592,0.387737662892544,-297.948698385571
738465.40143005352001637220,1.80944242683187,0.396969512009033,-297.930234687338
738465.40143014397472143173,1.80021057771538,0.378505813776055,-297.921002838221
738465.40143023442942649126,1.7909787285989,0.360042115543077,-297.948698385571
738465.40143032488413155079,1.75405133213294,0.332346568193609,-297.97639393292
738465.40143041533883661032,1.74481948301645,0.304651020844142,-297.948698385571
738465.40143050567712634802,1.698660237434,0.295419171727653,-297.967162083804
738465.40143059613183140755,1.698660237434,0.295419171727653,-297.994857631153
738465.40143068658653646708,1.70789208655049,0.304651020844142,-297.97639393292
738465.40143077704124152660,1.62480544450209,0.21233252967925,-297.893307290872
738465.40143086749594658613,1.6155735953856,0.22156437879574,-297.948698385571
738465.40143095795065164566,1.56941434980316,0.184636982329783,-297.930234687338
738465.40143104828894138336,1.57864619891964,0.184636982329783,-297.911770989105
738465.40143113874364644289,1.55095065157018,0.166173284096805,-297.967162083804
738465.40143122919835150242,1.68942838831751,0.295419171727653,-297.994857631153
738465.40143131965305656195,1.68019653920103,0.267723624378185,-297.985625782037
738465.40143141010776162148,1.56941434980316,0.156941434980316,-297.985625782037
738465.40143150044605135918,1.56941434980316,0.166173284096805,-297.939466536454
738465.40143159090075641870,1.66173284096805,0.249259926145207,-297.948698385571
738465.40143168135546147823,1.62480544450209,0.203100680562761,-297.957930234687
738465.40143177181016653776,1.59710989715262,0.175405133213294,-297.985625782037
738465.40143186226487159729,1.6155735953856,0.21233252967925,-297.967162083804
738465.40143195271957665682,1.62480544450209,0.240028077028718,-297.948698385571
738465.40143204305786639452,1.59710989715262,0.193868831446272,-298.013321329386
738465.40143213351257145405,1.55095065157018,0.147709585863826,-297.957930234687
738465.40143222396727651358,1.57864619891964,0.175405133213294,-297.994857631153
738465.40143231442198157310,1.63403729361858,0.230796227912229,-297.939466536454
738465.40143240487668663263,1.66173284096805,0.267723624378185,-297.994857631153
738465.40143249533139169216,1.63403729361858,0.230796227912229,-297.97639393292
738465.40143258566968142986,1.59710989715262,0.21233252967925,-297.967162083804
738465.40143267612438648939,1.57864619891964,0.203100680562761,-297.97639393292
738465.40143276657909154892,1.56018250068667,0.175405133213294,-297.921002838221
738465.40143285703379660845,1.55095065157018,0.156941434980316,-297.902539139988
738465.40143294748850166798,1.56018250068667,0.166173284096805,-297.97639393292
738465.40143303782679140568,1.6155735953856,0.230796227912229,-298.00408948027
738465.40143312828149646521,1.6155735953856,0.21233252967925,-298.022553178503
738465.40143321873620152473,1.59710989715262,0.203100680562761,-297.939466536454
738465.40143330919090658426,1.62480544450209,0.193868831446272,-298.022553178503
738465.40143339964561164379,1.62480544450209,0.21233252967925,-297.97639393292
738465.40143349010031670332,1.6155735953856,0.203100680562761,-297.948698385571
738465.40143358043860644102,1.66173284096805,0.258491775261696,-297.97639393292
738465.40143367089331150055,1.66173284096805,0.22156437879574,-297.939466536454
738465.40143376134801656008,1.66173284096805,0.258491775261696,-297.957930234687
738465.40143385180272161961,1.64326914273507,0.258491775261696,-297.957930234687
738465.40143394225742667913,1.68019653920103,0.295419171727653,-298.013321329386
738465.40143403259571641684,1.60634174626911,0.249259926145207,-298.013321329386
738465.40143412305042147636,1.54171880245369,0.147709585863826,-297.985625782037
738465.40143421350512653589,1.55095065157018,0.175405133213294,-298.013321329386
738465.40143430395983159542,1.54171880245369,0.166173284096805,-297.948698385571
738465.40143439441453665495,1.52325510422071,0.156941434980316,-297.921002838221
738465.40143448486924171448,1.48632770775475,0.11078218939787,-297.939466536454
738465.40143457520753145218,1.49555955687124,0.129245887630848,-297.957930234687
738465.40143466566223651171,1.55095065157018,0.175405133213294,-297.911770989105
738465.40143475611694157124,1.52325510422071,0.156941434980316,-298.013321329386
738465.40143484657164663076,1.50479140598773,0.129245887630848,-298.022553178503
738465.40143493702635169029,1.47709585863826,0.11078218939787,-298.059480574969
738465.40143502748105674982,1.46786400952177,0.156941434980316,-297.994857631153
738465.40143511781934648752,1.67096469008454,0.378505813776055,-297.985625782037
738465.40143520827405154705,1.89252906888028,0.692388683736686,-297.81945249794
738465.40143529872875660658,2.67723624378185,0.923184911648915,-297.671742912076
738465.40143538918346166611,3.01881466109195,0.821634571367534,-297.699438459426
738465.40143547963816672564,2.62184514908292,0.406201361125523,-297.874843592639
738465.40143556997645646334,1.99407940916166,0.0461592455824458,-297.921002838221
738465.40143566043116152287,1.64326914273507,-0.064622943815424,-298.050248725852
738465.40143575088586658239,1.59710989715262,0,-298.087176122318
738465.40143584134057164192,1.68019653920103,0.156941434980316,-298.031785027619
738465.40143593179527670145,1.55095065157018,0.129245887630848,-298.068712424085
738465.40143602224998176098,1.51402325510422,0.120014038514359,-298.031785027619
738465.40143611258827149868,1.49555955687124,0.129245887630848,-298.022553178503
738465.40143620304297655821,1.51402325510422,0.156941434980316,-298.031785027619
738465.40143629349768161774,1.56018250068667,0.203100680562761,-297.957930234687
738465.40143638395238667727,1.55095065157018,0.184636982329783,-297.874843592639
738465.40143647440709173679,1.52325510422071,0.166173284096805,-298.022553178503
738465.40143656474538147449,1.54171880245369,0.184636982329783,-297.948698385571
738465.40143665520008653402,1.57864619891964,0.22156437879574,-297.939466536454
738465.40143674565479159355,1.60634174626911,0.249259926145207,-297.939466536454
738465.40143683610949665308,1.58787804803613,0.22156437879574,-297.957930234687
738465.40143692656420171261,1.55095065157018,0.193868831446272,-297.939466536454
738465.40143701701890677214,1.56018250068667,0.203100680562761,-297.948698385571
738465.40143710735719650984,1.63403729361858,0.276955473494675,-297.921002838221
738465.40143719781190156937,1.66173284096805,0.295419171727653,-297.939466536454
738465.40143728826660662889,1.67096469008454,0.313882869960631,-297.939466536454
738465.40143737872131168842,1.70789208655049,0.341578417310099,-297.948698385571
738465.40143746917601674795,1.68019653920103,0.332346568193609,-297.930234687338
738465.40143755963072180748,1.71712393566698,0.332346568193609,-297.97639393292
738465.40143764996901154518,1.72635578478347,0.350810266426588,-297.97639393292
738465.40143774042371660471,1.74481948301645,0.350810266426588,-297.893307290872
738465.40143783087842166424,1.82790612506485,0.424665059358501,-297.902539139988
738465.40143792133312672377,1.80021057771538,0.369273964659566,-297.921002838221
738465.40143801178783178329,1.7909787285989,0.341578417310099,-297.967162083804
738465.40143810212612152100,1.83713797418134,0.387737662892544,-297.893307290872
738465.40143819258082658052,1.76328318124943,0.304651020844142,-297.893307290872
738465.40143828303553164005,1.66173284096805,0.230796227912229,-297.893307290872
738465.40143837349023669958,1.66173284096805,0.22156437879574,-297.921002838221
738465.40143846394494175911,1.71712393566698,0.286187322611164,-297.911770989105
738465.40143855439964681864,1.64326914273507,0.203100680562761,-297.939466536454
738465.40143864473793655634,1.58787804803613,0.166173284096805,-298.031785027619
738465.40143873519264161587,1.60634174626911,0.166173284096805,-298.022553178503
738465.40143882564734667540,1.60634174626911,0.166173284096805,-297.939466536454
738465.40143891610205173492,1.66173284096805,0.230796227912229,-298.00408948027
738465.40143900655675679445,1.62480544450209,0.203100680562761,-298.022553178503
738465.40143909689504653215,1.68019653920103,0.249259926145207,-297.97639393292
738465.40143918734975159168,1.56941434980316,0.138477736747337,-298.013321329386
738465.40143927780445665121,1.57864619891964,0.129245887630848,-298.00408948027
738465.40143936825916171074,1.62480544450209,0.184636982329783,-298.022553178503
738465.40143945871386677027,1.72635578478347,0.267723624378185,-297.957930234687
738465.40143954916857182980,1.68942838831751,0.240028077028718,-298.022553178503
738465.40143963950686156750,1.56941434980316,0.138477736747337,-298.013321329386
738465.40143972996156662703,1.60634174626911,0.166173284096805,-297.994857631153
738465.40143982041627168655,1.60634174626911,0.156941434980316,-297.957930234687
738465.40143991087097674608,1.64326914273507,0.175405133213294,-297.902539139988
738465.40144000132568180561,1.64326914273507,0.193868831446272,-297.994857631153
738465.40144009178038686514,1.62480544450209,0.184636982329783,-297.97639393292
738465.40144018211867660284,1.65250099185156,0.21233252967925,-298.022553178503
738465.40144027257338166237,1.65250099185156,0.203100680562761,-297.911770989105
738465.40144036302808672190,1.6155735953856,0.175405133213294,-297.957930234687
738465.40144045348279178143,1.6155735953856,0.184636982329783,-297.921002838221
738465.40144054393749684095,1.65250099185156,0.22156437879574,-297.939466536454
738465.40144063427578657866,1.62480544450209,0.175405133213294,-297.939466536454
738465.40144072473049163818,1.6155735953856,0.184636982329783,-297.985625782037
738465.40144081518519669771,1.57864619891964,0.129245887630848,-297.957930234687
738465.40144090563990175724,1.54171880245369,0.0923184911648915,-298.00408948027
738465.40144099609460681677,1.60634174626911,0.175405133213294,-297.967162083804
738465.40144108654931187630,1.58787804803613,0.147709585863826,-298.022553178503
738465.40144117688760161400,1.6155735953856,0.184636982329783,-298.022553178503
738465.40144126734230667353,1.64326914273507,0.193868831446272,-297.957930234687
738465.40144135779701173306,1.59710989715262,0.11078218939787,-297.957930234687
738465.40144144825171679258,1.6155735953856,0.129245887630848,-297.967162083804
738465.40144153870642185211,1.68942838831751,0.21233252967925,-297.97639393292
738465.40144162904471158981,1.73558763389996,0.258491775261696,-297.948698385571
738465.40144171949941664934,1.62480544450209,0.138477736747337,-297.967162083804
738465.40144180995412170887,1.68942838831751,0.193868831446272,-297.957930234687
738465.40144190040882676840,1.698660237434,0.240028077028718,-298.013321329386
738465.40144199086353182793,1.60634174626911,0.156941434980316,-298.00408948027
738465.40144208131823688745,1.56941434980316,0.147709585863826,-297.930234687338
738465.40144217165652662516,1.59710989715262,0.156941434980316,-297.985625782037
738465.40144226211123168468,1.54171880245369,0.11078218939787,-298.031785027619
738465.40144235256593674421,1.62480544450209,0.193868831446272,-297.985625782037
738465.40144244302064180374,1.5324869533372,0.101550340281381,-298.031785027619
738465.40144253347534686327,1.6155735953856,0.175405133213294,-298.013321329386
738465.40144262381363660097,1.62480544450209,0.184636982329783,-298.022553178503
738465.40144271426834166050,1.5324869533372,0.0830866420484024,-297.967162083804
738465.40144280472304672003,1.57864619891964,0.138477736747337,-298.041016876736
738465.40144289517775177956,1.56941434980316,0.138477736747337,-298.022553178503
738465.40144298563245683908,1.4494003112888,0.0461592455824458,-297.967162083804
738465.40144307608716189861,1.55095065157018,0.147709585863826,-298.013321329386
738465.40144316642545163631,1.67096469008454,0.443128757591479,-297.921002838221
738465.40144325688015669584,2.17871639149144,0.710852381969665,-297.884075441755
738465.40144334733486175537,2.62184514908292,0.812402722251045,-297.671742912076
738465.40144343778956681490,3.07420575579089,0.821634571367534,-297.560960722678
738465.40144352824427187443,2.71416364024781,0.406201361125523,-297.773293252358
738465.40144361869897693396,2.14178899502548,0.0923184911648915,-297.967162083804
738465.40144370903726667166,1.70789208655049,-0.101550340281381,-298.013321329386
738465.40144379949197173119,1.62480544450209,-0.00923184911648915,-298.031785027619
738465.40144388994667679071,1.698660237434,0.175405133213294,-297.939466536454
738465.40144398040138185024,1.66173284096805,0.175405133213294,-297.967162083804
738465.40144407085608690977,1.54171880245369,0.0830866420484024,-297.994857631153
738465.40144416119437664747,1.59710989715262,0.166173284096805,-297.994857631153
738465.40144425164908170700,1.47709585863826,0.0369273964659566,-298.00408948027
738465.40144434210378676653,1.58787804803613,0.147709585863826,-298.041016876736
738465.40144443255849182606,1.63403729361858,0.21233252967925,-298.041016876736
738465.40144452301319688559,1.63403729361858,0.21233252967925,-297.97639393292
738465.40144461346790194511,1.54171880245369,0.120014038514359,-298.00408948027
738465.40144470380619168282,1.56941434980316,0.138477736747337,-298.031785027619
738465.40144479426089674234,1.66173284096805,0.240028077028718,-297.939466536454
738465.40144488471560180187,1.6155735953856,0.175405133213294,-298.00408948027
738465.40144497517030686140,1.60634174626911,0.175405133213294,-297.921002838221
738465.40144506562501192093,1.6155735953856,0.175405133213294,-297.921002838221
738465.40144515596330165863,1.67096469008454,0.240028077028718,-297.930234687338
738465.40144524641800671816,1.68019653920103,0.240028077028718,-297.930234687338
738465.40144533687271177769,1.68942838831751,0.258491775261696,-297.948698385571
738465.40144542732741683722,1.70789208655049,0.276955473494675,-297.902539139988
738465.40144551778212189674,1.75405133213294,0.313882869960631,-297.902539139988
738465.40144560823682695627,1.86483352153081,0.43389690847499,-297.921002838221
738465.40144569857511669397,1.7909787285989,0.332346568193609,-297.939466536454
738465.40144578902982175350,1.82790612506485,0.369273964659566,-297.921002838221
738465.40144587948452681303,1.86483352153081,0.387737662892544,-297.911770989105
738465.40144596993923187256,1.84636982329783,0.350810266426588,-297.930234687338
738465.40144606039393693209,1.78174687948241,0.258491775261696,-297.939466536454
738465.40144615084864199162,1.7909787285989,0.286187322611164,-297.939466536454
738465.40144624118693172932,1.74481948301645,0.22156437879574,-297.930234687338
738465.40144633164163678885,1.73558763389996,0.203100680562761,-297.957930234687
738465.40144642209634184837,1.80021057771538,0.258491775261696,-297.939466536454
738465.40144651255104690790,1.66173284096805,0.156941434980316,-297.994857631153
738465.40144660300575196743,1.65250099185156,0.147709585863826,-298.013321329386
738465.40144669334404170513,1.76328318124943,0.258491775261696,-298.022553178503
738465.40144678379874676466,1.6155735953856,0.11078218939787,-298.013321329386
738465.40144687425345182419,1.59710989715262,0.101550340281381,-297.800988799707
738465.40144696470815688372,1.64326914273507,0.138477736747337,-297.957930234687
738465.40144705516286194324,1.65250099185156,0.147709585863826,-298.013321329386
738465.40144714561756700277,1.63403729361858,0.129245887630848,-298.022553178503
738465.40144723595585674047,1.66173284096805,0.147709585863826,-297.948698385571
738465.40144732641056180000,1.70789208655049,0.203100680562761,-298.031785027619
738465.40144741686526685953,1.65250099185156,0.138477736747337,-298.013321329386
738465.40144750731997191906,1.66173284096805,0.138477736747337,-297.97639393292
738465.40144759777467697859,1.80944242683187,0.286187322611164,-298.013321329386
738465.40144768811296671629,1.62480544450209,0.11078218939787,-298.00408948027
738465.40144777856767177582,1.58787804803613,0.0461592455824458,-298.013321329386
738465.40144786902237683535,1.698660237434,0.175405133213294,-298.00408948027
738465.40144795947708189487,1.72635578478347,0.21233252967925,-298.00408948027
738465.40144804993178695440,1.698660237434,0.175405133213294,-298.050248725852
738465.40144814038649201393,1.62480544450209,0.0923184911648915,-297.948698385571
738465.40144823072478175163,1.57864619891964,0.064622943815424,-298.059480574969
738465.40144832117948681116,1.71712393566698,0.193868831446272,-297.948698385571
738465.40144841163419187069,1.6155735953856,0.0923184911648915,-297.921002838221
738465.40144850208889693022,1.62480544450209,0.0923184911648915,-297.957930234687
738465.40144859254360198975,1.64326914273507,0.129245887630848,-297.97639393292
738465.40144868299830704927,1.72635578478347,0.22156437879574,-297.911770989105
738465.40144877333659678698,1.64326914273507,0.129245887630848,-297.985625782037
738465.40144886379130184650,1.56018250068667,0.0461592455824458,-298.022553178503
738465.40144895424600690603,1.66173284096805,0.156941434980316,-298.031785027619
738465.40144904470071196556,1.70789208655049,0.193868831446272,-297.957930234687
738465.40144913515541702509,1.68019653920103,0.156941434980316,-298.022553178503
738465.40144922549370676279,1.54171880245369,0.0184636982329783,-298.059480574969
738465.40144931594841182232,1.62480544450209,0.101550340281381,-298.00408948027
738465.40144940640311688185,1.68942838831751,0.175405133213294,-298.022553178503
738465.40144949685782194138,1.62480544450209,0.0923184911648915,-297.985625782037
738465.40144958731252700090,1.65250099185156,0.129245887630848,-297.985625782037
738465.40144967776723206043,1.68942838831751,0.138477736747337,-297.948698385571
738465.40144976810552179813,1.71712393566698,0.175405133213294,-297.985625782037
738465.40144985856022685766,1.76328318124943,0.21233252967925,-297.948698385571
738465.40144994901493191719,1.76328318124943,0.21233252967925,-298.022553178503
738465.40145003946963697672,1.68942838831751,0.138477736747337,-297.939466536454
738465.40145012992434203625,1.67096469008454,0.156941434980316,-297.985625782037
738465.40145022026263177395,1.698660237434,0.175405133213294,-297.911770989105
738465.40145031071733683348,1.64326914273507,0.129245887630848,-297.985625782037
738465.40145040117204189301,1.60634174626911,0.0923184911648915,-297.81945249794
738465.40145049162674695253,1.58787804803613,0.0553910946989349,-297.939466536454
738465.40145058208145201206,1.66173284096805,0.138477736747337,-298.041016876736
738465.40145067253615707159,1.64326914273507,0.11078218939787,-298.031785027619
738465.40145076287444680929,1.58787804803613,0.064622943815424,-298.050248725852
738465.40145085332915186882,1.5324869533372,0,-298.041016876736
738465.40145094378385692835,1.56941434980316,0.0369273964659566,-298.022553178503
738465.40145103423856198788,1.62480544450209,0.0923184911648915,-298.041016876736
738465.40145112469326704741,1.698660237434,0.147709585863826,-298.077944273202
738465.40145121514797210693,1.58787804803613,0.0461592455824458,-297.957930234687
738465.40145130548626184464,1.56941434980316,0.11078218939787,-298.041016876736
738465.40145139594096690416,1.66173284096805,0.193868831446272,-298.050248725852
738465.40145148639567196369,1.86483352153081,0.553910946989349,-297.874843592639
738465.40145157685037702322,2.53875850703452,0.729316080202643,-297.800988799707
738465.40145166730508208275,3.13882869960631,0.793939024018067,-297.754829554125
738465.40145175764337182045,2.82494582964568,0.369273964659566,-297.884075441755
738465.40145184809807687998,2.20641193884091,0.00923184911648915,-297.985625782037
738465.40145193855278193951,1.76328318124943,-0.203100680562761,-298.133335367901
738465.40145202900748699903,1.67096469008454,-0.0830866420484024,-298.124103518784
738465.40145211946219205856,1.698660237434,0.0738547929319132,-297.985625782037
738465.40145220991689711809,1.73558763389996,0.147709585863826,-298.050248725852
738465.40145230025518685579,1.56941434980316,0.0276955473494674,-298.096407971435
738465.40145239070989191532,1.56941434980316,0.0276955473494674,-298.059480574969
738465.40145248116459697485,1.58787804803613,0.0553910946989349,-298.031785027619
738465.40145257161930203438,1.60634174626911,0.0830866420484024,-298.031785027619
738465.40145266207400709391,1.63403729361858,0.120014038514359,-298.059480574969
738465.40145275241229683161,1.63403729361858,0.101550340281381,-298.022553178503
738465.40145284286700189114,1.63403729361858,0.11078218939787,-298.031785027619
738465.40145293332170695066,1.65250099185156,0.138477736747337,-298.031785027619
738465.40145302377641201019,1.64326914273507,0.120014038514359,-298.059480574969
738465.40145311423111706972,1.698660237434,0.184636982329783,-297.967162083804
738465.40145320468582212925,1.71712393566698,0.184636982329783,-298.013321329386
738465.40145329502411186695,1.71712393566698,0.193868831446272,-298.041016876736
738465.40145338547881692648,1.76328318124943,0.230796227912229,-297.948698385571
738465.40145347593352198601,1.78174687948241,0.267723624378185,-297.994857631153
738465.40145356638822704554,1.83713797418134,0.313882869960631,-298.013321329386
738465.40145365684293210506,1.698660237434,0.193868831446272,-297.939466536454
738465.40145374729763716459,1.80021057771538,0.276955473494675,-297.911770989105
738465.40145383763592690229,1.80021057771538,0.295419171727653,-297.939466536454
738465.40145392809063196182,1.91099276711325,0.378505813776055,-297.773293252358
738465.40145401854533702135,1.84636982329783,0.304651020844142,-297.884075441755
738465.40145410900004208088,1.83713797418134,0.276955473494675,-297.902539139988
738465.40145419945474714041,1.89252906888028,0.32311471907712,-297.948698385571
738465.40145428979303687811,1.82790612506485,0.230796227912229,-297.893307290872
738465.40145438024774193764,1.93868831446272,0.350810266426588,-297.939466536454
738465.40145447070244699717,1.85560167241432,0.258491775261696,-297.994857631153
738465.40145456115715205669,1.73558763389996,0.138477736747337,-297.994857631153
738465.40145465161185711622,1.74481948301645,0.147709585863826,-297.957930234687
738465.40145474206656217575,1.76328318124943,0.175405133213294,-297.948698385571
738465.40145483240485191345,1.68942838831751,0.11078218939787,-297.994857631153
738465.40145492285955697298,1.71712393566698,0.129245887630848,-298.00408948027
738465.40145501331426203251,1.80021057771538,0.22156437879574,-298.013321329386
738465.40145510376896709204,1.75405133213294,0.166173284096805,-298.050248725852
738465.40145519422367215157,1.64326914273507,0.0553910946989349,-298.096407971435
738465.40145528456196188927,1.63403729361858,0.0461592455824458,-297.97639393292
738465.40145537501666694880,1.66173284096805,0.064622943815424,-298.059480574969
738465.40145546547137200832,1.66173284096805,0.064622943815424,-298.059480574969
738465.40145555592607706785,1.68019653920103,0.0830866420484024,-298.013321329386
738465.40145564638078212738,1.71712393566698,0.11078218939787,-298.013321329386
738465.40145573683548718691,1.77251503036592,0.166173284096805,-298.068712424085
738465.40145582717377692461,1.7909787285989,0.184636982329783,-298.031785027619
738465.40145591762848198414,1.64326914273507,0.0369273964659566,-298.087176122318
738465.40145600808318704367,1.68942838831751,0.0830866420484024,-298.077944273202
738465.40145609853789210320,1.7909787285989,0.166173284096805,-298.068712424085
738465.40145618899259716272,1.698660237434,0.0923184911648915,-298.022553178503
738465.40145627944730222225,1.68019653920103,0.0738547929319132,-298.068712424085
738465.40145636978559195995,1.70789208655049,0.101550340281381,-298.041016876736
738465.40145646024029701948,1.72635578478347,0.11078218939787,-298.050248725852
738465.40145655069500207901,1.70789208655049,0.0923184911648915,-298.050248725852
738465.40145664114970713854,1.66173284096805,0.0369273964659566,-298.050248725852
738465.40145673160441219807,1.71712393566698,0.101550340281381,-298.059480574969
738465.40145682194270193577,1.67096469008454,0.0553910946989349,-298.022553178503
738465.40145691239740699530,1.698660237434,0.0923184911648915,-298.087176122318
738465.40145700285211205482,1.65250099185156,0.0461592455824458,-298.050248725852
738465.40145709330681711435,1.68019653920103,0.0738547929319132,-298.068712424085
738465.40145718376152217388,1.70789208655049,0.101550340281381,-298.059480574969
738465.40145727421622723341,1.76328318124943,0.147709585863826,-297.967162083804
738465.40145736455451697111,1.68942838831751,0.0830866420484024,-297.957930234687
738465.40145745500922203064,1.62480544450209,0.0184636982329783,-297.865611743522
738465.40145754546392709017,1.65250099185156,0.0369273964659566,-297.865611743522
738465.40145763591863214970,1.80021057771538,0.175405133213294,-297.948698385571
738465.40145772637333720922,1.68942838831751,0.0738547929319132,-297.967162083804
738465.40145781671162694693,1.65250099185156,0.0276955473494674,-298.00408948027
738465.40145790716633200645,1.68942838831751,0.0738547929319132,-298.041016876736
738465.40145799762103706598,1.80021057771538,0.166173284096805,-298.031785027619
738465.40145808807574212551,1.73558763389996,0.11078218939787,-298.050248725852
738465.40145817853044718504,1.74481948301645,0.11078218939787,-298.050248725852
738465.40145826898515224457,1.86483352153081,0.230796227912229,-298.00408948027
738465.40145835932344198227,1.76328318124943,0.11078218939787,-297.948698385571
738465.40145844977814704180,1.70789208655049,0.11078218939787,-297.985625782037
738465.40145854023285210133,1.70789208655049,0.101550340281381,-297.967162083804
738465.40145863068755716085,1.74481948301645,0.129245887630848,-298.00408948027
738465.40145872114226222038,1.70789208655049,0.101550340281381,-297.97639393292
738465.40145881148055195808,1.71712393566698,0.101550340281381,-298.050248725852
738465.40145890193525701761,1.66173284096805,0.0553910946989349,-298.013321329386
738465.40145899238996207714,1.64326914273507,0.0276955473494674,-298.00408948027
738465.40145908284466713667,1.68019653920103,0.0553910946989349,-298.031785027619
738465.40145917329937219620,1.68019653920103,0.0369273964659566,-298.00408948027
738465.40145926375407725573,1.62480544450209,-0.00923184911648915,-298.013321329386
738465.40145935409236699343,1.65250099185156,0.0276955473494674,-298.059480574969
738465.40145944454707205296,1.68019653920103,0.0553910946989349,-298.068712424085
738465.40145953500177711248,1.71712393566698,0.0923184911648915,-298.022553178503
738465.40145962545648217201,1.60634174626911,0.0461592455824458,-298.114871669668
738465.40145971591118723154,1.66173284096805,0.11078218939787,-298.031785027619
738465.40145980636589229107,1.93868831446272,0.563142796105838,-297.948698385571
738465.40145989670418202877,2.63107699819941,0.710852381969665,-297.791756950591
738465.40145998715888708830,3.10190130314035,0.683156834620197,-297.800988799707
738465.40146007761359214783,2.81571398052919,0.313882869960631,-297.874843592639
738465.40146016806829720736,2.15102084414197,-0.129245887630848,-298.022553178503
738465.40146025852300226688,1.81867427594836,-0.230796227912229,-298.151799066134
738465.40146034886129200459,1.82790612506485,-0.00923184911648915,-298.151799066134
738465.40146043931599706411,1.7909787285989,0.0461592455824458,-298.114871669668
738465.40146052977070212364,1.71712393566698,0.0276955473494674,-298.050248725852
738465.40146062022540718317,1.64326914273507,0,-298.087176122318
738465.40146071068011224270,1.6155735953856,-0.0184636982329783,-298.041016876736
738465.40146080113481730223,1.67096469008454,0.0553910946989349,-298.041016876736
738465.40146089147310703993,1.70789208655049,0.0830866420484024,-298.077944273202
738465.40146098192781209946,1.63403729361858,0.0276955473494674,-298.013321329386
738465.40146107238251715899,1.68019653920103,0.064622943815424,-297.865611743522
738465.40146116283722221851,1.698660237434,0.0923184911648915,-298.041016876736
738465.40146125329192727804,1.65250099185156,0.0461592455824458,-298.031785027619
738465.40146134363021701574,1.66173284096805,0.064622943815424,-297.985625782037
738465.40146143408492207527,1.698660237434,0.0923184911648915,-297.967162083804
738465.40146152453962713480,1.73558763389996,0.156941434980316,-297.957930234687
738465.40146161499433219433,1.71712393566698,0.138477736747337,-297.921002838221
738465.40146170544903725386,1.72635578478347,0.147709585863826,-297.967162083804
738465.40146179590374231339,1.7909787285989,0.193868831446272,-297.902539139988
738465.40146188624203205109,1.80021057771538,0.21233252967925,-297.939466536454
738465.40146197669673711061,1.84636982329783,0.267723624378185,-297.957930234687
738465.40146206715144217014,1.85560167241432,0.276955473494675,-297.967162083804
738465.40146215760614722967,1.86483352153081,0.286187322611164,-297.957930234687
738465.40146224806085228920,1.88329721976379,0.286187322611164,-297.874843592639
738465.40146233851555734873,1.86483352153081,0.276955473494675,-297.948698385571
738465.40146242885384708643,1.86483352153081,0.258491775261696,-297.957930234687
738465.40146251930855214596,1.92945646534623,0.304651020844142,-297.957930234687
738465.40146260976325720549,1.93868831446272,0.295419171727653,-297.930234687338
738465.40146270021796226501,1.92945646534623,0.286187322611164,-297.994857631153
738465.40146279067266732454,1.91099276711325,0.249259926145207,-297.994857631153
738465.40146288101095706224,1.83713797418134,0.175405133213294,-298.059480574969
738465.40146297146566212177,1.81867427594836,0.166173284096805,-298.050248725852
738465.40146306192036718130,1.77251503036592,0.120014038514359,-297.994857631153
738465.40146315237507224083,1.74481948301645,0.101550340281381,-297.97639393292
738465.40146324282977730036,1.73558763389996,0.0923184911648915,-298.00408948027
738465.40146333328448235989,1.73558763389996,0.101550340281381,-298.022553178503
738465.40146342362277209759,1.76328318124943,0.101550340281381,-298.041016876736
738465.40146351407747715712,1.80944242683187,0.156941434980316,-298.087176122318
738465.40146360453218221664,1.72635578478347,0.0738547929319132,-298.077944273202
738465.40146369498688727617,1.698660237434,0.064622943815424,-297.97639393292
738465.40146378544159233570,1.66173284096805,0.0184636982329783,-298.041016876736
738465.40146387577988207340,1.698660237434,0.0553910946989349,-298.087176122318
738465.40146396623458713293,1.75405133213294,0.0830866420484024,-298.031785027619
738465.40146405668929219246,1.70789208655049,0.0553910946989349,-298.050248725852
738465.40146414714399725199,1.72635578478347,0.064622943815424,-298.068712424085
738465.40146423759870231152,1.72635578478347,0.064622943815424,-298.050248725852
738465.40146432805340737104,1.76328318124943,0.11078218939787,-297.97639393292
738465.40146441839169710875,1.73558763389996,0.064622943815424,-298.022553178503
738465.40146450884640216827,1.74481948301645,0.0923184911648915,-297.911770989105
738465.40146459930110722780,1.75405133213294,0.0923184911648915,-297.865611743522
738465.40146468975581228733,1.68942838831751,0.0461592455824458,-297.97639393292
738465.40146478021051734686,1.76328318124943,0.101550340281381,-297.97639393292
738465.40146487066522240639,1.71712393566698,0.0553910946989349,-298.022553178503
738465.40146496100351214409,1.74481948301645,0.0830866420484024,-298.00408948027
738465.40146505145821720362,1.66173284096805,0.0276955473494674,-298.041016876736
738465.40146514191292226315,1.70789208655049,0.0553910946989349,-298.059480574969
738465.40146523236762732267,1.66173284096805,0.0184636982329783,-298.059480574969
738465.40146532282233238220,1.68019653920103,0.0276955473494674,-297.994857631153
738465.40146541316062211990,1.68942838831751,0.0553910946989349,-298.077944273202
738465.40146550361532717943,1.68942838831751,0.0461592455824458,-298.041016876736
738465.40146559407003223896,1.65250099185156,0.0276955473494674,-297.985625782037
738465.40146568452473729849,1.66173284096805,0.0276955473494674,-298.031785027619
738465.40146577497944235802,1.67096469008454,0.0461592455824458,-298.041016876736
738465.40146586543414741755,1.68019653920103,0.0369273964659566,-297.967162083804
738465.40146595577243715525,1.68019653920103,0.0461592455824458,-298.096407971435
738465.40146604622714221478,1.78174687948241,0.138477736747337,-298.050248725852
738465.40146613668184727430,1.81867427594836,0.175405133213294,-298.050248725852
738465.40146622713655233383,1.68019653920103,0.0369273964659566,-298.00408948027
738465.40146631759125739336,1.67096469008454,0.0184636982329783,-298.031785027619
738465.40146640792954713106,1.71712393566698,0.064622943815424,-298.077944273202
738465.40146649838425219059,1.74481948301645,0.0830866420484024,-298.013321329386
738465.40146658883895725012,1.80944242683187,0.138477736747337,-298.013321329386
738465.40146667929366230965,1.76328318124943,0.0923184911648915,-298.041016876736
738465.40146676974836736917,1.75405133213294,0.120014038514359,-298.041016876736
738465.40146686020307242870,1.72635578478347,0.0830866420484024,-297.985625782037
738465.40146695054136216640,1.73558763389996,0.120014038514359,-298.00408948027
738465.40146704099606722593,1.78174687948241,0.156941434980316,-297.967162083804
738465.40146713145077228546,1.74481948301645,0.11078218939787,-297.985625782037
738465.40146722190547734499,1.59710989715262,-0.0184636982329783,-297.994857631153
738465.40146731236018240452,1.58787804803613,-0.0276955473494674,-298.031785027619
738465.40146740281488746405,1.62480544450209,0.00923184911648915,-297.967162083804
738465.40146749315317720175,1.63403729361858,0,-297.994857631153
738465.40146758360788226128,1.62480544450209,0.00923184911648915,-298.013321329386
738465.40146767406258732080,1.66173284096805,0.0276955473494674,-298.050248725852
738465.40146776451729238033,1.63403729361858,0.00923184911648915,-298.031785027619
738465.40146785497199743986,1.63403729361858,0.0369273964659566,-298.087176122318
738465.40146794531028717756,1.62480544450209,0.064622943815424,-298.096407971435
738465.40146803576499223709,1.698660237434,0.129245887630848,-298.022553178503
738465.40146812621969729662,1.86483352153081,0.526215399639882,-297.782525101474
738465.40146821667440235615,2.47413556321909,0.729316080202643,-297.727134006775
738465.40146830712910741568,3.12036500137333,0.86779381694998,-297.680974761193
738465.40146839758381247520,2.91726432081057,0.470824304940947,-297.764061403241
738465.40146848792210221291,2.27103488265633,0.0184636982329783,-297.97639393292
738465.40146857837680727243,2.03100680562761,-0.0276955473494674,-298.096407971435
738465.40146866883151233196,1.68019653920103,-0.147709585863826,-298.151799066134
738465.40146875928621739149,1.6155735953856,-0.101550340281381,-297.985625782037
738465.40146884974092245102,1.62480544450209,-0.0184636982329783,-298.068712424085
738465.40146894007921218872,1.64326914273507,0.0276955473494674,-298.077944273202
738465.40146903053391724825,1.64326914273507,0.0553910946989349,-298.077944273202
738465.40146912098862230778,1.59710989715262,0.00923184911648915,-298.022553178503
738465.40146921144332736731,1.63403729361858,0.0369273964659566,-298.077944273202
738465.40146930189803242683,1.67096469008454,0.0830866420484024,-298.068712424085
738465.40146939235273748636,1.83713797418134,0.249259926145207,-297.967162083804
738465.40146948269102722406,1.67096469008454,0.0923184911648915,-298.059480574969
738465.40146957314573228359,1.57864619891964,0,-298.059480574969
738465.40146966360043734312,1.56018250068667,0,-298.087176122318
738465.40146975405514240265,1.63403729361858,0.0461592455824458,-298.077944273202
738465.40146984450984746218,1.70789208655049,0.138477736747337,-298.087176122318
738465.40146993496455252171,1.77251503036592,0.193868831446272,-298.031785027619
738465.40147002530284225941,1.72635578478347,0.147709585863826,-297.97639393292
738465.40147011575754731894,1.58787804803613,0.0369273964659566,-298.041016876736
738465.40147020621225237846,1.65250099185156,0.0830866420484024,-298.050248725852
738465.40147029666695743799,1.72635578478347,0.147709585863826,-297.967162083804
738465.40147038712166249752,1.84636982329783,0.267723624378185,-297.967162083804
738465.40147047745995223522,1.80944242683187,0.230796227912229,-297.930234687338
738465.40147056791465729475,1.82790612506485,0.230796227912229,-297.939466536454
738465.40147065836936235428,1.84636982329783,0.258491775261696,-297.957930234687
738465.40147074882406741381,1.89252906888028,0.276955473494675,-297.930234687338
738465.40147083927877247334,1.80944242683187,0.175405133213294,-297.930234687338
738465.40147092973347753286,1.90176091799676,0.230796227912229,-297.948698385571
738465.40147102007176727057,1.81867427594836,0.147709585863826,-298.013321329386
738465.40147111052647233009,1.83713797418134,0.156941434980316,-297.967162083804
738465.40147120098117738962,1.83713797418134,0.184636982329783,-297.967162083804
738465.40147129143588244915,1.82790612506485,0.156941434980316,-297.97639393292
738465.40147138189058750868,1.67096469008454,0.0184636982329783,-298.013321329386
738465.40147147222887724638,1.68019653920103,0.0276955473494674,-298.050248725852
738465.40147156268358230591,1.73558763389996,0.101550340281381,-297.865611743522
738465.40147165313828736544,1.698660237434,0.0461592455824458,-297.902539139988
738465.40147174359299242496,1.63403729361858,0,-298.031785027619
738465.40147183404769748449,1.64326914273507,0.0184636982329783,-298.059480574969
738465.40147192450240254402,1.73558763389996,0.0830866420484024,-298.059480574969
738465.40147201484069228172,1.73558763389996,0.0923184911648915,-298.00408948027
738465.40147210529539734125,1.698660237434,0.0276955473494674,-298.022553178503
738465.40147219575010240078,1.63403729361858,-0.00923184911648915,-298.013321329386
738465.40147228620480746031,1.65250099185156,0.00923184911648915,-297.948698385571
738465.40147237665951251984,1.68019653920103,0.0461592455824458,-297.994857631153
738465.40147246711421757936,1.698660237434,0.0461592455824458,-297.994857631153
738465.40147255745250731707,1.71712393566698,0.0738547929319132,-298.031785027619
738465.40147264790721237659,1.73558763389996,0.064622943815424,-298.041016876736
738465.40147273836191743612,1.75405133213294,0.11078218939787,-298.077944273202
738465.40147282881662249565,1.68019653920103,0.0276955473494674,-298.059480574969
738465.40147291927132755518,1.77251503036592,0.120014038514359,-298.050248725852
738465.40147300960961729288,1.77251503036592,0.120014038514359,-298.077944273202
738465.40147310006432235241,1.65250099185156,0,-298.077944273202
738465.40147319051902741194,1.68019653920103,0.0276955473494674,-298.00408948027
738465.40147328097373247147,1.66173284096805,0.00923184911648915,-298.077944273202
738465.40147337142843753099,1.64326914273507,-0.0184636982329783,-298.077944273202
738465.40147346188314259052,1.68019653920103,0.0276955473494674,-298.059480574969
738465.40147355222143232822,1.70789208655049,0.064622943815424,-298.077944273202
738465.40147364267613738775,1.77251503036592,0.120014038514359,-298.096407971435
738465.40147373313084244728,1.70789208655049,0.064622943815424,-298.096407971435
738465.40147382358554750681,1.68019653920103,0.0276955473494674,-298.041016876736
738465.40147391404025256634,1.73558763389996,0.0738547929319132,-298.077944273202
738465.40147400437854230404,1.63403729361858,-0.0276955473494674,-298.077944273202
738465.40147409483324736357,1.68019653920103,0.0369273964659566,-298.114871669668
738465.40147418528795242310,1.63403729361858,-0.0184636982329783,-298.013321329386
738465.40147427574265748262,1.64326914273507,0.00923184911648915,-298.105639820551
738465.40147436619736254215,1.68942838831751,0.0276955473494674,-298.077944273202
738465.40147445665206760168,1.72635578478347,0.0369273964659566,-298.041016876736
738465.40147454699035733938,1.76328318124943,0.0738547929319132,-298.031785027619
738465.40147463744506239891,1.70789208655049,0.00923184911648915,-298.041016876736
738465.40147472789976745844,1.82790612506485,0.138477736747337,-297.985625782037
738465.40147481835447251797,1.82790612506485,0.120014038514359,-298.041016876736
738465.40147490880917757750,1.77251503036592,0.0830866420484024,-298.031785027619
738465.40147499926388263702,1.62480544450209,-0.0369273964659566,-298.041016876736
738465.40147508960217237473,1.67096469008454,0.0184636982329783,-297.837916196173
738465.40147518005687743425,1.68019653920103,0.0276955473494674,-297.921002838221
738465.40147527051158249378,1.70789208655049,0.0461592455824458,-297.97639393292
738465.40147536096628755331,1.74481948301645,0.064622943815424,-297.957930234687
738465.40147545142099261284,1.64326914273507,-0.0184636982329783,-298.00408948027
738465.40147554175928235054,1.66173284096805,0,-297.967162083804
738465.40147563221398741007,1.68942838831751,0.0369273964659566,-298.013321329386
738465.40147572266869246960,1.67096469008454,0.00923184911648915,-298.022553178503
738465.40147581312339752913,1.63403729361858,-0.0276955473494674,-298.041016876736
738465.40147590357810258865,1.6155735953856,-0.0553910946989349,-298.00408948027
738465.40147599403280764818,1.62480544450209,-0.0461592455824458,-298.077944273202
738465.40147608437109738588,1.65250099185156,-0.00923184911648915,-298.050248725852
738465.40147617482580244541,1.59710989715262,0.00923184911648915,-298.031785027619
738465.40147626528050750494,1.698660237434,0.120014038514359,-297.97639393292
738465.40147635573521256447,2.06793420209357,0.563142796105838,-297.856379894406
738465.40147644618991762400,2.76955473494675,0.729316080202643,-297.782525101474
738465.40147653652820736170,3.17575609607227,0.664693136387219,-297.782525101474
738465.40147662698291242123,2.76955473494675,0.22156437879574,-297.837916196173
738465.40147671743761748075,2.13255714590899,-0.147709585863826,-298.096407971435
738465.40147680789232254028,1.78174687948241,-0.258491775261696,-298.179494613483
738465.40147689834702759981,1.82790612506485,-0.0553910946989349,-298.096407971435
738465.40147698880173265934,1.76328318124943,0.0184636982329783,-298.077944273202
738465.40147707914002239704,1.67096469008454,-0.0369273964659566,-298.077944273202
738465.40147716959472745657,1.65250099185156,-0.0369273964659566,-298.124103518784
738465.40147726004943251610,1.66173284096805,-0.0369273964659566,-298.041016876736
738465.40147735050413757563,1.698660237434,0.0276955473494674,-298.114871669668
738465.40147744095884263515,1.68942838831751,0.00923184911648915,-298.105639820551
738465.40147753129713237286,1.68942838831751,0.0184636982329783,-298.068712424085
738465.40147762175183743238,1.698660237434,0.0369273964659566,-298.031785027619
738465.40147771220654249191,1.73558763389996,0.0553910946989349,-298.068712424085
738465.40147780266124755144,1.74481948301645,0.0830866420484024,-298.077944273202
738465.40147789311595261097,1.71712393566698,0.0369273964659566,-297.994857631153
738465.40147798357065767050,1.68942838831751,0.0184636982329783,-298.077944273202
738465.40147807390894740820,1.75405133213294,0.0738547929319132,-298.059480574969
738465.40147816436365246773,1.76328318124943,0.101550340281381,-297.994857631153
738465.40147825481835752726,1.75405133213294,0.0830866420484024,-298.022553178503
738465.40147834527306258678,1.78174687948241,0.11078218939787,-298.077944273202
738465.40147843572776764631,1.88329721976379,0.21233252967925,-297.930234687338
738465.40147852618247270584,1.9571520126957,0.286187322611164,-297.967162083804
738465.40147861652076244354,1.82790612506485,0.138477736747337,-297.81945249794
738465.40147870697546750307,1.86483352153081,0.184636982329783,-297.893307290872
738465.40147879743017256260,1.84636982329783,0.166173284096805,-297.939466536454
738465.40147888788487762213,1.89252906888028,0.203100680562761,-297.939466536454
738465.40147897833958268166,1.92022461622974,0.203100680562761,-297.911770989105
738465.40147906867787241936,1.93868831446272,0.203100680562761,-297.948698385571
738465.40147915913257747889,1.93868831446272,0.184636982329783,-297.957930234687
738465.40147924958728253841,1.92945646534623,0.175405133213294,-298.013321329386
738465.40147934004198759794,1.9571520126957,0.193868831446272,-297.957930234687
738465.40147943049669265747,1.96638386181219,0.203100680562761,-297.921002838221
738465.40147952095139771700,1.86483352153081,0.11078218939787,-297.957930234687
738465.40147961128968745470,1.7909787285989,0.0184636982329783,-297.939466536454
738465.40147970174439251423,1.80944242683187,0.0461592455824458,-297.97639393292
738465.40147979219909757376,1.83713797418134,0.0923184911648915,-297.994857631153
738465.40147988265380263329,1.85560167241432,0.11078218939787,-298.00408948027
738465.40147997310850769281,1.74481948301645,0,-298.00408948027
738465.40148006344679743052,1.81867427594836,0.0738547929319132,-298.022553178503
738465.40148015390150249004,1.88329721976379,0.129245887630848,-297.967162083804
738465.40148024435620754957,1.76328318124943,0,-298.041016876736
738465.40148033481091260910,1.78174687948241,0.00923184911648915,-298.041016876736
738465.40148042526561766863,1.74481948301645,-0.0276955473494674,-298.077944273202
738465.40148051572032272816,1.7909787285989,0.00923184911648915,-297.97639393292
738465.40148060605861246586,1.78174687948241,0,-298.00408948027
738465.40148069651331752539,1.77251503036592,0,-298.031785027619
738465.40148078696802258492,1.88329721976379,0.11078218939787,-298.022553178503
738465.40148087742272764444,1.97561571092868,0.203100680562761,-297.985625782037
738465.40148096787743270397,1.78174687948241,0,-298.068712424085
738465.40148105833213776350,1.66173284096805,-0.129245887630848,-298.041016876736
738465.40148114867042750120,1.73558763389996,-0.0461592455824458,-298.00408948027
738465.40148123912513256073,1.76328318124943,-0.00923184911648915,-298.031785027619
738465.40148132957983762026,1.77251503036592,0,-298.022553178503
738465.40148142003454267979,1.7909787285989,0.0276955473494674,-298.050248725852
738465.40148151048924773932,1.85560167241432,0.0830866420484024,-298.041016876736
738465.40148160082753747702,1.89252906888028,0.120014038514359,-298.059480574969
738465.40148169128224253654,1.80021057771538,0.00923184911648915,-298.059480574969
738465.40148178173694759607,1.83713797418134,0.064622943815424,-298.022553178503
738465.40148187219165265560,1.77251503036592,-0.00923184911648915,-298.041016876736
738465.40148196264635771513,1.72635578478347,-0.0553910946989349,-298.050248725852
738465.40148205310106277466,1.70789208655049,-0.0830866420484024,-298.050248725852
738465.40148214343935251236,1.78174687948241,-0.00923184911648915,-297.939466536454
738465.40148223389405757189,1.77251503036592,0,-297.967162083804
738465.40148232434876263142,1.80944242683187,0.0276955473494674,-298.050248725852
738465.40148241480346769094,1.83713797418134,0.0553910946989349,-298.013321329386
738465.40148250525817275047,1.7909787285989,-0.00923184911648915,-298.059480574969
738465.40148259559646248817,1.75405133213294,-0.0461592455824458,-297.921002838221
738465.40148268605116754770,1.80944242683187,0,-297.985625782037
738465.40148277650587260723,1.83713797418134,0.0276955473494674,-297.97639393292
738465.40148286696057766676,1.86483352153081,0.064622943815424,-297.967162083804
738465.40148295741528272629,1.89252906888028,0.0923184911648915,-297.97639393292
738465.40148304786998778582,1.92945646534623,0.0923184911648915,-297.939466536454
738465.40148313820827752352,1.86483352153081,0.0830866420484024,-298.00408948027
738465.40148322866298258305,1.82790612506485,0.0553910946989349,-297.97639393292
738465.40148331911768764257,1.81867427594836,0.0276955473494674,-297.97639393292
738465.40148340957239270210,1.83713797418134,0.0553910946989349,-297.948698385571
738465.40148350002709776163,1.78174687948241,-0.00923184911648915,-298.00408948027
738465.40148359048180282116,1.72635578478347,-0.064622943815424,-298.059480574969
738465.40148368082009255886,1.78174687948241,-0.0184636982329783,-297.97639393292
738465.40148377127479761839,1.74481948301645,-0.0276955473494674,-298.00408948027
738465.40148386172950267792,1.78174687948241,-0.00923184911648915,-298.00408948027
738465.40148395218420773745,1.84636982329783,0.0553910946989349,-298.022553178503
738465.40148404263891279697,1.77251503036592,-0.00923184911648915,-297.967162083804
738465.40148413297720253468,1.65250099185156,-0.129245887630848,-298.00408948027
738465.40148422343190759420,1.74481948301645,-0.0553910946989349,-297.97639393292
738465.40148431388661265373,1.63403729361858,-0.0830866420484024,-297.967162083804
738465.40148440434131771326,1.77251503036592,0.0369273964659566,-297.948698385571
738465.40148449479602277279,2.09562974944304,0.563142796105838,-297.865611743522
738465.40148458525072783232,2.68646809289834,0.64622943815424,-297.782525101474
738465.40148467558901757002,3.28653828547014,0.683156834620197,-297.754829554125
738465.40148476604372262955,2.94495986816004,0.22156437879574,-297.856379894406
738465.40148485649842768908,2.25257118442335,-0.203100680562761,-298.068712424085
738465.40148494695313274860,1.92945646534623,-0.304651020844142,-298.041016876736
738465.40148503740783780813,1.85560167241432,-0.147709585863826,-298.114871669668
738465.40148512774612754583,1.85560167241432,-0.0738547929319132,-298.096407971435
738465.40148521820083260536,1.81867427594836,-0.0369273964659566,-298.059480574969
738465.40148530865553766489,1.81867427594836,0,-297.994857631153
738465.40148539911024272442,1.83713797418134,0.0276955473494674,-298.059480574969
738465.40148548956494778395,1.80021057771538,0.0184636982329783,-298.059480574969
738465.40148558001965284348,1.77251503036592,-0.0184636982329783,-298.050248725852
738465.40148567035794258118,1.70789208655049,-0.0738547929319132,-297.939466536454
738465.40148576081264764071,1.73558763389996,-0.0553910946989349,-297.930234687338
738465.40148585126735270023,1.77251503036592,0.00923184911648915,-298.096407971435
738465.40148594172205775976,1.7909787285989,0.00923184911648915,-297.948698385571
738465.40148603217676281929,1.80944242683187,0.0461592455824458,-298.041016876736
738465.40148612263146787882,1.82790612506485,0.0461592455824458,-298.022553178503
738465.40148621296975761652,1.89252906888028,0.101550340281381,-298.031785027619
738465.40148630342446267605,1.82790612506485,0.0553910946989349,-297.967162083804
738465.40148639387916773558,1.81867427594836,0.0461592455824458,-298.00408948027
738465.40148648433387279510,1.86483352153081,0.0830866420484024,-298.00408948027
738465.40148657478857785463,1.94792016357921,0.175405133213294,-297.939466536454
738465.40148666512686759233,1.94792016357921,0.175405133213294,-297.994857631153
738465.40148675558157265186,1.94792016357921,0.166173284096805,-298.00408948027
738465.40148684603627771139,1.94792016357921,0.184636982329783,-297.884075441755
738465.40148693649098277092,1.99407940916166,0.22156437879574,-297.939466536454
738465.40148702694568783045,2.0402386547441,0.258491775261696,-297.97639393292
738465.40148711740039288998,2.01254310739463,0.203100680562761,-297.939466536454
738465.40148720773868262768,2.02177495651112,0.21233252967925,-297.948698385571
738465.40148729819338768721,2.05870235297708,0.230796227912229,-297.911770989105
738465.40148738864809274673,2.09562974944304,0.249259926145207,-297.948698385571
738465.40148747910279780626,1.97561571092868,0.101550340281381,-297.930234687338
738465.40148756955750286579,1.93868831446272,0.0738547929319132,-297.957930234687
738465.40148765989579260349,1.90176091799676,0.0461592455824458,-297.994857631153
738465.40148775035049766302,2.00331125827815,0.147709585863826,-298.041016876736
738465.40148784080520272255,1.86483352153081,0.00923184911648915,-298.050248725852
738465.40148793125990778208,1.83713797418134,-0.00923184911648915,-297.994857631153
738465.40148802171461284161,1.84636982329783,0,-297.97639393292
738465.40148811216931790113,1.9571520126957,0.0923184911648915,-297.939466536454
738465.40148820250760763884,1.98484756004517,0.129245887630848,-297.939466536454
738465.40148829296231269836,1.75405133213294,-0.11078218939787,-298.022553178503
738465.40148838341701775789,1.78174687948241,-0.064622943815424,-297.994857631153
738465.40148847387172281742,1.84636982329783,-0.0276955473494674,-297.967162083804
738465.40148856432642787695,1.91099276711325,0.0461592455824458,-297.967162083804
738465.40148865478113293648,1.98484756004517,0.120014038514359,-297.957930234687
738465.40148874511942267418,1.84636982329783,-0.0184636982329783,-297.967162083804
738465.40148883557412773371,1.7909787285989,-0.0923184911648915,-297.948698385571
738465.40148892602883279324,1.81867427594836,-0.0553910946989349,-298.031785027619
738465.40148901648353785276,1.84636982329783,-0.0276955473494674,-297.939466536454
738465.40148910693824291229,1.88329721976379,-0.00923184911648915,-297.97639393292
738465.40148919727653264999,1.97561571092868,0.0830866420484024,-297.884075441755
738465.40148928773123770952,1.92022461622974,0.0369273964659566,-297.828684347056
738465.40148937818594276905,1.81867427594836,-0.0553910946989349,-297.948698385571
738465.40148946864064782858,1.83713797418134,-0.0553910946989349,-297.994857631153
738465.40148955909535288811,1.85560167241432,-0.0276955473494674,-298.022553178503
738465.40148964955005794764,1.89252906888028,0,-298.013321329386
738465.40148973988834768534,1.96638386181219,0.0923184911648915,-298.031785027619
738465.40148983034305274487,1.84636982329783,-0.0553910946989349,-298.050248725852
738465.40148992079775780439,1.7909787285989,-0.0923184911648915,-298.031785027619
738465.40149001125246286392,1.81867427594836,-0.0738547929319132,-298.022553178503
738465.40149010170716792345,1.88329721976379,0,-298.041016876736
738465.40149019204545766115,1.92945646534623,0.0369273964659566,-298.031785027619
738465.40149028250016272068,1.83713797418134,-0.0461592455824458,-298.022553178503
738465.40149037295486778021,1.80944242683187,-0.0923184911648915,-298.050248725852
738465.40149046340957283974,1.83713797418134,-0.0461592455824458,-298.059480574969
738465.40149055386427789927,2.00331125827815,0.101550340281381,-297.957930234687
738465.40149064431898295879,1.88329721976379,-0.0276955473494674,-298.031785027619
738465.40149073465727269650,1.82790612506485,-0.0923184911648915,-298.022553178503
738465.40149082511197775602,1.86483352153081,-0.064622943815424,-298.022553178503
738465.40149091556668281555,1.90176091799676,-0.00923184911648915,-297.994857631153
738465.40149100602138787508,2.07716605121006,0.147709585863826,-298.031785027619
738465.40149109647609293461,1.99407940916166,0.0830866420484024,-298.050248725852
738465.40149118693079799414,1.92022461622974,0.00923184911648915,-297.967162083804
738465.40149127726908773184,1.8740653706473,-0.0184636982329783,-298.022553178503
738465.40149136772379279137,1.92022461622974,0.0276955473494674,-298.013321329386
738465.40149145817849785089,1.99407940916166,0.101550340281381,-297.957930234687
738465.40149154863320291042,1.7909787285989,-0.120014038514359,-298.013321329386
738465.40149163908790796995,1.80021057771538,-0.101550340281381,-298.077944273202
738465.40149172942619770765,1.80944242683187,-0.0923184911648915,-297.921002838221
738465.40149181988090276718,1.86483352153081,-0.0369273964659566,-297.985625782037
738465.40149191033560782671,1.8740653706473,-0.0369273964659566,-297.957930234687
738465.40149200079031288624,1.84636982329783,-0.0553910946989349,-298.013321329386
738465.40149209124501794577,1.83713797418134,-0.0738547929319132,-297.967162083804
738465.40149218169972300529,1.8740653706473,-0.0369273964659566,-297.985625782037
738465.40149227203801274300,1.85560167241432,-0.064622943815424,-297.97639393292
738465.40149236249271780252,1.74481948301645,-0.101550340281381,-297.994857631153
738465.40149245294742286205,1.80944242683187,-0.0276955473494674,-297.97639393292
738465.40149254340212792158,2.19718008972442,0.54467909787286,-297.837916196173
738465.40149263385683298111,2.83417767876217,0.673924985503708,-297.782525101474
738465.40149272419512271881,3.11113315225684,0.627765739921262,-297.690206610309
738465.40149281464982777834,3.13882869960631,0.295419171727653,-297.653279213843
738465.40149290510453283787,2.57568590350047,-0.147709585863826,-297.911770989105
738465.40149299555923789740,2.16948454237495,-0.341578417310099,-298.077944273202
738465.40149308601394295692,1.9571520126957,-0.295419171727653,-298.059480574969
738465.40149317646864801645,2.16948454237495,0.101550340281381,-298.022553178503
738465.40149326680693775415,1.8740653706473,-0.101550340281381,-297.948698385571
738465.40149335726164281368,1.78174687948241,-0.166173284096805,-298.00408948027
738465.40149344771634787321,1.78174687948241,-0.129245887630848,-298.031785027619
738465.40149353817105293274,1.84636982329783,-0.064622943815424,-298.050248725852
738465.40149362862575799227,1.90176091799676,-0.00923184911648915,-297.957930234687
738465.40149371908046305180,1.91099276711325,-0.00923184911648915,-298.031785027619
738465.40149380941875278950,1.92945646534623,0.0276955473494674,-298.013321329386
738465.40149389987345784903,1.80021057771538,-0.11078218939787,-297.994857631153
738465.40149399032816290855,1.83713797418134,-0.0553910946989349,-298.022553178503
738465.40149408078286796808,1.88329721976379,-0.0184636982329783,-298.041016876736
738465.40149417123757302761,1.88329721976379,-0.0184636982329783,-297.921002838221
738465.40149426157586276531,1.92022461622974,0,-297.939466536454
738465.40149435203056782484,1.89252906888028,-0.0184636982329783,-297.939466536454
738465.40149444248527288437,1.98484756004517,0.0738547929319132,-297.902539139988
738465.40149453293997794390,2.03100680562761,0.138477736747337,-297.921002838221
738465.40149462339468300343,2.02177495651112,0.120014038514359,-297.957930234687
738465.40149471384938806295,2.02177495651112,0.120014038514359,-297.994857631153
738465.40149480418767780066,2.00331125827815,0.101550340281381,-297.930234687338
738465.40149489464238286018,2.06793420209357,0.129245887630848,-297.985625782037
738465.40149498509708791971,2.1233252967925,0.22156437879574,-297.874843592639
738465.40149507555179297924,2.04947050386059,0.129245887630848,-297.985625782037
738465.40149516600649803877,2.05870235297708,0.120014038514359,-297.985625782037
738465.40149525634478777647,2.09562974944304,0.138477736747337,-297.967162083804
738465.40149534679949283600,2.13255714590899,0.156941434980316,-297.994857631153
738465.40149543725419789553,2.16948454237495,0.193868831446272,-297.884075441755
738465.40149552770890295506,2.06793420209357,0.0738547929319132,-297.902539139988
738465.40149561816360801458,2.07716605121006,0.0830866420484024,-297.930234687338
738465.40149570861831307411,2.14178899502548,0.147709585863826,-297.930234687338
738465.40149579895660281181,1.99407940916166,-0.0276955473494674,-297.930234687338
738465.40149588941130787134,1.92022461622974,-0.0461592455824458,-297.948698385571
738465.40149597986601293087,1.9571520126957,-0.0276955473494674,-297.930234687338
738465.40149607032071799040,1.99407940916166,0.00923184911648915,-297.957930234687
738465.40149616077542304993,1.96638386181219,-0.0369273964659566,-297.921002838221
738465.40149625111371278763,1.92945646534623,-0.064622943815424,-297.773293252358
738465.40149634156841784716,1.9571520126957,-0.0553910946989349,-297.939466536454
738465.40149643202312290668,1.9571520126957,-0.00923184911648915,-297.97639393292
738465.40149652247782796621,1.96638386181219,-0.0184636982329783,-297.967162083804
738465.40149661293253302574,1.99407940916166,-0.0184636982329783,-297.994857631153
738465.40149670338723808527,1.92945646534623,-0.0553910946989349,-297.994857631153
738465.40149679372552782297,1.93868831446272,-0.0461592455824458,-297.97639393292
738465.40149688418023288250,1.98484756004517,-0.0276955473494674,-298.031785027619
738465.40149697463493794203,1.94792016357921,-0.064622943815424,-298.022553178503
738465.40149706508964300156,1.96638386181219,-0.0369273964659566,-297.939466536454
738465.40149715554434806108,1.96638386181219,-0.064622943815424,-297.994857631153
738465.40149724599905312061,2.01254310739463,-0.00923184911648915,-298.041016876736
738465.40149733633734285831,1.9571520126957,-0.0461592455824458,-297.957930234687
738465.40149742679204791784,1.96638386181219,-0.0461592455824458,-298.00408948027
738465.40149751724675297737,1.98484756004517,-0.0461592455824458,-297.939466536454
738465.40149760770145803690,1.94792016357921,-0.0369273964659566,-297.994857631153
738465.40149769815616309643,1.92022461622974,-0.0738547929319132,-298.00408948027
738465.40149778849445283413,1.9571520126957,-0.0461592455824458,-298.068712424085
738465.40149787894915789366,1.97561571092868,-0.0369273964659566,-298.00408948027
738465.40149796940386295319,1.91099276711325,-0.0923184911648915,-298.031785027619
738465.40149805985856801271,1.88329721976379,-0.129245887630848,-298.013321329386
738465.40149815031327307224,2.01254310739463,0,-297.994857631153
738465.40149824076797813177,1.92022461622974,-0.101550340281381,-298.050248725852
738465.40149833110626786947,1.90176091799676,-0.0923184911648915,-298.022553178503
738465.40149842156097292900,1.94792016357921,-0.0369273964659566,-298.041016876736
738465.40149851201567798853,1.97561571092868,-0.0461592455824458,-298.013321329386
738465.40149860247038304806,2.01254310739463,-0.00923184911648915,-298.041016876736
738465.40149869292508810759,2.03100680562761,0,-298.013321329386
738465.40149878326337784529,1.97561571092868,-0.0461592455824458,-298.013321329386
738465.40149887371808290482,2.09562974944304,0.0461592455824458,-297.930234687338
738465.40149896417278796434,2.10486159855953,0.064622943815424,-297.948698385571
738465.40149905462749302387,1.94792016357921,-0.0369273964659566,-297.939466536454
738465.40149914508219808340,2.03100680562761,0.0461592455824458,-297.939466536454
738465.40149923553690314293,1.90176091799676,-0.0923184911648915,-297.921002838221
738465.40149932587519288063,2.10486159855953,0.120014038514359,-297.939466536454
738465.40149941632989794016,1.93868831446272,-0.0461592455824458,-297.985625782037
738465.40149950678460299969,1.80944242683187,-0.184636982329783,-297.994857631153
738465.40149959723930805922,1.82790612506485,-0.175405133213294,-298.00408948027
738465.40149968769401311874,1.97561571092868,-0.00923184911648915,-298.013321329386
738465.40149977814871817827,2.03100680562761,0.0553910946989349,-297.791756950591
738465.40149986848700791597,1.82790612506485,-0.184636982329783,-297.911770989105
738465.40149995894171297550,1.82790612506485,-0.156941434980316,-297.985625782037
738465.40150004939641803503,1.85560167241432,-0.138477736747337,-298.013321329386
738465.40150013985112309456,1.92022461622974,-0.064622943815424,-298.031785027619
738465.40150023030582815409,1.8740653706473,-0.0923184911648915,-298.041016876736
738465.40150032064411789179,1.88329721976379,-0.0461592455824458,-298.059480574969
738465.40150041109882295132,1.99407940916166,0.203100680562761,-297.874843592639
738465.40150050155352801085,2.73262733848079,0.923184911648915,-297.791756950591
738465.40150059200823307037,2.94495986816004,0.535447248756371,-297.745597705008
738465.40150068246293812990,3.12959685048982,0.378505813776055,-297.708670308542
738465.40150077291764318943,2.70493179113132,-0.0184636982329783,-297.911770989105
738465.40150086325593292713,2.26180303353984,-0.304651020844142,-298.041016876736
738465.40150095371063798666,1.96638386181219,-0.295419171727653,-298.068712424085
738465.40150104416534304619,2.00331125827815,-0.138477736747337,-298.050248725852
738465.40150113462004810572,1.93868831446272,-0.0923184911648915,-298.041016876736
738465.40150122507475316525,1.92945646534623,-0.0738547929319132,-298.041016876736
738465.40150131541304290295,1.90176091799676,-0.0830866420484024,-297.994857631153
738465.40150140586774796247,1.94792016357921,-0.0553910946989349,-297.994857631153
738465.40150149632245302200,1.99407940916166,0.0276955473494674,-297.994857631153
738465.40150158677715808153,1.96638386181219,-0.0184636982329783,-298.031785027619
738465.40150167723186314106,1.90176091799676,-0.064622943815424,-298.022553178503
738465.40150176768656820059,1.92945646534623,-0.0461592455824458,-297.985625782037
738465.40150185802485793829,1.88329721976379,-0.0830866420484024,-298.013321329386
738465.40150194847956299782,1.85560167241432,-0.11078218939787,-298.050248725852
738465.40150203893426805735,1.90176091799676,-0.064622943815424,-298.050248725852
738465.40150212938897311687,1.99407940916166,0.0276955473494674,-297.948698385571
738465.40150221984367817640,2.06793420209357,0.0923184911648915,-298.022553178503
738465.40150231029838323593,1.90176091799676,-0.064622943815424,-297.994857631153
738465.40150240063667297363,1.98484756004517,0.00923184911648915,-297.957930234687
738465.40150249109137803316,2.00331125827815,0.0461592455824458,-297.97639393292
738465.40150258154608309269,1.98484756004517,0.00923184911648915,-298.031785027619
738465.40150267200078815222,2.03100680562761,0.0738547929319132,-298.031785027619
738465.40150276245549321175,2.07716605121006,0.11078218939787,-298.013321329386
738465.40150285279378294945,2.11409344767602,0.147709585863826,-297.948698385571
738465.40150294324848800898,2.37258522293771,0.396969512009033,-297.948698385571
738465.40150303370319306850,2.09562974944304,0.0923184911648915,-298.022553178503
738465.40150312415789812803,1.9571520126957,-0.0553910946989349,-297.985625782037
738465.40150321461260318756,2.07716605121006,0.0369273964659566,-298.031785027619
738465.40150330506730824709,2.14178899502548,0.0830866420484024,-297.837916196173
738465.40150339540559798479,2.13255714590899,0.0830866420484024,-297.930234687338
738465.40150348586030304432,2.13255714590899,0.0830866420484024,-297.939466536454
738465.40150357631500810385,2.05870235297708,0.0184636982329783,-298.022553178503
738465.40150366676971316338,1.99407940916166,-0.064622943815424,-298.050248725852
738465.40150375722441822290,2.08639790032655,0.0461592455824458,-297.957930234687
738465.40150384756270796061,2.03100680562761,-0.00923184911648915,-298.022553178503
738465.40150393801741302013,1.93868831446272,-0.101550340281381,-298.059480574969
738465.40150402847211807966,1.96638386181219,-0.0553910946989349,-298.068712424085
738465.40150411892682313919,2.00331125827815,-0.0276955473494674,-297.97639393292
738465.40150420938152819872,1.96638386181219,-0.064622943815424,-298.013321329386
738465.40150429983623325825,2.04947050386059,0.00923184911648915,-298.050248725852
738465.40150439017452299595,1.92945646534623,-0.11078218939787,-298.022553178503
738465.40150448062922805548,1.92945646534623,-0.11078218939787,-297.948698385571
738465.40150457108393311501,2.02177495651112,-0.00923184911648915,-297.930234687338
738465.40150466153863817453,2.04947050386059,0,-297.893307290872
738465.40150475199334323406,1.92945646534623,-0.120014038514359,-297.939466536454
738465.40150484244804829359,1.89252906888028,-0.147709585863826,-297.930234687338
738465.40150493278633803129,2.09562974944304,0.0553910946989349,-297.948698385571
738465.40150502324104309082,2.10486159855953,0.064622943815424,-297.957930234687
738465.40150511369574815035,1.98484756004517,-0.0461592455824458,-297.97639393292
738465.40150520415045320988,2.10486159855953,0.064622943815424,-297.948698385571
738465.40150529460515826941,1.96638386181219,-0.0738547929319132,-297.985625782037
738465.40150538494344800711,1.80944242683187,-0.21233252967925,-297.97639393292
738465.40150547539815306664,1.92022461622974,-0.101550340281381,-298.022553178503
738465.40150556585285812616,1.89252906888028,-0.138477736747337,-298.022553178503
738465.40150565630756318569,1.90176091799676,-0.129245887630848,-298.00408948027
738465.40150574676226824522,1.9571520126957,-0.064622943815424,-298.00408948027
738465.40150583721697330475,1.97561571092868,-0.064622943815424,-297.957930234687
738465.40150592755526304245,1.97561571092868,-0.0461592455824458,-297.97639393292
738465.40150601800996810198,1.9571520126957,-0.064622943815424,-297.985625782037
738465.40150610846467316151,1.99407940916166,-0.0369273964659566,-298.013321329386
738465.40150619891937822104,1.99407940916166,-0.0553910946989349,-298.013321329386
738465.40150628937408328056,2.03100680562761,-0.0276955473494674,-298.031785027619
738465.40150637971237301826,2.02177495651112,-0.0553910946989349,-298.041016876736
738465.40150647016707807779,2.07716605121006,-0.00923184911648915,-298.013321329386
738465.40150656062178313732,2.16948454237495,0.0923184911648915,-297.994857631153
738465.40150665107648819685,2.0402386547441,-0.0369273964659566,-298.022553178503
738465.40150674153119325638,1.89252906888028,-0.184636982329783,-297.957930234687
738465.40150683198589831591,1.94792016357921,-0.120014038514359,-297.902539139988
738465.40150692232418805361,1.96638386181219,-0.064622943815424,-297.948698385571
738465.40150701277889311314,2.00331125827815,-0.064622943815424,-297.948698385571
738465.40150710323359817266,1.9571520126957,-0.0830866420484024,-298.041016876736
738465.40150719368830323219,1.93868831446272,-0.0923184911648915,-298.059480574969
738465.40150728414300829172,2.08639790032655,0.064622943815424,-298.041016876736
738465.40150737459771335125,2.0402386547441,0.00923184911648915,-298.031785027619
738465.40150746493600308895,1.80021057771538,-0.230796227912229,-298.068712424085
738465.40150755539070814848,1.82790612506485,-0.22156437879574,-298.059480574969
738465.40150764584541320801,1.92022461622974,-0.11078218939787,-298.031785027619
738465.40150773630011826754,1.84636982329783,-0.184636982329783,-298.041016876736
738465.40150782675482332706,1.85560167241432,-0.184636982329783,-298.00408948027
738465.40150791709311306477,1.8740653706473,-0.156941434980316,-297.97639393292
738465.40150800754781812429,1.85560167241432,-0.11078218939787,-298.00408948027
738465.40150809800252318382,2.02177495651112,0.0738547929319132,-297.948698385571
738465.40150818845722824335,2.3818170720542,0.553910946989349,-297.782525101474
738465.40150827891193330288,3.03727835932493,0.673924985503708,-297.690206610309
738465.40150836936663836241,3.37885677663503,0.563142796105838,-297.671742912076
738465.40150845970492810011,2.95419171727653,0.0830866420484024,-297.828684347056
738465.40150855015963315964,2.36335337382122,-0.267723624378185,-297.994857631153
738465.40150864061433821917,1.99407940916166,-0.387737662892544,-298.105639820551
738465.40150873106904327869,1.97561571092868,-0.258491775261696,-298.068712424085
738465.40150882152374833822,1.97561571092868,-0.138477736747337,-298.050248725852
738465.40150891186203807592,1.99407940916166,-0.0738547929319132,-298.00408948027
738465.40150900231674313545,1.94792016357921,-0.11078218939787,-298.013321329386
738465.40150909277144819498,1.94792016357921,-0.11078218939787,-298.00408948027
738465.40150918322615325451,1.89252906888028,-0.138477736747337,-298.059480574969
738465.40150927368085831404,1.94792016357921,-0.0923184911648915,-298.031785027619
738465.40150936413556337357,2.00331125827815,-0.00923184911648915,-298.050248725852
738465.40150945447385311127,2.07716605121006,0.0461592455824458,-298.013321329386
738465.40150954492855817080,1.84636982329783,-0.175405133213294,-298.059480574969
738465.40150963538326323032,1.81867427594836,-0.21233252967925,-298.041016876736
