time_dn,ecg_projection_ll_ra_mV,ecg_projection_la_ra_mV,ecg_projection_vx_rl_mV
738465.45476805581711232662,2.1233252967925,-1.89252906888028,-298.170262764367
738465.45476814627181738615,2.11409344767602,-1.89252906888028,-298.197958311716
738465.45476823661010712385,2.08639790032655,-1.93868831446272,-298.225653859066
738465.45476832706481218338,2.09562974944304,-1.92022461622974,-298.225653859066
738465.45476841751951724291,2.13255714590899,-1.88329721976379,-298.1887264626
738465.45476850797422230244,2.07716605121006,-1.88329721976379,-298.1887264626
738465.45476859842892736197,2.09562974944304,-1.86483352153081,-298.170262764367
738465.45476868888363242149,2.3818170720542,-1.39400921658986,-298.059480574969
738465.45476877933833748102,2.99111911374248,-1.1909085360271,-297.957930234687
738465.45476886967662721872,3.47117526779992,-1.26476332895901,-297.948698385571
738465.45476896013133227825,3.34192938016907,-1.64326914273507,-298.022553178503
738465.45476905058603733778,2.65877254554888,-2.07716605121006,-298.179494613483
738465.45476914104074239731,2.28026673177282,-2.19718008972442,-298.31797235023
738465.45476923149544745684,2.2156437879574,-2.0402386547441,-298.308740501114
738465.45476932195015251637,2.22487563707389,-1.91099276711325,-298.244117557298
738465.45476941240485757589,2.19718008972442,-1.86483352153081,-298.1887264626
738465.45476950274314731359,2.14178899502548,-1.92022461622974,-298.234885708182
738465.45476959319785237312,2.14178899502548,-1.89252906888028,-298.234885708182
738465.45476968365255743265,2.15102084414197,-1.8740653706473,-298.253349406415
738465.45476977410726249218,2.16025269325846,-1.86483352153081,-298.253349406415
738465.45476986456196755171,2.16025269325846,-1.86483352153081,-298.244117557298
738465.45476995501667261124,2.15102084414197,-1.85560167241432,-298.216422009949
738465.45477004547137767076,2.23410748619037,-1.7909787285989,-298.253349406415
738465.45477013580966740847,2.18794824060793,-1.84636982329783,-298.234885708182
738465.45477022626437246799,2.17871639149144,-1.83713797418134,-298.1887264626
738465.45477031671907752752,2.16948454237495,-1.82790612506485,-298.197958311716
738465.45477040717378258705,2.2156437879574,-1.77251503036592,-298.244117557298
738465.45477049762848764658,2.28949858088931,-1.71712393566698,-298.253349406415
738465.45477058808319270611,2.22487563707389,-1.80021057771538,-298.124103518784
738465.45477067853789776564,2.19718008972442,-1.81867427594836,-298.133335367901
738465.45477076887618750334,2.25257118442335,-1.76328318124943,-298.216422009949
738465.45477085933089256287,2.28949858088931,-1.73558763389996,-298.179494613483
738465.45477094978559762239,2.31719412823878,-1.70789208655049,-298.124103518784
738465.45477104024030268192,2.35412152470473,-1.68019653920103,-298.133335367901
738465.45477113069500774145,2.40951261940367,-1.60634174626911,-298.114871669668
738465.45477122114971280098,2.44644001586962,-1.56941434980316,-298.105639820551
738465.45477131160441786051,2.42797631763665,-1.59710989715262,-298.16103091525
738465.45477140194270759821,2.43720816675314,-1.60634174626911,-298.216422009949
738465.45477149239741265774,2.44644001586962,-1.63403729361858,-298.216422009949
738465.45477158285211771727,2.42797631763665,-1.67096469008454,-298.151799066134
738465.45477167330682277679,2.3818170720542,-1.72635578478347,-298.197958311716
738465.45477176376152783632,2.37258522293771,-1.73558763389996,-298.207190160833
738465.45477185421623289585,2.35412152470473,-1.75405133213294,-298.262581255531
738465.45477194467093795538,2.37258522293771,-1.72635578478347,-298.207190160833
738465.45477203500922769308,2.26180303353984,-1.82790612506485,-298.253349406415
738465.45477212546393275261,2.23410748619037,-1.84636982329783,-298.271813104648
738465.45477221591863781214,2.24333933530686,-1.82790612506485,-298.244117557298
738465.45477230637334287167,2.28026673177282,-1.80021057771538,-298.234885708182
738465.45477239682804793119,2.22487563707389,-1.85560167241432,-298.281044953764
738465.45477248728275299072,2.22487563707389,-1.85560167241432,-298.271813104648
738465.45477257773745805025,2.22487563707389,-1.84636982329783,-298.234885708182
738465.45477266807574778795,2.27103488265633,-1.81867427594836,-298.151799066134
738465.45477275853045284748,2.26180303353984,-1.84636982329783,-298.225653859066
738465.45477284898515790701,2.26180303353984,-1.84636982329783,-298.225653859066
738465.45477293943986296654,2.24333933530686,-1.8740653706473,-298.1887264626
738465.45477302989456802607,2.22487563707389,-1.86483352153081,-298.197958311716
738465.45477312034927308559,2.2156437879574,-1.8740653706473,-298.1887264626
738465.45477321080397814512,2.22487563707389,-1.88329721976379,-298.1887264626
738465.45477330114226788282,2.26180303353984,-1.83713797418134,-298.234885708182
738465.45477339159697294235,2.28026673177282,-1.83713797418134,-298.225653859066
738465.45477348205167800188,2.28026673177282,-1.82790612506485,-298.197958311716
738465.45477357250638306141,2.24333933530686,-1.8740653706473,-298.216422009949
738465.45477366296108812094,2.23410748619037,-1.88329721976379,-298.207190160833
738465.45477375341579318047,2.23410748619037,-1.88329721976379,-298.207190160833
738465.45477384387049823999,2.24333933530686,-1.8740653706473,-298.179494613483
738465.45477393420878797770,2.25257118442335,-1.8740653706473,-298.1887264626
738465.45477402466349303722,2.24333933530686,-1.86483352153081,-298.207190160833
738465.45477411511819809675,2.24333933530686,-1.85560167241432,-298.151799066134
738465.45477420557290315628,2.25257118442335,-1.86483352153081,-298.142567217017
738465.45477429602760821581,2.25257118442335,-1.86483352153081,-298.262581255531
738465.45477438648231327534,2.25257118442335,-1.8740653706473,-298.179494613483
738465.45477447693701833487,2.23410748619037,-1.88329721976379,-298.197958311716
738465.45477456727530807257,2.23410748619037,-1.88329721976379,-298.16103091525
738465.45477465773001313210,2.24333933530686,-1.8740653706473,-298.170262764367
738465.45477474818471819162,2.25257118442335,-1.85560167241432,-298.179494613483
738465.45477483863942325115,2.25257118442335,-1.85560167241432,-298.170262764367
738465.45477492909412831068,2.26180303353984,-1.85560167241432,-298.179494613483
738465.45477501954883337021,2.23410748619037,-1.88329721976379,-298.234885708182
738465.45477511000353842974,2.2156437879574,-1.89252906888028,-298.281044953764
738465.45477520034182816744,2.24333933530686,-1.8740653706473,-298.253349406415
738465.45477529079653322697,2.24333933530686,-1.8740653706473,-298.244117557298
738465.45477538125123828650,2.28949858088931,-1.82790612506485,-298.244117557298
738465.45477547170594334602,2.2987304300058,-1.82790612506485,-298.262581255531
738465.45477556216064840555,2.2987304300058,-1.84636982329783,-298.216422009949
738465.45477565261535346508,2.35412152470473,-1.80944242683187,-298.234885708182
738465.45477574307005852461,2.39104892117069,-1.73558763389996,-298.225653859066
738465.45477583340834826231,2.40951261940367,-1.72635578478347,-298.234885708182
738465.45477592386305332184,2.36335337382122,-1.78174687948241,-298.197958311716
738465.45477601431775838137,2.28026673177282,-1.82790612506485,-298.216422009949
738465.45477610477246344090,2.18794824060793,-1.93868831446272,-298.234885708182
738465.45477619522716850042,2.24333933530686,-1.8740653706473,-298.207190160833
738465.45477628568187355995,2.27103488265633,-1.83713797418134,-298.253349406415
738465.45477637613657861948,2.26180303353984,-1.85560167241432,-298.281044953764
738465.45477646647486835718,2.19718008972442,-1.92022461622974,-298.151799066134
738465.45477655692957341671,2.26180303353984,-1.8740653706473,-298.16103091525
738465.45477664738427847624,2.23410748619037,-1.89252906888028,-298.197958311716
738465.45477673783898353577,2.25257118442335,-1.8740653706473,-298.197958311716
738465.45477682829368859529,2.2156437879574,-1.91099276711325,-298.207190160833
738465.45477691874839365482,2.16948454237495,-1.96638386181219,-298.197958311716
738465.45477700920309871435,2.16025269325846,-1.96638386181219,-298.207190160833
738465.45477709954138845205,2.19718008972442,-1.93868831446272,-298.207190160833
738465.45477718999609351158,2.20641193884091,-1.88329721976379,-298.207190160833
738465.45477728045079857111,2.19718008972442,-1.88329721976379,-298.197958311716
738465.45477737090550363064,2.27103488265633,-1.80944242683187,-298.179494613483
738465.45477746136020869017,2.4649037141026,-1.41247291482284,-298.059480574969
738465.45477755181491374969,3.05574205755791,-1.24629963072604,-297.994857631153
738465.45477764226961880922,3.69273964659566,-1.15398113956114,-297.847148045289
738465.45477773272432386875,3.38808862575152,-1.67096469008454,-297.865611743522
738465.45477782306261360645,2.74185918759728,-2.08639790032655,-298.170262764367
738465.45477791351731866598,2.40951261940367,-2.17871639149144,-298.253349406415
738465.45477800397202372551,2.3818170720542,-1.96638386181219,-298.225653859066
738465.45477809442672878504,2.25257118442335,-1.96638386181219,-298.225653859066
738465.45477818488143384457,2.20641193884091,-1.9571520126957,-298.234885708182
738465.45477827533613890409,2.24333933530686,-1.91099276711325,-298.262581255531
738465.45477836579084396362,2.2987304300058,-1.82790612506485,-298.225653859066
738465.45477845612913370132,2.25257118442335,-1.8740653706473,-298.271813104648
738465.45477854658383876085,2.19718008972442,-1.92945646534623,-298.262581255531
738465.45477863703854382038,2.26180303353984,-1.86483352153081,-298.207190160833
738465.45477872749324887991,2.30796227912229,-1.81867427594836,-298.179494613483
738465.45477881794795393944,2.19718008972442,-1.92945646534623,-298.1887264626
738465.45477890840265899897,2.22487563707389,-1.88329721976379,-298.216422009949
738465.45477899885736405849,2.23410748619037,-1.8740653706473,-298.244117557298
738465.45477908919565379620,2.34488967558824,-1.77251503036592,-298.216422009949
738465.45477917965035885572,2.33565782647175,-1.7909787285989,-298.179494613483
738465.45477927010506391525,2.33565782647175,-1.78174687948241,-298.216422009949
738465.45477936055976897478,2.2987304300058,-1.80021057771538,-298.225653859066
738465.45477945101447403431,2.27103488265633,-1.83713797418134,-298.225653859066
738465.45477954146917909384,2.3818170720542,-1.72635578478347,-298.197958311716
738465.45477963192388415337,2.40028077028718,-1.70789208655049,-298.216422009949
738465.45477972226217389107,2.42797631763665,-1.68942838831751,-298.1887264626
738465.45477981271687895060,2.48336741233558,-1.6155735953856,-298.133335367901
738465.45477990317158401012,2.50183111056856,-1.59710989715262,-298.179494613483
738465.45477999362628906965,2.45567186498611,-1.66173284096805,-298.1887264626
738465.45478008408099412918,2.57568590350047,-1.55095065157018,-298.114871669668
738465.45478017453569918871,2.53875850703452,-1.6155735953856,-298.16103091525
738465.45478026499040424824,2.4649037141026,-1.698660237434,-298.170262764367
738465.45478035532869398594,2.48336741233558,-1.70789208655049,-298.179494613483
738465.45478044578339904547,2.48336741233558,-1.71712393566698,-298.179494613483
738465.45478053623810410500,2.4649037141026,-1.72635578478347,-298.234885708182
738465.45478062669280916452,2.4649037141026,-1.71712393566698,-298.216422009949
738465.45478071714751422405,2.39104892117069,-1.80021057771538,-298.170262764367
738465.45478080760221928358,2.32642597735527,-1.86483352153081,-298.225653859066
738465.45478089805692434311,2.32642597735527,-1.85560167241432,-298.253349406415
738465.45478098839521408081,2.39104892117069,-1.78174687948241,-298.179494613483
738465.45478107884991914034,2.28949858088931,-1.89252906888028,-298.253349406415
738465.45478116930462419987,2.27103488265633,-1.92022461622974,-298.234885708182
738465.45478125975932925940,2.2987304300058,-1.89252906888028,-298.133335367901
738465.45478135021403431892,2.30796227912229,-1.8740653706473,-298.151799066134
738465.45478144066873937845,2.33565782647175,-1.84636982329783,-298.16103091525
738465.45478153112344443798,2.32642597735527,-1.84636982329783,-298.170262764367
738465.45478162146173417568,2.30796227912229,-1.88329721976379,-298.225653859066
738465.45478171191643923521,2.32642597735527,-1.88329721976379,-298.16103091525
738465.45478180237114429474,2.3818170720542,-1.80944242683187,-298.1887264626
738465.45478189282584935427,2.36335337382122,-1.83713797418134,-298.197958311716
738465.45478198328055441380,2.28026673177282,-1.92945646534623,-298.16103091525
738465.45478207373525947332,2.28949858088931,-1.92945646534623,-298.151799066134
738465.45478216418996453285,2.35412152470473,-1.85560167241432,-298.170262764367
738465.45478225452825427055,2.40951261940367,-1.78174687948241,-298.142567217017
738465.45478234498295933008,2.43720816675314,-1.77251503036592,-298.170262764367
738465.45478243543766438961,2.22487563707389,-1.99407940916166,-298.1887264626
738465.45478252589236944914,2.25257118442335,-1.9571520126957,-298.197958311716
738465.45478261634707450867,2.2987304300058,-1.89252906888028,-298.1887264626
738465.45478270680177956820,2.31719412823878,-1.86483352153081,-298.234885708182
738465.45478279725648462772,2.30796227912229,-1.88329721976379,-298.225653859066
738465.45478288759477436543,2.31719412823878,-1.89252906888028,-298.234885708182
738465.45478297804947942495,2.30796227912229,-1.89252906888028,-298.216422009949
738465.45478306850418448448,2.31719412823878,-1.8740653706473,-298.197958311716
738465.45478315895888954401,2.34488967558824,-1.83713797418134,-298.197958311716
738465.45478324941359460354,2.37258522293771,-1.81867427594836,-298.262581255531
738465.45478333986829966307,2.28949858088931,-1.90176091799676,-298.234885708182
738465.45478343032300472260,2.28949858088931,-1.90176091799676,-298.262581255531
738465.45478352066129446030,2.26180303353984,-1.92945646534623,-298.244117557298
738465.45478361111599951982,2.34488967558824,-1.84636982329783,-298.253349406415
738465.45478370157070457935,2.2987304300058,-1.89252906888028,-298.271813104648
738465.45478379202540963888,2.2156437879574,-1.98484756004517,-298.271813104648
738465.45478388248011469841,2.26180303353984,-1.92945646534623,-298.244117557298
738465.45478397293481975794,2.28949858088931,-1.90176091799676,-298.253349406415
738465.45478406338952481747,2.30796227912229,-1.89252906888028,-298.225653859066
738465.45478415372781455517,2.35412152470473,-1.84636982329783,-298.262581255531
738465.45478424418251961470,2.43720816675314,-1.75405133213294,-298.271813104648
738465.45478433463722467422,2.35412152470473,-1.86483352153081,-298.281044953764
738465.45478442509192973375,2.30796227912229,-1.92945646534623,-298.262581255531
738465.45478451554663479328,2.33565782647175,-1.88329721976379,-298.244117557298
738465.45478460600133985281,2.3818170720542,-1.81867427594836,-298.271813104648
738465.45478469645604491234,2.41874446852016,-1.7909787285989,-298.059480574969
738465.45478478679433465004,2.36335337382122,-1.85560167241432,-298.197958311716
738465.45478487724903970957,2.36335337382122,-1.83713797418134,-298.216422009949
738465.45478496770374476910,2.34488967558824,-1.84636982329783,-298.16103091525
738465.45478505815844982862,2.35412152470473,-1.82790612506485,-298.197958311716
738465.45478514861315488815,2.37258522293771,-1.80944242683187,-298.151799066134
738465.45478523906785994768,2.37258522293771,-1.82790612506485,-298.1887264626
738465.45478532952256500721,2.28949858088931,-1.90176091799676,-298.225653859066
738465.45478541986085474491,2.2156437879574,-1.99407940916166,-298.197958311716
738465.45478551031555980444,2.2156437879574,-1.96638386181219,-298.197958311716
738465.45478560077026486397,2.30796227912229,-1.88329721976379,-298.225653859066
738465.45478569122496992350,2.30796227912229,-1.86483352153081,-298.207190160833
738465.45478578167967498302,2.2987304300058,-1.88329721976379,-298.244117557298
738465.45478587213438004255,2.22487563707389,-1.97561571092868,-298.290276802881
738465.45478596258908510208,2.36335337382122,-1.81867427594836,-298.271813104648
738465.45478605292737483978,2.14178899502548,-2.01254310739463,-298.281044953764
738465.45478614338207989931,2.13255714590899,-2.02177495651112,-298.244117557298
738465.45478623383678495884,2.31719412823878,-1.64326914273507,-298.1887264626
738465.45478632429149001837,2.82494582964568,-1.2739951780755,-297.957930234687
738465.45478641474619507790,3.52656636249886,-1.15398113956114,-297.939466536454
738465.45478650520090013742,3.66504409924619,-1.33861812189093,-297.967162083804
738465.45478659565560519695,3.05574205755791,-1.8740653706473,-298.151799066134
738465.45478668599389493465,2.56645405438398,-2.16025269325846,-298.271813104648
738465.45478677644859999418,2.31719412823878,-2.11409344767602,-298.308740501114
738465.45478686690330505371,2.36335337382122,-2.02177495651112,-298.327204199347
738465.45478695735801011324,2.37258522293771,-1.91099276711325,-298.308740501114
738465.45478704781271517277,2.34488967558824,-1.86483352153081,-298.234885708182
738465.45478713826742023230,2.44644001586962,-1.75405133213294,-298.225653859066
738465.45478722872212529182,2.3818170720542,-1.81867427594836,-298.225653859066
738465.45478731906041502953,2.26180303353984,-1.93868831446272,-298.207190160833
738465.45478740951512008905,2.19718008972442,-1.96638386181219,-298.290276802881
738465.45478749996982514858,2.22487563707389,-1.94792016357921,-298.244117557298
738465.45478759042453020811,2.26180303353984,-1.92022461622974,-298.253349406415
738465.45478768087923526764,2.2987304300058,-1.8740653706473,-298.216422009949
738465.45478777133394032717,2.39104892117069,-1.78174687948241,-298.271813104648
738465.45478786178864538670,2.33565782647175,-1.84636982329783,-298.271813104648
738465.45478795212693512440,2.2987304300058,-1.86483352153081,-298.197958311716
738465.45478804258164018393,2.36335337382122,-1.80944242683187,-298.262581255531
738465.45478813303634524345,2.4649037141026,-1.698660237434,-298.244117557298
738465.45478822349105030298,2.48336741233558,-1.68942838831751,-298.050248725852
738465.45478831394575536251,2.41874446852016,-1.75405133213294,-298.151799066134
738465.45478840440046042204,2.37258522293771,-1.80021057771538,-298.262581255531
738465.45478849485516548157,2.35412152470473,-1.81867427594836,-298.244117557298
738465.45478858519345521927,2.45567186498611,-1.72635578478347,-298.207190160833
738465.45478867564816027880,2.52952665791803,-1.64326914273507,-298.234885708182
738465.45478876610286533833,2.56645405438398,-1.6155735953856,-298.216422009949
738465.45478885655757039785,2.45567186498611,-1.72635578478347,-298.133335367901
738465.45478894701227545738,2.52029480880154,-1.67096469008454,-298.225653859066
738465.45478903746698051691,2.60338145084994,-1.62480544450209,-298.234885708182
738465.45478912792168557644,2.57568590350047,-1.68019653920103,-298.225653859066
738465.45478921825997531414,2.56645405438398,-1.68942838831751,-298.179494613483
738465.45478930871468037367,2.53875850703452,-1.72635578478347,-298.216422009949
738465.45478939916938543320,2.47413556321909,-1.7909787285989,-298.133335367901
738465.45478948962409049273,2.48336741233558,-1.76328318124943,-298.179494613483
738465.45478958007879555225,2.49259926145207,-1.75405133213294,-298.1887264626
738465.45478967053350061178,2.28949858088931,-1.9571520126957,-298.179494613483
738465.45478976098820567131,2.28026673177282,-1.96638386181219,-298.1887264626
738465.45478985132649540901,2.35412152470473,-1.89252906888028,-298.170262764367
738465.45478994178120046854,2.40951261940367,-1.82790612506485,-298.179494613483
738465.45479003223590552807,2.33565782647175,-1.92022461622974,-298.234885708182
738465.45479012269061058760,2.40028077028718,-1.84636982329783,-298.207190160833
738465.45479021314531564713,2.3818170720542,-1.8740653706473,-298.207190160833
738465.45479030360002070665,2.35412152470473,-1.89252906888028,-298.244117557298
738465.45479039405472576618,2.28026673177282,-1.97561571092868,-298.299508651997
738465.45479048450943082571,2.34488967558824,-1.92022461622974,-298.271813104648
738465.45479057484772056341,2.37258522293771,-1.89252906888028,-298.216422009949
738465.45479066530242562294,2.37258522293771,-1.88329721976379,-298.234885708182
738465.45479075575713068247,2.41874446852016,-1.83713797418134,-298.216422009949
738465.45479084621183574200,2.40028077028718,-1.86483352153081,-298.244117557298
738465.45479093666654080153,2.40028077028718,-1.84636982329783,-298.207190160833
738465.45479102712124586105,2.47413556321909,-1.78174687948241,-298.216422009949
738465.45479111757595092058,2.35412152470473,-1.92945646534623,-298.262581255531
738465.45479120791424065828,2.27103488265633,-1.99407940916166,-298.253349406415
738465.45479129836894571781,2.32642597735527,-1.92945646534623,-298.281044953764
738465.45479138882365077734,2.42797631763665,-1.84636982329783,-298.207190160833
738465.45479147927835583687,2.40951261940367,-1.86483352153081,-298.234885708182
738465.45479156973306089640,2.33565782647175,-1.94792016357921,-298.271813104648
738465.45479166018776595592,2.34488967558824,-1.91099276711325,-298.262581255531
738465.45479175064247101545,2.36335337382122,-1.90176091799676,-298.133335367901
738465.45479184098076075315,2.41874446852016,-1.84636982329783,-298.16103091525
738465.45479193143546581268,2.37258522293771,-1.90176091799676,-298.290276802881
738465.45479202189017087221,2.30796227912229,-1.96638386181219,-298.290276802881
738465.45479211234487593174,2.40951261940367,-1.86483352153081,-298.308740501114
738465.45479220279958099127,2.40028077028718,-1.84636982329783,-298.271813104648
738465.45479229325428605080,2.30796227912229,-1.94792016357921,-298.290276802881
738465.45479238370899111032,2.33565782647175,-1.92945646534623,-298.271813104648
738465.45479247404728084803,2.32642597735527,-1.93868831446272,-298.281044953764
738465.45479256450198590755,2.35412152470473,-1.90176091799676,-298.244117557298
738465.45479265495669096708,2.30796227912229,-1.94792016357921,-298.299508651997
738465.45479274541139602661,2.2987304300058,-1.97561571092868,-298.31797235023
738465.45479283586610108614,2.36335337382122,-1.90176091799676,-298.290276802881
738465.45479292632080614567,2.40951261940367,-1.84636982329783,-298.225653859066
738465.45479301677551120520,2.40028077028718,-1.86483352153081,-298.1887264626
738465.45479310711380094290,2.35412152470473,-1.92022461622974,-298.207190160833
738465.45479319756850600243,2.3818170720542,-1.91099276711325,-298.179494613483
738465.45479328802321106195,2.39104892117069,-1.92022461622974,-298.225653859066
738465.45479337847791612148,2.40028077028718,-1.89252906888028,-298.253349406415
738465.45479346893262118101,2.53875850703452,-1.76328318124943,-298.262581255531
738465.45479355938732624054,2.54799035615101,-1.74481948301645,-298.234885708182
738465.45479364984203130007,2.35412152470473,-1.91099276711325,-298.271813104648
738465.45479374018032103777,2.35412152470473,-1.92945646534623,-298.308740501114
738465.45479383063502609730,2.43720816675314,-1.83713797418134,-298.216422009949
738465.45479392108973115683,2.49259926145207,-1.77251503036592,-298.124103518784
738465.45479401154443621635,2.28949858088931,-1.99407940916166,-298.216422009949
738465.45479410199914127588,2.23410748619037,-2.0402386547441,-298.225653859066
738465.45479419245384633541,2.28949858088931,-1.98484756004517,-298.244117557298
738465.45479428290855139494,2.27103488265633,-1.99407940916166,-298.225653859066
738465.45479437324684113264,2.28026673177282,-1.97561571092868,-298.207190160833
738465.45479446370154619217,2.39104892117069,-1.8740653706473,-298.244117557298
738465.45479455415625125170,2.37258522293771,-1.89252906888028,-298.207190160833
738465.45479464461095631123,2.25257118442335,-2.02177495651112,-298.281044953764
738465.45479473506566137075,2.37258522293771,-1.92022461622974,-298.253349406415
738465.45479482552036643028,2.30796227912229,-1.96638386181219,-298.225653859066
738465.45479491597507148981,2.22487563707389,-1.97561571092868,-298.262581255531
738465.45479500631336122751,2.39104892117069,-1.80021057771538,-298.207190160833
738465.45479509676806628704,2.73262733848079,-1.32938627277444,-298.124103518784
738465.45479518722277134657,3.43424787133396,-1.20014038514359,-298.022553178503
738465.45479527767747640610,3.79428998687704,-1.3570818201239,-297.893307290872
738465.45479536813218146563,3.42501602221747,-1.80021057771538,-298.041016876736
738465.45479545858688652515,2.82494582964568,-2.10486159855953,-298.308740501114
738465.45479554904159158468,2.45567186498611,-2.19718008972442,-298.354899746696
738465.45479563937988132238,2.50183111056856,-1.97561571092868,-298.290276802881
738465.45479572983458638191,2.45567186498611,-1.92022461622974,-298.299508651997
738465.45479582028929144144,2.35412152470473,-1.98484756004517,-298.327204199347
738465.45479591074399650097,2.32642597735527,-1.96638386181219,-298.253349406415
738465.45479600119870156050,2.35412152470473,-1.92945646534623,-298.299508651997
738465.45479609165340662003,2.39104892117069,-1.90176091799676,-298.281044953764
738465.45479618210811167955,2.35412152470473,-1.92945646534623,-298.207190160833
738465.45479627244640141726,2.34488967558824,-1.92945646534623,-298.234885708182
738465.45479636290110647678,2.39104892117069,-1.8740653706473,-298.290276802881
738465.45479645335581153631,2.43720816675314,-1.82790612506485,-298.299508651997
738465.45479654381051659584,2.37258522293771,-1.91099276711325,-298.225653859066
738465.45479663426522165537,2.37258522293771,-1.90176091799676,-298.299508651997
738465.45479672471992671490,2.3818170720542,-1.88329721976379,-298.281044953764
738465.45479681517463177443,2.41874446852016,-1.86483352153081,-298.207190160833
738465.45479690551292151213,2.50183111056856,-1.77251503036592,-298.271813104648
738465.45479699596762657166,2.48336741233558,-1.7909787285989,-298.271813104648
738465.45479708642233163118,2.44644001586962,-1.83713797418134,-298.281044953764
738465.45479717687703669071,2.50183111056856,-1.78174687948241,-298.234885708182
738465.45479726733174175024,2.57568590350047,-1.70789208655049,-298.253349406415
738465.45479735778644680977,2.58491775261696,-1.698660237434,-298.244117557298
738465.45479744824115186930,2.56645405438398,-1.71712393566698,-298.1887264626
738465.45479753857944160700,2.66800439466536,-1.62480544450209,-298.244117557298
738465.45479762903414666653,2.61261329996643,-1.68019653920103,-298.1887264626
738465.45479771948885172606,2.69569994201483,-1.6155735953856,-298.096407971435
738465.45479780994355678558,2.71416364024781,-1.6155735953856,-298.124103518784
738465.45479790039826184511,2.83417767876217,-1.51402325510422,-298.124103518784
738465.45479799085296690464,2.54799035615101,-1.82790612506485,-298.114871669668
738465.45479808130767196417,2.52029480880154,-1.85560167241432,-298.124103518784
738465.45479817164596170187,2.54799035615101,-1.83713797418134,-298.124103518784
738465.45479826210066676140,2.57568590350047,-1.80944242683187,-298.170262764367
738465.45479835255537182093,2.55722220526749,-1.81867427594836,-298.225653859066
738465.45479844301007688046,2.49259926145207,-1.86483352153081,-298.1887264626
738465.45479853346478193998,2.57568590350047,-1.7909787285989,-298.1887264626
738465.45479862391948699951,2.4649037141026,-1.88329721976379,-298.225653859066
738465.45479871437419205904,2.50183111056856,-1.86483352153081,-298.225653859066
738465.45479880471248179674,2.49259926145207,-1.86483352153081,-298.133335367901
738465.45479889516718685627,2.41874446852016,-1.94792016357921,-298.114871669668
738465.45479898562189191580,2.40951261940367,-1.9571520126957,-298.225653859066
738465.45479907607659697533,2.44644001586962,-1.92022461622974,-298.271813104648
738465.45479916653130203485,2.48336741233558,-1.89252906888028,-298.244117557298
738465.45479925698600709438,2.44644001586962,-1.92022461622974,-298.216422009949
738465.45479934744071215391,2.48336741233558,-1.88329721976379,-298.281044953764
738465.45479943777900189161,2.51106295968505,-1.86483352153081,-298.290276802881
738465.45479952823370695114,2.4649037141026,-1.92022461622974,-298.207190160833
738465.45479961868841201067,2.4649037141026,-1.91099276711325,-298.281044953764
738465.45479970914311707020,2.51106295968505,-1.8740653706473,-298.262581255531
738465.45479979959782212973,2.54799035615101,-1.82790612506485,-298.234885708182
738465.45479989005252718925,2.47413556321909,-1.91099276711325,-298.207190160833
738465.45479998050723224878,2.53875850703452,-1.84636982329783,-298.1887264626
738465.45480007084552198648,2.52952665791803,-1.85560167241432,-298.207190160833
738465.45480016130022704601,2.41874446852016,-1.96638386181219,-298.253349406415
738465.45480025175493210554,2.47413556321909,-1.91099276711325,-298.299508651997
738465.45480034220963716507,2.49259926145207,-1.90176091799676,-298.290276802881
738465.45480043266434222460,2.4649037141026,-1.92022461622974,-298.234885708182
738465.45480052311904728413,2.43720816675314,-1.9571520126957,-298.299508651997
738465.45480061357375234365,2.49259926145207,-1.89252906888028,-298.299508651997
738465.45480070391204208136,2.45567186498611,-1.93868831446272,-298.234885708182
738465.45480079436674714088,2.45567186498611,-1.94792016357921,-298.299508651997
738465.45480088482145220041,2.41874446852016,-1.96638386181219,-298.299508651997
738465.45480097527615725994,2.43720816675314,-1.93868831446272,-298.281044953764
738465.45480106573086231947,2.44644001586962,-1.94792016357921,-298.244117557298
738465.45480115618556737900,2.43720816675314,-1.96638386181219,-298.216422009949
738465.45480124664027243853,2.49259926145207,-1.90176091799676,-298.225653859066
738465.45480133697856217623,2.52029480880154,-1.85560167241432,-298.197958311716
738465.45480142743326723576,2.49259926145207,-1.90176091799676,-298.225653859066
738465.45480151788797229528,2.49259926145207,-1.91099276711325,-298.281044953764
738465.45480160834267735481,2.50183111056856,-1.89252906888028,-298.262581255531
738465.45480169879738241434,2.41874446852016,-1.98484756004517,-298.308740501114
738465.45480178925208747387,2.4649037141026,-1.92945646534623,-298.271813104648
738465.45480187970679253340,2.50183111056856,-1.90176091799676,-298.290276802881
738465.45480197004508227110,2.48336741233558,-1.92945646534623,-298.253349406415
738465.45480206049978733063,2.53875850703452,-1.89252906888028,-298.299508651997
738465.45480215095449239016,2.55722220526749,-1.86483352153081,-298.281044953764
738465.45480224140919744968,2.65877254554888,-1.75405133213294,-298.244117557298
738465.45480233186390250921,2.63107699819941,-1.78174687948241,-298.207190160833
738465.45480242231860756874,2.50183111056856,-1.90176091799676,-298.16103091525
738465.45480251277331262827,2.49259926145207,-1.90176091799676,-298.244117557298
738465.45480260322801768780,2.52029480880154,-1.86483352153081,-298.281044953764
738465.45480269356630742550,2.52952665791803,-1.86483352153081,-298.299508651997
738465.45480278402101248503,2.52952665791803,-1.88329721976379,-298.262581255531
738465.45480287447571754456,2.41874446852016,-1.98484756004517,-298.16103091525
738465.45480296493042260408,2.42797631763665,-1.96638386181219,-298.225653859066
738465.45480305538512766361,2.43720816675314,-1.97561571092868,-298.234885708182
738465.45480314583983272314,2.48336741233558,-1.92022461622974,-298.244117557298
738465.45480323629453778267,2.43720816675314,-1.96638386181219,-298.271813104648
738465.45480332663282752037,2.43720816675314,-1.96638386181219,-298.253349406415
738465.45480341708753257990,2.4649037141026,-1.94792016357921,-298.253349406415
738465.45480350754223763943,2.41874446852016,-2.00331125827815,-298.262581255531
738465.45480359799694269896,2.40028077028718,-1.98484756004517,-298.271813104648
738465.45480368845164775848,2.35412152470473,-1.98484756004517,-298.271813104648
738465.45480377890635281801,2.6403088473159,-1.57864619891964,-298.234885708182
738465.45480386936105787754,2.81571398052919,-1.32938627277444,-298.105639820551
738465.45480395969934761524,3.31423383281961,-1.31092257454146,-298.031785027619
738465.45480405015405267477,3.831217383343,-1.3570818201239,-297.97639393292
738465.45480414060875773430,3.73889889217811,-1.63403729361858,-298.068712424085
738465.45480423106346279383,2.94495986816004,-2.17871639149144,-298.281044953764
738465.45480432151816785336,2.6403088473159,-2.23410748619037,-298.364131595813
738465.45480441197287291288,2.55722220526749,-2.07716605121006,-298.299508651997
738465.45480450242757797241,2.55722220526749,-1.94792016357921,-298.308740501114
738465.45480459276586771011,2.59414960173345,-1.86483352153081,-298.299508651997
738465.45480468322057276964,2.52952665791803,-1.90176091799676,-298.234885708182
738465.45480477367527782917,2.4649037141026,-1.9571520126957,-298.244117557298
738465.45480486412998288870,2.50183111056856,-1.91099276711325,-298.244117557298
738465.45480495458468794823,2.51106295968505,-1.89252906888028,-298.225653859066
738465.45480504503939300776,2.42797631763665,-1.97561571092868,-298.216422009949
738465.45480513549409806728,2.48336741233558,-1.92022461622974,-298.290276802881
738465.45480522583238780499,2.47413556321909,-1.92945646534623,-298.308740501114
738465.45480531628709286451,2.50183111056856,-1.90176091799676,-298.234885708182
738465.45480540674179792404,2.52029480880154,-1.8740653706473,-298.299508651997
738465.45480549719650298357,2.52029480880154,-1.88329721976379,-298.281044953764
738465.45480558765120804310,2.54799035615101,-1.85560167241432,-298.271813104648
738465.45480567810591310263,2.62184514908292,-1.78174687948241,-298.197958311716
738465.45480576856061816216,2.64954069643239,-1.74481948301645,-298.271813104648
738465.45480585889890789986,2.68646809289834,-1.698660237434,-298.225653859066
738465.45480594935361295938,2.54799035615101,-1.84636982329783,-298.114871669668
738465.45480603980831801891,2.59414960173345,-1.80021057771538,-298.262581255531
738465.45480613026302307844,2.71416364024781,-1.68942838831751,-298.253349406415
738465.45480622071772813797,2.7233954893643,-1.66173284096805,-298.234885708182
738465.45480631117243319750,2.67723624378185,-1.71712393566698,-298.207190160833
738465.45480640162713825703,2.71416364024781,-1.68019653920103,-298.244117557298
738465.45480649196542799473,2.78801843317972,-1.62480544450209,-298.234885708182
738465.45480658242013305426,2.76032288583026,-1.67096469008454,-298.170262764367
738465.45480667287483811378,2.8064821314127,-1.65250099185156,-298.207190160833
738465.45480676332954317331,2.79725028229621,-1.68019653920103,-298.179494613483
738465.45480685378424823284,2.76032288583026,-1.75405133213294,-298.197958311716
738465.45480694423895329237,2.65877254554888,-1.82790612506485,-298.271813104648
738465.45480703469365835190,2.67723624378185,-1.80944242683187,-298.216422009949
738465.45480712503194808960,2.67723624378185,-1.80021057771538,-298.207190160833
738465.45480721548665314913,2.62184514908292,-1.85560167241432,-298.253349406415
738465.45480730594135820866,2.63107699819941,-1.83713797418134,-298.234885708182
738465.45480739639606326818,2.56645405438398,-1.91099276711325,-298.216422009949
738465.45480748685076832771,2.57568590350047,-1.92022461622974,-298.225653859066
738465.45480757730547338724,2.57568590350047,-1.92022461622974,-298.262581255531
738465.45480766776017844677,2.57568590350047,-1.88329721976379,-298.281044953764
738465.45480775809846818447,2.58491775261696,-1.8740653706473,-298.262581255531
738465.45480784855317324400,2.57568590350047,-1.91099276711325,-298.262581255531
738465.45480793900787830353,2.61261329996643,-1.85560167241432,-298.281044953764
738465.45480802946258336306,2.59414960173345,-1.8740653706473,-298.216422009949
738465.45480811991728842258,2.54799035615101,-1.92945646534623,-298.290276802881
738465.45480821037199348211,2.58491775261696,-1.90176091799676,-298.31797235023
738465.45480830082669854164,2.62184514908292,-1.8740653706473,-298.207190160833
738465.45480839116498827934,2.62184514908292,-1.8740653706473,-298.271813104648
738465.45480848161969333887,2.58491775261696,-1.91099276711325,-298.253349406415
738465.45480857207439839840,2.59414960173345,-1.92022461622974,-298.234885708182
738465.45480866252910345793,2.61261329996643,-1.92022461622974,-298.262581255531
738465.45480875298380851746,2.62184514908292,-1.8740653706473,-298.299508651997
738465.45480884343851357698,2.63107699819941,-1.8740653706473,-298.290276802881
738465.45480893389321863651,2.59414960173345,-1.91099276711325,-298.262581255531
738465.45480902423150837421,2.55722220526749,-1.94792016357921,-298.271813104648
738465.45480911468621343374,2.62184514908292,-1.88329721976379,-298.216422009949
738465.45480920514091849327,2.59414960173345,-1.91099276711325,-298.207190160833
738465.45480929559562355280,2.57568590350047,-1.92022461622974,-298.234885708182
738465.45480938605032861233,2.61261329996643,-1.90176091799676,-298.059480574969
738465.45480947650503367186,2.61261329996643,-1.91099276711325,-298.151799066134
738465.45480956695973873138,2.56645405438398,-1.92945646534623,-298.244117557298
738465.45480965729802846909,2.62184514908292,-1.86483352153081,-298.327204199347
738465.45480974775273352861,2.61261329996643,-1.89252906888028,-298.327204199347
738465.45480983820743858814,2.51106295968505,-1.99407940916166,-298.234885708182
738465.45480992866214364767,2.52029480880154,-1.97561571092868,-298.308740501114
738465.45481001911684870720,2.56645405438398,-1.92945646534623,-298.308740501114
738465.45481010957155376673,2.61261329996643,-1.89252906888028,-298.281044953764
738465.45481020002625882626,2.61261329996643,-1.90176091799676,-298.290276802881
738465.45481029036454856396,2.61261329996643,-1.90176091799676,-298.299508651997
738465.45481038081925362349,2.54799035615101,-1.9571520126957,-298.31797235023
738465.45481047127395868301,2.58491775261696,-1.92022461622974,-298.271813104648
738465.45481056172866374254,2.60338145084994,-1.90176091799676,-298.31797235023
738465.45481065218336880207,2.6403088473159,-1.89252906888028,-298.244117557298
738465.45481074263807386160,2.65877254554888,-1.85560167241432,-298.244117557298
738465.45481083309277892113,2.6403088473159,-1.88329721976379,-298.262581255531
738465.45481092343106865883,2.63107699819941,-1.88329721976379,-298.216422009949
738465.45481101388577371836,2.68646809289834,-1.83713797418134,-298.197958311716
738465.45481110434047877789,2.68646809289834,-1.83713797418134,-298.244117557298
738465.45481119479518383741,2.69569994201483,-1.80944242683187,-298.244117557298
738465.45481128524988889694,2.65877254554888,-1.83713797418134,-298.253349406415
738465.45481137570459395647,2.61261329996643,-1.89252906888028,-298.234885708182
738465.45481146615929901600,2.58491775261696,-1.92022461622974,-298.271813104648
738465.45481155649758875370,2.62184514908292,-1.88329721976379,-298.290276802881
738465.45481164695229381323,2.64954069643239,-1.86483352153081,-298.262581255531
738465.45481173740699887276,2.53875850703452,-1.97561571092868,-298.290276802881
738465.45481182786170393229,2.52952665791803,-1.98484756004517,-298.336436048463
738465.45481191831640899181,2.52952665791803,-1.98484756004517,-298.262581255531
738465.45481200877111405134,2.58491775261696,-1.92945646534623,-298.262581255531
738465.45481209922581911087,2.56645405438398,-1.94792016357921,-298.271813104648
738465.45481218956410884857,2.54799035615101,-1.9571520126957,-298.299508651997
738465.45481228001881390810,2.62184514908292,-1.89252906888028,-298.290276802881
738465.45481237047351896763,2.58491775261696,-1.93868831446272,-298.327204199347
738465.45481246092822402716,2.43720816675314,-2.01254310739463,-298.281044953764
738465.45481255138292908669,2.55722220526749,-1.8740653706473,-298.262581255531
738465.45481264183763414621,2.85264137699515,-1.40324106570635,-298.133335367901
738465.45481273229233920574,3.60965300454726,-1.17244483779412,-298.077944273202
738465.45481282263062894344,3.94199957274087,-1.34784997100742,-298.022553178503
738465.45481291308533400297,3.60042115543077,-1.80944242683187,-297.948698385571
738465.45481300354003906250,3.00958281197546,-2.17871639149144,-298.253349406415
738465.45481309399474412203,2.75109103671377,-2.18794824060793,-298.382595294046
738465.45481318444944918156,2.7233954893643,-2.00331125827815,-298.373363444929
738465.45481327490415424109,2.71416364024781,-1.92945646534623,-298.299508651997
738465.45481336535885930061,2.65877254554888,-1.92022461622974,-298.308740501114
738465.45481345569714903831,2.58491775261696,-1.9571520126957,-298.327204199347
738465.45481354615185409784,2.57568590350047,-1.94792016357921,-298.262581255531
738465.45481363660655915737,2.59414960173345,-1.92945646534623,-298.308740501114
738465.45481372706126421690,2.64954069643239,-1.85560167241432,-298.308740501114
738465.45481381751596927643,2.63107699819941,-1.88329721976379,-298.253349406415
738465.45481390797067433596,2.56645405438398,-1.92945646534623,-298.290276802881
738465.45481399842537939548,2.61261329996643,-1.89252906888028,-298.299508651997
738465.45481408876366913319,2.62184514908292,-1.88329721976379,-298.253349406415
738465.45481417921837419271,2.64954069643239,-1.84636982329783,-298.290276802881
738465.45481426967307925224,2.6403088473159,-1.86483352153081,-298.281044953764
738465.45481436012778431177,2.70493179113132,-1.80021057771538,-298.290276802881
738465.45481445058248937130,2.74185918759728,-1.76328318124943,-298.271813104648
738465.45481454103719443083,2.74185918759728,-1.76328318124943,-298.271813104648
738465.45481463149189949036,2.76032288583026,-1.74481948301645,-298.262581255531
738465.45481472194660454988,2.76032288583026,-1.75405133213294,-298.225653859066
738465.45481481228489428759,2.73262733848079,-1.77251503036592,-298.262581255531
738465.45481490273959934711,2.70493179113132,-1.78174687948241,-298.281044953764
738465.45481499319430440664,2.76032288583026,-1.72635578478347,-298.197958311716
738465.45481508364900946617,2.8895687734611,-1.60634174626911,-298.170262764367
738465.45481517410371452570,2.91726432081057,-1.58787804803613,-298.216422009949
738465.45481526455841958523,2.85264137699515,-1.65250099185156,-298.234885708182
738465.45481535501312464476,3.0649739066744,-1.44016846217231,-298.16103091525
738465.45481544535141438246,2.8895687734611,-1.67096469008454,-298.216422009949
738465.45481553580611944199,2.81571398052919,-1.76328318124943,-298.271813104648
738465.45481562626082450151,2.79725028229621,-1.7909787285989,-298.281044953764
738465.45481571671552956104,2.82494582964568,-1.78174687948241,-298.234885708182
738465.45481580717023462057,2.76955473494675,-1.81867427594836,-298.207190160833
738465.45481589762493968010,2.71416364024781,-1.84636982329783,-298.216422009949
738465.45481598807964473963,2.75109103671377,-1.82790612506485,-298.225653859066
738465.45481607841793447733,2.70493179113132,-1.85560167241432,-298.234885708182
738465.45481616887263953686,2.69569994201483,-1.85560167241432,-298.244117557298
738465.45481625932734459639,2.67723624378185,-1.88329721976379,-298.244117557298
738465.45481634978204965591,2.65877254554888,-1.92022461622974,-298.234885708182
738465.45481644023675471544,2.64954069643239,-1.92945646534623,-298.105639820551
738465.45481653069145977497,2.63107699819941,-1.92945646534623,-298.16103091525
738465.45481662114616483450,2.68646809289834,-1.8740653706473,-298.234885708182
738465.45481671148445457220,2.68646809289834,-1.8740653706473,-298.271813104648
738465.45481680193915963173,2.70493179113132,-1.8740653706473,-298.234885708182
738465.45481689239386469126,2.64954069643239,-1.92945646534623,-298.225653859066
738465.45481698284856975079,2.7233954893643,-1.85560167241432,-298.244117557298
738465.45481707330327481031,2.75109103671377,-1.83713797418134,-298.244117557298
738465.45481716375797986984,2.67723624378185,-1.89252906888028,-298.262581255531
738465.45481725421268492937,2.63107699819941,-1.93868831446272,-298.308740501114
738465.45481734455097466707,2.6403088473159,-1.94792016357921,-298.234885708182
738465.45481743500567972660,2.69569994201483,-1.89252906888028,-298.271813104648
738465.45481752546038478613,2.68646809289834,-1.89252906888028,-298.234885708182
738465.45481761591508984566,2.64954069643239,-1.92022461622974,-298.216422009949
738465.45481770636979490519,2.71416364024781,-1.8740653706473,-298.207190160833
738465.45481779682449996471,2.75109103671377,-1.84636982329783,-298.216422009949
738465.45481788727920502424,2.62184514908292,-1.97561571092868,-298.244117557298
738465.45481797761749476194,2.66800439466536,-1.92945646534623,-298.244117557298
738465.45481806807219982147,2.63107699819941,-1.97561571092868,-298.290276802881
738465.45481815852690488100,2.70493179113132,-1.8740653706473,-298.31797235023
738465.45481824898160994053,2.69569994201483,-1.89252906888028,-298.234885708182
738465.45481833943631500006,2.63107699819941,-1.97561571092868,-298.308740501114
738465.45481842989102005959,2.69569994201483,-1.88329721976379,-298.31797235023
738465.45481852034572511911,2.69569994201483,-1.92022461622974,-298.290276802881
738465.45481861068401485682,2.60338145084994,-2.01254310739463,-298.308740501114
738465.45481870113871991634,2.59414960173345,-1.99407940916166,-298.31797235023
738465.45481879159342497587,2.69569994201483,-1.89252906888028,-298.290276802881
738465.45481888204813003540,2.68646809289834,-1.88329721976379,-298.234885708182
738465.45481897250283509493,2.62184514908292,-1.93868831446272,-298.327204199347
738465.45481906295754015446,2.57568590350047,-2.00331125827815,-298.299508651997
738465.45481915341224521399,2.63107699819941,-1.92945646534623,-298.299508651997
738465.45481924375053495169,2.63107699819941,-1.90176091799676,-298.299508651997
738465.45481933420524001122,2.58491775261696,-1.92945646534623,-298.31797235023
738465.45481942465994507074,2.62184514908292,-1.93868831446272,-298.308740501114
738465.45481951511465013027,2.64954069643239,-1.91099276711325,-298.244117557298
738465.45481960556935518980,2.70493179113132,-1.84636982329783,-298.31797235023
738465.45481969602406024933,2.7233954893643,-1.82790612506485,-298.290276802881
738465.45481978647876530886,2.71416364024781,-1.84636982329783,-298.216422009949
738465.45481987681705504656,2.74185918759728,-1.78174687948241,-298.271813104648
738465.45481996727176010609,2.61261329996643,-1.92945646534623,-298.151799066134
738465.45482005772646516562,2.57568590350047,-1.96638386181219,-298.207190160833
738465.45482014818117022514,2.63107699819941,-1.89252906888028,-298.234885708182
738465.45482023863587528467,2.65877254554888,-1.8740653706473,-298.234885708182
738465.45482032909058034420,2.52952665791803,-2.00331125827815,-298.253349406415
738465.45482041954528540373,2.53875850703452,-1.98484756004517,-298.308740501114
738465.45482050988357514143,2.62184514908292,-1.90176091799676,-298.308740501114
738465.45482060033828020096,2.61261329996643,-1.93868831446272,-298.253349406415
738465.45482069079298526049,2.53875850703452,-1.98484756004517,-298.262581255531
738465.45482078124769032001,2.59414960173345,-1.92945646534623,-298.244117557298
738465.45482087170239537954,2.59414960173345,-1.93868831446272,-298.262581255531
738465.45482096215710043907,2.52952665791803,-2.00331125827815,-298.262581255531
738465.45482105261180549860,2.52029480880154,-2.02177495651112,-298.244117557298
738465.45482114295009523630,2.53875850703452,-1.9571520126957,-298.290276802881
738465.45482123340480029583,2.57568590350047,-1.92022461622974,-298.262581255531
738465.45482132385950535536,2.78801843317972,-1.50479140598773,-298.197958311716
738465.45482141431421041489,3.32346568193609,-1.2739951780755,-298.077944273202
738465.45482150476891547441,3.97892696920682,-1.09859004486221,-297.948698385571
738465.45482159522362053394,3.87737662892544,-1.4494003112888,-298.050248725852
738465.45482168567832559347,3.16652424695578,-2.02177495651112,-298.290276802881
738465.45482177601661533117,2.78801843317972,-2.2156437879574,-298.364131595813
738465.45482186647132039070,2.67723624378185,-2.09562974944304,-298.336436048463
738465.45482195692602545023,2.70493179113132,-1.96638386181219,-298.327204199347
738465.45482204738073050976,2.65877254554888,-1.94792016357921,-298.308740501114
738465.45482213783543556929,2.62184514908292,-1.9571520126957,-298.262581255531
738465.45482222829014062881,2.6403088473159,-1.93868831446272,-298.234885708182
738465.45482231874484568834,2.66800439466536,-1.89252906888028,-298.225653859066
738465.45482240908313542604,2.77878658406323,-1.76328318124943,-298.207190160833
738465.45482249953784048557,2.58491775261696,-1.96638386181219,-298.207190160833
738465.45482258999254554510,2.54799035615101,-2.01254310739463,-298.262581255531
738465.45482268044725060463,2.56645405438398,-1.98484756004517,-298.281044953764
738465.45482277090195566416,2.60338145084994,-1.94792016357921,-298.281044953764
738465.45482286135666072369,2.63107699819941,-1.92022461622974,-298.234885708182
738465.45482295181136578321,2.65877254554888,-1.89252906888028,-298.299508651997
738465.45482304214965552092,2.7233954893643,-1.81867427594836,-298.271813104648
738465.45482313260436058044,2.74185918759728,-1.80021057771538,-298.299508651997
738465.45482322305906563997,2.74185918759728,-1.82790612506485,-298.234885708182
738465.45482331351377069950,2.69569994201483,-1.85560167241432,-298.262581255531
738465.45482340396847575903,2.73262733848079,-1.81867427594836,-298.290276802881
738465.45482349442318081856,2.8064821314127,-1.74481948301645,-298.133335367901
738465.45482358487788587809,2.82494582964568,-1.71712393566698,-298.142567217017
738465.45482367521617561579,2.78801843317972,-1.76328318124943,-298.244117557298
738465.45482376567088067532,2.8064821314127,-1.75405133213294,-298.234885708182
738465.45482385612558573484,2.82494582964568,-1.72635578478347,-298.225653859066
738465.45482394658029079437,2.85264137699515,-1.72635578478347,-298.253349406415
738465.45482403703499585390,2.92649616992706,-1.66173284096805,-298.170262764367
738465.45482412748970091343,2.95419171727653,-1.68019653920103,-298.179494613483
738465.45482421794440597296,2.89880062257759,-1.75405133213294,-298.179494613483
738465.45482430828269571066,2.87110507522813,-1.78174687948241,-298.1887264626
738465.45482439873740077019,2.88033692434461,-1.76328318124943,-298.197958311716
738465.45482448919210582972,2.78801843317972,-1.85560167241432,-298.234885708182
738465.45482457964681088924,2.76955473494675,-1.88329721976379,-298.1887264626
738465.45482467010151594877,2.70493179113132,-1.93868831446272,-298.225653859066
738465.45482476055622100830,2.73262733848079,-1.90176091799676,-298.271813104648
738465.45482485101092606783,2.77878658406323,-1.83713797418134,-298.253349406415
738465.45482494134921580553,2.8064821314127,-1.81867427594836,-298.197958311716
738465.45482503180392086506,2.67723624378185,-1.94792016357921,-298.281044953764
738465.45482512225862592459,2.66800439466536,-1.97561571092868,-298.271813104648
738465.45482521271333098412,2.67723624378185,-1.94792016357921,-298.253349406415
738465.45482530316803604364,2.65877254554888,-1.94792016357921,-298.216422009949
738465.45482539362274110317,2.69569994201483,-1.92945646534623,-298.216422009949
738465.45482548407744616270,2.68646809289834,-1.94792016357921,-298.16103091525
738465.45482557441573590040,2.71416364024781,-1.91099276711325,-298.234885708182
738465.45482566487044095993,2.74185918759728,-1.90176091799676,-298.225653859066
738465.45482575532514601946,2.73262733848079,-1.90176091799676,-298.244117557298
738465.45482584577985107899,2.69569994201483,-1.94792016357921,-298.290276802881
738465.45482593623455613852,2.75109103671377,-1.88329721976379,-298.308740501114
738465.45482602668926119804,2.73262733848079,-1.90176091799676,-298.336436048463
738465.45482611714396625757,2.74185918759728,-1.89252906888028,-298.225653859066
738465.45482620748225599527,2.70493179113132,-1.94792016357921,-298.290276802881
738465.45482629793696105480,2.71416364024781,-1.92945646534623,-298.308740501114
738465.45482638839166611433,2.7233954893643,-1.91099276711325,-298.31797235023
738465.45482647884637117386,2.74185918759728,-1.91099276711325,-298.244117557298
738465.45482656930107623339,2.67723624378185,-1.9571520126957,-298.299508651997
738465.45482665975578129292,2.73262733848079,-1.90176091799676,-298.336436048463
738465.45482675021048635244,2.77878658406323,-1.86483352153081,-298.290276802881
738465.45482684054877609015,2.71416364024781,-1.92022461622974,-298.271813104648
738465.45482693100348114967,2.64954069643239,-1.99407940916166,-298.299508651997
738465.45482702145818620920,2.62184514908292,-2.00331125827815,-298.244117557298
738465.45482711191289126873,2.68646809289834,-1.96638386181219,-298.1887264626
738465.45482720236759632826,2.70493179113132,-1.92945646534623,-298.299508651997
738465.45482729282230138779,2.69569994201483,-1.93868831446272,-298.308740501114
738465.45482738327700644732,2.71416364024781,-1.91099276711325,-298.290276802881
738465.45482747373171150684,2.69569994201483,-1.92945646534623,-298.31797235023
738465.45482756407000124454,2.65877254554888,-1.97561571092868,-298.327204199347
738465.45482765452470630407,2.79725028229621,-1.84636982329783,-298.34566789758
738465.45482774497941136360,2.76032288583026,-1.8740653706473,-298.271813104648
738465.45482783543411642313,2.63107699819941,-2.02177495651112,-298.327204199347
738465.45482792588882148266,2.69569994201483,-1.98484756004517,-298.308740501114
738465.45482801634352654219,2.75109103671377,-1.93868831446272,-298.290276802881
738465.45482810679823160172,2.76032288583026,-1.92022461622974,-298.308740501114
738465.45482819713652133942,2.77878658406323,-1.89252906888028,-298.244117557298
738465.45482828759122639894,2.86187322611164,-1.81867427594836,-298.225653859066
738465.45482837804593145847,2.84340952787866,-1.83713797418134,-298.244117557298
738465.45482846850063651800,2.77878658406323,-1.89252906888028,-298.244117557298
738465.45482855895534157753,2.75109103671377,-1.91099276711325,-298.271813104648
738465.45482864941004663706,2.75109103671377,-1.88329721976379,-298.253349406415
738465.45482873986475169659,2.83417767876217,-1.80944242683187,-298.253349406415
738465.45482883020304143429,2.73262733848079,-1.91099276711325,-298.262581255531
738465.45482892065774649382,2.65877254554888,-1.97561571092868,-298.290276802881
738465.45482901111245155334,2.62184514908292,-2.01254310739463,-298.281044953764
738465.45482910156715661287,2.62184514908292,-2.01254310739463,-298.271813104648
738465.45482919202186167240,2.66800439466536,-1.9571520126957,-298.234885708182
738465.45482928247656673193,2.65877254554888,-1.98484756004517,-298.234885708182
738465.45482937293127179146,2.64954069643239,-2.00331125827815,-298.244117557298
738465.45482946326956152916,2.65877254554888,-1.98484756004517,-298.225653859066
738465.45482955372426658869,2.67723624378185,-1.9571520126957,-298.244117557298
738465.45482964417897164822,2.65877254554888,-1.93868831446272,-298.216422009949
738465.45482973463367670774,2.67723624378185,-1.92022461622974,-298.234885708182
738465.45482982508838176727,2.82494582964568,-1.63403729361858,-298.179494613483
738465.45482991554308682680,3.24037903988769,-1.37554551835688,-298.041016876736
738465.45483000599779188633,3.96046327097385,-1.2739951780755,-298.013321329386
738465.45483009633608162403,4.13586840418714,-1.44016846217231,-298.077944273202
738465.45483018679078668356,3.54503006073183,-1.89252906888028,-298.124103518784
738465.45483027724549174309,3.19421979430525,-2.10486159855953,-298.225653859066
738465.45483036770019680262,2.8064821314127,-2.23410748619037,-298.391827143162
738465.45483045815490186214,2.78801843317972,-2.06793420209357,-298.354899746696
738465.45483054860960692167,2.77878658406323,-1.94792016357921,-298.281044953764
738465.45483063906431198120,2.77878658406323,-1.90176091799676,-298.207190160833
738465.45483072940260171890,2.68646809289834,-1.97561571092868,-298.308740501114
738465.45483081985730677843,2.7233954893643,-1.92022461622974,-298.336436048463
738465.45483091031201183796,2.71416364024781,-1.93868831446272,-298.271813104648
738465.45483100076671689749,2.6403088473159,-1.99407940916166,-298.308740501114
738465.45483109122142195702,2.7233954893643,-1.91099276711325,-298.290276802881
738465.45483118167612701654,2.75109103671377,-1.88329721976379,-298.290276802881
738465.45483127213083207607,2.73262733848079,-1.91099276711325,-298.31797235023
738465.45483136246912181377,2.71416364024781,-1.91099276711325,-298.354899746696
738465.45483145292382687330,2.71416364024781,-1.92945646534623,-298.299508651997
738465.45483154337853193283,2.7233954893643,-1.91099276711325,-298.299508651997
738465.45483163383323699236,2.75109103671377,-1.89252906888028,-298.299508651997
738465.45483172428794205189,2.76032288583026,-1.8740653706473,-298.308740501114
738465.45483181474264711142,2.77878658406323,-1.84636982329783,-298.253349406415
738465.45483190519735217094,2.8895687734611,-1.75405133213294,-298.31797235023
738465.45483199553564190865,2.81571398052919,-1.83713797418134,-298.31797235023
738465.45483208599034696817,2.81571398052919,-1.81867427594836,-298.290276802881
738465.45483217644505202770,2.84340952787866,-1.78174687948241,-298.244117557298
738465.45483226689975708723,2.93572801904355,-1.698660237434,-298.197958311716
738465.45483235735446214676,2.92649616992706,-1.71712393566698,-298.197958311716
738465.45483244780916720629,2.93572801904355,-1.73558763389996,-298.216422009949
738465.45483253826387226582,2.94495986816004,-1.71712393566698,-298.225653859066
738465.45483262860216200352,3.00035096285897,-1.68942838831751,-298.197958311716
738465.45483271905686706305,2.99111911374248,-1.70789208655049,-298.179494613483
738465.45483280951157212257,2.92649616992706,-1.80021057771538,-298.225653859066
738465.45483289996627718210,2.94495986816004,-1.7909787285989,-298.244117557298
738465.45483299042098224163,2.92649616992706,-1.80944242683187,-298.281044953764
738465.45483308087568730116,2.83417767876217,-1.89252906888028,-298.244117557298
738465.45483317133039236069,2.88033692434461,-1.83713797418134,-298.225653859066
738465.45483326166868209839,2.8064821314127,-1.91099276711325,-298.31797235023
738465.45483335212338715792,2.73262733848079,-1.97561571092868,-298.244117557298
738465.45483344257809221745,2.8064821314127,-1.89252906888028,-298.225653859066
738465.45483353303279727697,2.82494582964568,-1.8740653706473,-298.225653859066
738465.45483362348750233650,2.74185918759728,-1.96638386181219,-298.234885708182
738465.45483371394220739603,2.74185918759728,-1.96638386181219,-298.225653859066
738465.45483380439691245556,2.78801843317972,-1.91099276711325,-298.244117557298
738465.45483389473520219326,2.83417767876217,-1.88329721976379,-298.299508651997
738465.45483398518990725279,2.74185918759728,-1.96638386181219,-298.308740501114
738465.45483407564461231232,2.75109103671377,-1.9571520126957,-298.31797235023
738465.45483416609931737185,2.79725028229621,-1.92945646534623,-298.179494613483
738465.45483425655402243137,2.81571398052919,-1.91099276711325,-298.299508651997
738465.45483434700872749090,2.76955473494675,-1.94792016357921,-298.31797235023
738465.45483443746343255043,2.76955473494675,-1.94792016357921,-298.327204199347
738465.45483452780172228813,2.76032288583026,-1.9571520126957,-298.34566789758
738465.45483461825642734766,2.77878658406323,-1.94792016357921,-298.34566789758
738465.45483470871113240719,2.8064821314127,-1.92022461622974,-298.354899746696
738465.45483479916583746672,2.8064821314127,-1.92945646534623,-298.281044953764
738465.45483488962054252625,2.78801843317972,-1.93868831446272,-298.308740501114
738465.45483498007524758577,2.79725028229621,-1.92022461622974,-298.327204199347
738465.45483507052995264530,2.84340952787866,-1.8740653706473,-298.327204199347
738465.45483516086824238300,2.83417767876217,-1.89252906888028,-298.327204199347
738465.45483525132294744253,2.78801843317972,-1.93868831446272,-298.31797235023
738465.45483534177765250206,2.74185918759728,-1.98484756004517,-298.290276802881
738465.45483543223235756159,2.75109103671377,-1.97561571092868,-298.308740501114
738465.45483552268706262112,2.75109103671377,-1.97561571092868,-298.364131595813
738465.45483561314176768064,2.78801843317972,-1.93868831446272,-298.308740501114
738465.45483570359647274017,2.81571398052919,-1.89252906888028,-298.336436048463
738465.45483579393476247787,2.73262733848079,-1.98484756004517,-298.336436048463
738465.45483588438946753740,2.76955473494675,-1.9571520126957,-298.354899746696
738465.45483597484417259693,2.78801843317972,-1.93868831446272,-298.281044953764
738465.45483606529887765646,2.81571398052919,-1.91099276711325,-298.244117557298
738465.45483615575358271599,2.82494582964568,-1.91099276711325,-298.234885708182
738465.45483624620828777552,2.77878658406323,-1.96638386181219,-298.253349406415
738465.45483633666299283504,2.84340952787866,-1.92022461622974,-298.253349406415
738465.45483642700128257275,2.78801843317972,-1.96638386181219,-298.262581255531
738465.45483651745598763227,2.78801843317972,-1.93868831446272,-298.281044953764
738465.45483660791069269180,2.83417767876217,-1.91099276711325,-298.271813104648
738465.45483669836539775133,2.82494582964568,-1.93868831446272,-298.271813104648
738465.45483678882010281086,2.84340952787866,-1.88329721976379,-298.234885708182
738465.45483687927480787039,2.82494582964568,-1.89252906888028,-298.244117557298
738465.45483696972951292992,2.88033692434461,-1.83713797418134,-298.290276802881
738465.45483706006780266762,2.81571398052919,-1.91099276711325,-298.308740501114
738465.45483715052250772715,2.76032288583026,-1.96638386181219,-298.290276802881
738465.45483724097721278667,2.70493179113132,-2.01254310739463,-298.281044953764
738465.45483733143191784620,2.74185918759728,-1.97561571092868,-298.327204199347
738465.45483742188662290573,2.74185918759728,-1.9571520126957,-298.34566789758
738465.45483751234132796526,2.75109103671377,-1.94792016357921,-298.299508651997
738465.45483760279603302479,2.74185918759728,-1.96638386181219,-298.105639820551
738465.45483769313432276249,2.8064821314127,-1.91099276711325,-298.281044953764
738465.45483778358902782202,2.74185918759728,-1.98484756004517,-298.336436048463
738465.45483787404373288155,2.71416364024781,-2.00331125827815,-298.34566789758
738465.45483796449843794107,2.67723624378185,-2.04947050386059,-298.354899746696
738465.45483805495314300060,2.66800439466536,-1.98484756004517,-298.281044953764
738465.45483814540784806013,2.75109103671377,-1.92022461622974,-298.271813104648
738465.45483823586255311966,2.97265541550951,-1.51402325510422,-298.142567217017
738465.45483832620084285736,3.48040711691641,-1.3570818201239,-298.041016876736
738465.45483841665554791689,4.1727958006531,-1.26476332895901,-297.97639393292
738465.45483850711025297642,4.06201361125523,-1.59710989715262,-298.031785027619
738465.45483859756495803595,3.39732047486801,-2.02177495651112,-298.253349406415
738465.45483868801966309547,2.95419171727653,-2.25257118442335,-298.401058992279
738465.45483877847436815500,2.82494582964568,-2.14178899502548,-298.437986388745
738465.45483886892907321453,2.81571398052919,-2.00331125827815,-298.308740501114
738465.45483895926736295223,2.78801843317972,-1.97561571092868,-298.336436048463
738465.45483904972206801176,2.79725028229621,-1.93868831446272,-298.336436048463
738465.45483914017677307129,2.7233954893643,-1.99407940916166,-298.290276802881
738465.45483923063147813082,2.74185918759728,-1.96638386181219,-298.364131595813
738465.45483932108618319035,2.78801843317972,-1.92945646534623,-298.364131595813
738465.45483941154088824987,2.77878658406323,-1.92945646534623,-298.327204199347
738465.45483950199559330940,2.86187322611164,-1.84636982329783,-298.327204199347
738465.45483959245029836893,2.82494582964568,-1.8740653706473,-298.31797235023
738465.45483968278858810663,2.76955473494675,-1.92945646534623,-298.327204199347
738465.45483977324329316616,2.71416364024781,-2.00331125827815,-298.31797235023
738465.45483986369799822569,2.78801843317972,-1.91099276711325,-298.34566789758
738465.45483995415270328522,2.76032288583026,-1.94792016357921,-298.34566789758
738465.45484004460740834475,2.78801843317972,-1.92022461622974,-298.290276802881
738465.45484013506211340427,3.01881466109195,-1.68019653920103,-298.308740501114
738465.45484022551681846380,2.78801843317972,-1.92022461622974,-298.336436048463
738465.45484031585510820150,2.77878658406323,-1.93868831446272,-298.31797235023
738465.45484040630981326103,2.90803247169408,-1.80944242683187,-298.308740501114
738465.45484049676451832056,2.96342356639302,-1.75405133213294,-298.31797235023
738465.45484058721922338009,3.04651020844142,-1.66173284096805,-298.244117557298
738465.45484067767392843962,3.00035096285897,-1.70789208655049,-298.124103518784
738465.45484076812863349915,3.03727835932493,-1.68942838831751,-298.179494613483
738465.45484085858333855867,3.01881466109195,-1.71712393566698,-298.216422009949
738465.45484094892162829638,3.03727835932493,-1.70789208655049,-298.207190160833
738465.45484103937633335590,3.04651020844142,-1.71712393566698,-298.225653859066
738465.45484112983103841543,2.95419171727653,-1.84636982329783,-298.059480574969
738465.45484122028574347496,2.93572801904355,-1.86483352153081,-298.170262764367
738465.45484131074044853449,2.99111911374248,-1.82790612506485,-298.262581255531
738465.45484140119515359402,2.93572801904355,-1.85560167241432,-298.281044953764
738465.45484149164985865355,2.91726432081057,-1.88329721976379,-298.308740501114
738465.45484158198814839125,2.91726432081057,-1.89252906888028,-298.271813104648
738465.45484167244285345078,2.84340952787866,-1.94792016357921,-298.281044953764
738465.45484176289755851030,2.91726432081057,-1.84636982329783,-298.290276802881
738465.45484185335226356983,2.83417767876217,-1.94792016357921,-298.299508651997
738465.45484194380696862936,2.88033692434461,-1.90176091799676,-298.34566789758
738465.45484203426167368889,2.99111911374248,-1.7909787285989,-298.271813104648
738465.45484212471637874842,2.84340952787866,-1.93868831446272,-298.299508651997
738465.45484221505466848612,2.83417767876217,-1.9571520126957,-298.281044953764
738465.45484230550937354565,2.81571398052919,-1.98484756004517,-298.31797235023
738465.45484239596407860518,2.81571398052919,-1.99407940916166,-298.336436048463
738465.45484248641878366470,2.83417767876217,-1.97561571092868,-298.31797235023
738465.45484257687348872423,2.86187322611164,-1.9571520126957,-298.244117557298
738465.45484266732819378376,2.99111911374248,-1.80944242683187,-298.271813104648
738465.45484275778289884329,2.91726432081057,-1.8740653706473,-298.327204199347
738465.45484284812118858099,2.76955473494675,-2.03100680562761,-298.336436048463
738465.45484293857589364052,2.88033692434461,-1.92945646534623,-298.31797235023
738465.45484302903059870005,2.91726432081057,-1.89252906888028,-298.31797235023
738465.45484311948530375957,2.83417767876217,-1.97561571092868,-298.31797235023
738465.45484320994000881910,2.83417767876217,-1.97561571092868,-298.327204199347
738465.45484330039471387863,2.88033692434461,-1.92945646534623,-298.308740501114
738465.45484339084941893816,2.83417767876217,-1.97561571092868,-298.34566789758
738465.45484348118770867586,2.85264137699515,-1.9571520126957,-298.31797235023
738465.45484357164241373539,2.8064821314127,-2.00331125827815,-298.327204199347
738465.45484366209711879492,2.82494582964568,-1.98484756004517,-298.336436048463
738465.45484375255182385445,2.99111911374248,-1.82790612506485,-298.327204199347
738465.45484384300652891397,2.87110507522813,-1.93868831446272,-298.308740501114
738465.45484393346123397350,2.76955473494675,-2.03100680562761,-298.290276802881
738465.45484402391593903303,2.85264137699515,-1.94792016357921,-298.34566789758
738465.45484411425422877073,2.88033692434461,-1.93868831446272,-298.34566789758
738465.45484420470893383026,2.93572801904355,-1.88329721976379,-298.299508651997
738465.45484429516363888979,2.88033692434461,-1.93868831446272,-298.34566789758
738465.45484438561834394932,2.77878658406323,-2.06793420209357,-298.354899746696
738465.45484447607304900885,2.93572801904355,-1.91099276711325,-298.290276802881
738465.45484456652775406837,2.88033692434461,-1.96638386181219,-298.364131595813
738465.45484465698245912790,2.90803247169408,-1.92022461622974,-298.207190160833
738465.45484474732074886560,2.86187322611164,-1.9571520126957,-298.216422009949
738465.45484483777545392513,2.96342356639302,-1.8740653706473,-298.207190160833
738465.45484492823015898466,2.97265541550951,-1.85560167241432,-298.1887264626
738465.45484501868486404419,2.95419171727653,-1.85560167241432,-298.216422009949
738465.45484510913956910372,2.87110507522813,-1.94792016357921,-298.253349406415
738465.45484519959427416325,2.90803247169408,-1.90176091799676,-298.253349406415
738465.45484529004897922277,2.76955473494675,-2.05870235297708,-298.262581255531
738465.45484538038726896048,2.75109103671377,-2.08639790032655,-298.308740501114
738465.45484547084197402000,2.81571398052919,-1.98484756004517,-298.308740501114
738465.45484556129667907953,2.85264137699515,-1.96638386181219,-298.271813104648
738465.45484565175138413906,2.84340952787866,-1.96638386181219,-298.271813104648
738465.45484574220608919859,2.78801843317972,-2.03100680562761,-298.290276802881
738465.45484583266079425812,2.83417767876217,-1.99407940916166,-298.290276802881
738465.45484592311549931765,2.87110507522813,-1.94792016357921,-298.281044953764
738465.45484601345378905535,2.77878658406323,-2.04947050386059,-298.299508651997
738465.45484610390849411488,2.79725028229621,-2.0402386547441,-298.299508651997
738465.45484619436319917440,2.73262733848079,-2.0402386547441,-298.299508651997
738465.45484628481790423393,2.84340952787866,-1.93868831446272,-298.299508651997
738465.45484637527260929346,3.04651020844142,-1.52325510422071,-298.207190160833
738465.45484646572731435299,3.45271156956694,-1.36631366924039,-298.087176122318
738465.45484655618201941252,4.15433210242012,-1.2739951780755,-298.077944273202
738465.45484664652030915022,4.14510025330363,-1.57864619891964,-298.151799066134
738465.45484673697501420975,3.48040711691641,-2.09562974944304,-298.262581255531
738465.45484682742971926928,3.03727835932493,-2.31719412823878,-298.391827143162
738465.45484691788442432880,2.95419171727653,-2.14178899502548,-298.419522690512
738465.45484700833912938833,2.981887264626,-1.9571520126957,-298.327204199347
738465.45484709879383444786,2.94495986816004,-1.92945646534623,-298.308740501114
738465.45484718924853950739,2.91726432081057,-1.92945646534623,-298.336436048463
738465.45484727958682924509,2.95419171727653,-1.89252906888028,-298.34566789758
738465.45484737004153430462,2.81571398052919,-2.01254310739463,-298.354899746696
738465.45484746049623936415,2.74185918759728,-2.07716605121006,-298.34566789758
738465.45484755095094442368,2.84340952787866,-1.96638386181219,-298.336436048463
738465.45484764140564948320,2.84340952787866,-1.96638386181219,-298.336436048463
738465.45484773186035454273,2.85264137699515,-1.9571520126957,-298.290276802881
738465.45484782231505960226,2.96342356639302,-1.84636982329783,-298.31797235023
738465.45484791265334933996,2.92649616992706,-1.88329721976379,-298.354899746696
738465.45484800310805439949,2.93572801904355,-1.86483352153081,-298.253349406415
738465.45484809356275945902,2.84340952787866,-1.96638386181219,-298.336436048463
738465.45484818401746451855,2.8895687734611,-1.92022461622974,-298.1887264626
738465.45484827447216957808,2.94495986816004,-1.85560167241432,-298.197958311716
738465.45484836492687463760,2.91726432081057,-1.90176091799676,-298.308740501114
738465.45484845538157969713,3.00958281197546,-1.80944242683187,-298.299508651997
738465.45484854571986943483,3.05574205755791,-1.75405133213294,-298.31797235023
738465.45484863617457449436,3.00035096285897,-1.80021057771538,-298.216422009949
738465.45484872662927955389,3.02804651020844,-1.76328318124943,-298.290276802881
738465.45484881708398461342,3.02804651020844,-1.7909787285989,-298.299508651997
738465.45484890753868967295,3.11113315225684,-1.698660237434,-298.225653859066
738465.45484899799339473248,3.13882869960631,-1.68019653920103,-298.262581255531
738465.45484908844809979200,3.04651020844142,-1.7909787285989,-298.271813104648
738465.45484917878638952971,3.13882869960631,-1.70789208655049,-298.253349406415
738465.45484926924109458923,3.25884273812067,-1.62480544450209,-298.207190160833
738465.45484935969579964876,3.0649739066744,-1.82790612506485,-298.197958311716
738465.45484945015050470829,3.12036500137333,-1.77251503036592,-298.197958311716
738465.45484954060520976782,2.95419171727653,-1.93868831446272,-298.216422009949
738465.45484963105991482735,2.93572801904355,-1.96638386181219,-298.234885708182
738465.45484972151461988688,2.981887264626,-1.91099276711325,-298.281044953764
738465.45484981185290962458,3.04651020844142,-1.83713797418134,-298.234885708182
738465.45484990230761468410,2.90803247169408,-1.9571520126957,-298.262581255531
738465.45484999276231974363,2.89880062257759,-1.98484756004517,-298.308740501114
738465.45485008321702480316,2.93572801904355,-1.93868831446272,-298.281044953764
738465.45485017367172986269,3.00958281197546,-1.86483352153081,-298.271813104648
738465.45485026412643492222,3.07420575579089,-1.80944242683187,-298.308740501114
738465.45485035458113998175,2.86187322611164,-2.03100680562761,-298.336436048463
738465.45485044491942971945,2.83417767876217,-2.04947050386059,-298.34566789758
738465.45485053537413477898,2.95419171727653,-1.93868831446272,-298.299508651997
738465.45485062582883983850,3.01881466109195,-1.8740653706473,-298.290276802881
738465.45485071628354489803,2.89880062257759,-1.98484756004517,-298.299508651997
738465.45485080673824995756,2.90803247169408,-1.98484756004517,-298.34566789758
738465.45485089719295501709,2.94495986816004,-1.9571520126957,-298.364131595813
738465.45485098764766007662,2.99111911374248,-1.91099276711325,-298.354899746696
738465.45485107798594981432,2.981887264626,-1.91099276711325,-298.262581255531
738465.45485116844065487385,2.96342356639302,-1.92945646534623,-298.336436048463
738465.45485125889535993338,2.97265541550951,-1.91099276711325,-298.31797235023
738465.45485134935006499290,2.88033692434461,-2.02177495651112,-298.31797235023
738465.45485143980477005243,2.92649616992706,-1.97561571092868,-298.31797235023
738465.45485153025947511196,2.96342356639302,-1.93868831446272,-298.364131595813
738465.45485162071418017149,3.02804651020844,-1.86483352153081,-298.364131595813
738465.45485171116888523102,2.81571398052919,-2.07716605121006,-298.225653859066
738465.45485180150717496872,2.89880062257759,-2.00331125827815,-298.244117557298
738465.45485189196188002825,2.97265541550951,-1.93868831446272,-298.34566789758
738465.45485198241658508778,2.94495986816004,-1.94792016357921,-298.308740501114
738465.45485207287129014730,2.91726432081057,-1.97561571092868,-298.34566789758
738465.45485216332599520683,2.89880062257759,-1.99407940916166,-298.364131595813
738465.45485225378070026636,2.89880062257759,-1.99407940916166,-298.336436048463
738465.45485234423540532589,2.95419171727653,-1.94792016357921,-298.354899746696
738465.45485243457369506359,2.94495986816004,-1.9571520126957,-298.364131595813
738465.45485252502840012312,2.95419171727653,-1.94792016357921,-298.34566789758
738465.45485261548310518265,3.00958281197546,-1.91099276711325,-298.327204199347
738465.45485270593781024218,3.0649739066744,-1.8740653706473,-298.373363444929
738465.45485279639251530170,2.981887264626,-1.94792016357921,-298.364131595813
738465.45485288684722036123,2.981887264626,-1.93868831446272,-298.327204199347
738465.45485297730192542076,3.01881466109195,-1.91099276711325,-298.327204199347
738465.45485306764021515846,3.00958281197546,-1.91099276711325,-298.281044953764
738465.45485315809492021799,3.01881466109195,-1.88329721976379,-298.244117557298
738465.45485324854962527752,2.981887264626,-1.91099276711325,-298.253349406415
738465.45485333900433033705,2.99111911374248,-1.90176091799676,-298.262581255531
738465.45485342945903539658,2.96342356639302,-1.92945646534623,-298.262581255531
738465.45485351991374045610,2.92649616992706,-1.96638386181219,-298.308740501114
738465.45485361036844551563,2.90803247169408,-1.98484756004517,-298.271813104648
738465.45485370070673525333,2.95419171727653,-1.94792016357921,-298.253349406415
738465.45485379116144031286,2.86187322611164,-2.03100680562761,-298.327204199347
738465.45485388161614537239,2.84340952787866,-2.0402386547441,-298.271813104648
738465.45485397207085043192,2.8895687734611,-1.99407940916166,-298.290276802881
738465.45485406252555549145,2.96342356639302,-1.93868831446272,-298.354899746696
738465.45485415298026055098,2.92649616992706,-1.99407940916166,-298.281044953764
738465.45485424343496561050,2.85264137699515,-2.0402386547441,-298.281044953764
738465.45485433377325534821,2.87110507522813,-1.99407940916166,-298.31797235023
738465.45485442422796040773,2.90803247169408,-1.94792016357921,-298.327204199347
738465.45485451468266546726,2.981887264626,-1.65250099185156,-298.290276802881
738465.45485460513737052679,3.46194341868343,-1.34784997100742,-298.179494613483
738465.45485469559207558632,4.20049134800256,-1.1909085360271,-297.948698385571
738465.45485478604678064585,4.2558824427015,-1.32938627277444,-297.994857631153
738465.45485487650148570538,3.94199957274087,-1.78174687948241,-298.1887264626
738465.45485496683977544308,3.33269753105258,-2.19718008972442,-298.364131595813
738465.45485505729448050261,3.0649739066744,-2.20641193884091,-298.428754539628
738465.45485514774918556213,3.05574205755791,-2.01254310739463,-298.299508651997
738465.45485523820389062166,3.00958281197546,-1.93868831446272,-298.244117557298
738465.45485532865859568119,2.95419171727653,-1.9571520126957,-298.262581255531
738465.45485541911330074072,2.93572801904355,-1.96638386181219,-298.354899746696
738465.45485550956800580025,2.86187322611164,-2.00331125827815,-298.308740501114
738465.45485559990629553795,2.93572801904355,-1.93868831446272,-298.336436048463
738465.45485569036100059748,2.99111911374248,-1.86483352153081,-298.34566789758
738465.45485578081570565701,2.95419171727653,-1.89252906888028,-298.382595294046
738465.45485587127041071653,2.92649616992706,-1.93868831446272,-298.336436048463
738465.45485596172511577606,2.92649616992706,-1.93868831446272,-298.34566789758
738465.45485605217982083559,2.89880062257759,-1.9571520126957,-298.327204199347
738465.45485614263452589512,2.87110507522813,-1.98484756004517,-298.244117557298
738465.45485623297281563282,2.95419171727653,-1.89252906888028,-298.271813104648
738465.45485632342752069235,2.96342356639302,-1.8740653706473,-298.262581255531
738465.45485641388222575188,3.00958281197546,-1.82790612506485,-298.225653859066
738465.45485650433693081141,2.981887264626,-1.86483352153081,-298.290276802881
738465.45485659479163587093,3.12036500137333,-1.73558763389996,-298.327204199347
738465.45485668524634093046,3.12036500137333,-1.72635578478347,-298.308740501114
738465.45485677570104598999,3.0649739066744,-1.76328318124943,-298.281044953764
738465.45485686603933572769,3.04651020844142,-1.7909787285989,-298.290276802881
738465.45485695649404078722,3.07420575579089,-1.78174687948241,-298.31797235023
738465.45485704694874584675,3.11113315225684,-1.71712393566698,-298.271813104648
738465.45485713740345090628,3.15729239783929,-1.698660237434,-298.244117557298
738465.45485722785815596581,3.20345164342174,-1.67096469008454,-298.299508651997
738465.45485731831286102533,3.13882869960631,-1.74481948301645,-298.308740501114
738465.45485740876756608486,3.2311471907712,-1.67096469008454,-298.207190160833
738465.45485749910585582256,3.15729239783929,-1.78174687948241,-298.281044953764
738465.45485758956056088209,3.13882869960631,-1.80944242683187,-298.299508651997
738465.45485768001526594162,3.13882869960631,-1.80944242683187,-298.308740501114
738465.45485777046997100115,3.08343760490738,-1.85560167241432,-298.308740501114
738465.45485786092467606068,3.01881466109195,-1.90176091799676,-298.364131595813
738465.45485795137938112020,3.09266945402387,-1.81867427594836,-298.299508651997
738465.45485804183408617973,2.93572801904355,-1.9571520126957,-298.281044953764
738465.45485813217237591743,2.95419171727653,-1.94792016357921,-298.290276802881
738465.45485822262708097696,2.97265541550951,-1.92945646534623,-298.308740501114
738465.45485831308178603649,3.03727835932493,-1.8740653706473,-298.308740501114
738465.45485840353649109602,2.981887264626,-1.92022461622974,-298.308740501114
738465.45485849399119615555,2.94495986816004,-1.97561571092868,-298.308740501114
738465.45485858444590121508,2.95419171727653,-1.97561571092868,-298.299508651997
738465.45485867490060627460,2.95419171727653,-1.97561571092868,-298.31797235023
738465.45485876523889601231,3.01881466109195,-1.90176091799676,-298.271813104648
738465.45485885569360107183,3.00958281197546,-1.90176091799676,-298.225653859066
738465.45485894614830613136,2.97265541550951,-1.9571520126957,-298.308740501114
738465.45485903660301119089,2.95419171727653,-1.98484756004517,-298.364131595813
738465.45485912705771625042,3.00035096285897,-1.92945646534623,-298.354899746696
738465.45485921751242130995,3.0649739066744,-1.85560167241432,-298.299508651997
738465.45485930796712636948,3.02804651020844,-1.88329721976379,-298.262581255531
738465.45485939830541610718,3.00035096285897,-1.92022461622974,-298.281044953764
738465.45485948876012116671,2.99111911374248,-1.92945646534623,-298.299508651997
738465.45485957921482622623,2.95419171727653,-1.97561571092868,-298.299508651997
738465.45485966966953128576,2.96342356639302,-1.97561571092868,-298.253349406415
738465.45485976012423634529,2.97265541550951,-1.94792016357921,-298.281044953764
738465.45485985057894140482,3.00958281197546,-1.91099276711325,-298.34566789758
738465.45485994103364646435,3.03727835932493,-1.88329721976379,-298.308740501114
738465.45486003137193620205,3.01881466109195,-1.90176091799676,-298.34566789758
738465.45486012182664126158,3.00035096285897,-1.92022461622974,-298.373363444929
738465.45486021228134632111,2.8895687734611,-2.0402386547441,-298.364131595813
738465.45486030273605138063,2.92649616992706,-1.99407940916166,-298.327204199347
738465.45486039319075644016,2.93572801904355,-2.00331125827815,-298.364131595813
738465.45486048364546149969,2.93572801904355,-1.99407940916166,-298.373363444929
738465.45486057410016655922,2.99111911374248,-1.94792016357921,-298.373363444929
738465.45486066443845629692,3.11113315225684,-1.82790612506485,-298.34566789758
738465.45486075489316135645,3.07420575579089,-1.88329721976379,-298.373363444929
738465.45486084534786641598,2.981887264626,-1.99407940916166,-298.364131595813
738465.45486093580257147551,2.97265541550951,-1.97561571092868,-298.308740501114
738465.45486102625727653503,3.05574205755791,-1.89252906888028,-298.364131595813
738465.45486111671198159456,3.01881466109195,-1.92022461622974,-298.354899746696
738465.45486120716668665409,3.02804651020844,-1.90176091799676,-298.281044953764
738465.45486129750497639179,3.03727835932493,-1.89252906888028,-298.34566789758
738465.45486138795968145132,3.00035096285897,-1.92022461622974,-298.373363444929
738465.45486147841438651085,2.94495986816004,-1.96638386181219,-298.336436048463
738465.45486156886909157038,3.00958281197546,-1.90176091799676,-298.373363444929
738465.45486165932379662991,2.94495986816004,-1.97561571092868,-298.391827143162
738465.45486174977850168943,2.85264137699515,-2.05870235297708,-298.34566789758
738465.45486184023320674896,2.89880062257759,-2.00331125827815,-298.354899746696
738465.45486193057149648666,2.93572801904355,-1.97561571092868,-298.401058992279
738465.45486202102620154619,2.95419171727653,-1.9571520126957,-298.410290841395
738465.45486211148090660572,3.02804651020844,-1.88329721976379,-298.336436048463
738465.45486220193561166525,2.91726432081057,-1.98484756004517,-298.31797235023
738465.45486229239031672478,2.86187322611164,-2.04947050386059,-298.281044953764
738465.45486238284502178431,2.8895687734611,-2.01254310739463,-298.207190160833
738465.45486247329972684383,2.83417767876217,-2.02177495651112,-298.281044953764
738465.45486256363801658154,2.96342356639302,-1.82790612506485,-298.244117557298
738465.45486265409272164106,3.37885677663503,-1.36631366924039,-298.096407971435
738465.45486274454742670059,4.11740470595416,-1.23706778160955,-298.013321329386
738465.45486283500213176012,4.31127353740043,-1.43093661305582,-297.994857631153
738465.45486292545683681965,3.90507217627491,-1.84636982329783,-298.16103091525
738465.45486301591154187918,3.38808862575152,-2.10486159855953,-298.354899746696
738465.45486310636624693871,2.96342356639302,-2.24333933530686,-298.382595294046
738465.45486319670453667641,3.03727835932493,-2.06793420209357,-298.34566789758
738465.45486328715924173594,2.981887264626,-2.00331125827815,-298.327204199347
738465.45486337761394679546,3.05574205755791,-1.89252906888028,-298.281044953764
738465.45486346806865185499,2.92649616992706,-2.00331125827815,-298.354899746696
738465.45486355852335691452,2.94495986816004,-1.96638386181219,-298.373363444929
738465.45486364897806197405,2.94495986816004,-1.96638386181219,-298.299508651997
738465.45486373943276703358,2.94495986816004,-1.9571520126957,-298.308740501114
738465.45486382977105677128,2.981887264626,-1.92945646534623,-298.31797235023
738465.45486392022576183081,2.95419171727653,-1.9571520126957,-298.354899746696
738465.45486401068046689034,2.97265541550951,-1.9571520126957,-298.401058992279
738465.45486410113517194986,2.99111911374248,-1.91099276711325,-298.262581255531
738465.45486419158987700939,2.97265541550951,-1.92945646534623,-298.31797235023
738465.45486428204458206892,3.00035096285897,-1.91099276711325,-298.299508651997
738465.45486437249928712845,3.05574205755791,-1.86483352153081,-298.262581255531
738465.45486446295399218798,2.981887264626,-1.91099276711325,-298.244117557298
738465.45486455329228192568,3.03727835932493,-1.85560167241432,-298.262581255531
738465.45486464374698698521,3.02804651020844,-1.88329721976379,-298.262581255531
738465.45486473420169204473,3.11113315225684,-1.80944242683187,-298.244117557298
738465.45486482465639710426,3.15729239783929,-1.76328318124943,-298.290276802881
738465.45486491511110216379,3.12959685048982,-1.78174687948241,-298.299508651997
738465.45486500556580722332,3.11113315225684,-1.81867427594836,-298.271813104648
738465.45486509602051228285,3.15729239783929,-1.78174687948241,-298.299508651997
738465.45486518635880202055,3.21268349253822,-1.71712393566698,-298.281044953764
738465.45486527681350708008,3.2311471907712,-1.73558763389996,-298.299508651997
738465.45486536726821213961,3.25884273812067,-1.73558763389996,-298.244117557298
738465.45486545772291719913,3.26807458723716,-1.74481948301645,-298.281044953764
738465.45486554817762225866,3.15729239783929,-1.86483352153081,-298.308740501114
738465.45486563863232731819,3.1480605487228,-1.8740653706473,-298.281044953764
738465.45486572908703237772,3.18498794518876,-1.81867427594836,-298.327204199347
738465.45486581942532211542,3.10190130314035,-1.89252906888028,-298.151799066134
738465.45486590988002717495,3.02804651020844,-1.9571520126957,-298.225653859066
738465.45486600033473223448,3.04651020844142,-1.9571520126957,-298.34566789758
738465.45486609078943729401,3.04651020844142,-1.93868831446272,-298.34566789758
738465.45486618124414235353,3.04651020844142,-1.93868831446272,-298.336436048463
738465.45486627169884741306,3.03727835932493,-1.94792016357921,-298.31797235023
738465.45486636215355247259,3.00035096285897,-1.97561571092868,-298.34566789758
738465.45486645249184221029,3.04651020844142,-1.93868831446272,-298.354899746696
738465.45486654294654726982,3.03727835932493,-1.94792016357921,-298.271813104648
738465.45486663340125232935,3.0649739066744,-1.92022461622974,-298.290276802881
738465.45486672385595738888,3.04651020844142,-1.94792016357921,-298.308740501114
738465.45486681431066244841,3.0649739066744,-1.94792016357921,-298.253349406415
738465.45486690476536750793,3.05574205755791,-1.93868831446272,-298.262581255531
738465.45486699522007256746,3.08343760490738,-1.90176091799676,-298.281044953764
738465.45486708555836230516,3.00958281197546,-1.99407940916166,-298.290276802881
738465.45486717601306736469,2.99111911374248,-2.00331125827815,-298.299508651997
738465.45486726646777242422,3.00035096285897,-2.00331125827815,-298.327204199347
738465.45486735692247748375,3.03727835932493,-1.9571520126957,-298.327204199347
738465.45486744737718254328,3.05574205755791,-1.93868831446272,-298.308740501114
738465.45486753783188760281,3.05574205755791,-1.93868831446272,-298.336436048463
738465.45486762828659266233,3.03727835932493,-1.96638386181219,-298.336436048463
738465.45486771862488240004,3.07420575579089,-1.92945646534623,-298.262581255531
738465.45486780907958745956,3.08343760490738,-1.92022461622974,-298.253349406415
738465.45486789953429251909,3.00035096285897,-2.01254310739463,-298.327204199347
738465.45486798998899757862,2.981887264626,-2.01254310739463,-298.31797235023
738465.45486808044370263815,3.00035096285897,-1.99407940916166,-298.327204199347
738465.45486817089840769768,3.07420575579089,-1.92945646534623,-298.354899746696
738465.45486826135311275721,3.0649739066744,-1.92945646534623,-298.354899746696
738465.45486835169140249491,3.00035096285897,-1.99407940916166,-298.290276802881
738465.45486844214610755444,2.99111911374248,-2.01254310739463,-298.364131595813
738465.45486853260081261396,3.00958281197546,-2.00331125827815,-298.34566789758
738465.45486862305551767349,3.03727835932493,-1.98484756004517,-298.336436048463
738465.45486871351022273302,3.01881466109195,-2.02177495651112,-298.327204199347
738465.45486880396492779255,3.04651020844142,-1.98484756004517,-298.34566789758
738465.45486889441963285208,3.08343760490738,-1.9571520126957,-298.336436048463
738465.45486898475792258978,3.1480605487228,-1.88329721976379,-298.253349406415
738465.45486907521262764931,3.12959685048982,-1.91099276711325,-298.31797235023
738465.45486916566733270884,3.10190130314035,-1.93868831446272,-298.327204199347
738465.45486925612203776836,3.09266945402387,-1.92945646534623,-298.299508651997
738465.45486934657674282789,3.11113315225684,-1.90176091799676,-298.179494613483
738465.45486943703144788742,3.05574205755791,-1.9571520126957,-298.281044953764
738465.45486952748615294695,3.08343760490738,-1.92022461622974,-298.354899746696
738465.45486961782444268465,3.02804651020844,-1.96638386181219,-298.308740501114
738465.45486970827914774418,2.92649616992706,-2.07716605121006,-298.34566789758
738465.45486979873385280371,2.96342356639302,-2.0402386547441,-298.401058992279
738465.45486988918855786324,2.99111911374248,-2.01254310739463,-298.336436048463
738465.45486997964326292276,3.01881466109195,-1.97561571092868,-298.336436048463
738465.45487007009796798229,2.96342356639302,-2.0402386547441,-298.382595294046
738465.45487016055267304182,2.93572801904355,-2.05870235297708,-298.382595294046
738465.45487025089096277952,3.00035096285897,-1.99407940916166,-298.281044953764
738465.45487034134566783905,3.13882869960631,-1.85560167241432,-298.336436048463
738465.45487043180037289858,2.92649616992706,-2.07716605121006,-298.364131595813
738465.45487052225507795811,2.85264137699515,-2.07716605121006,-298.290276802881
738465.45487061270978301764,3.00958281197546,-1.92945646534623,-298.262581255531
738465.45487070316448807716,3.35116122928556,-1.45863216040529,-298.133335367901
738465.45487079361919313669,4.00662251655629,-1.34784997100742,-298.022553178503
738465.45487088395748287439,4.41282387768181,-1.39400921658986,-298.013321329386
738465.45487097441218793392,4.1727958006531,-1.698660237434,-298.142567217017
738465.45487106486689299345,3.49887081514939,-2.11409344767602,-298.299508651997
738465.45487115532159805298,3.07420575579089,-2.28949858088931,-298.391827143162
738465.45487124577630311251,3.08343760490738,-2.1233252967925,-298.373363444929
738465.45487133623100817204,3.09266945402387,-1.99407940916166,-298.31797235023
738465.45487142668571323156,3.12959685048982,-1.91099276711325,-298.336436048463
738465.45487151702400296926,2.981887264626,-2.03100680562761,-298.34566789758
738465.45487160747870802879,2.981887264626,-2.03100680562761,-298.364131595813
738465.45487169793341308832,3.02804651020844,-1.97561571092868,-298.327204199347
738465.45487178838811814785,3.08343760490738,-1.92022461622974,-298.253349406415
738465.45487187884282320738,3.04651020844142,-1.9571520126957,-298.354899746696
738465.45487196929752826691,2.97265541550951,-2.02177495651112,-298.299508651997
738465.45487205975223332644,3.03727835932493,-1.9571520126957,-298.271813104648
738465.45487215009052306414,3.05574205755791,-1.93868831446272,-298.271813104648
738465.45487224054522812366,3.12036500137333,-1.8740653706473,-298.299508651997
738465.45487233099993318319,3.08343760490738,-1.92945646534623,-298.281044953764
738465.45487242145463824272,3.0649739066744,-1.93868831446272,-298.290276802881
738465.45487251190934330225,3.12036500137333,-1.88329721976379,-298.327204199347
738465.45487260236404836178,3.05574205755791,-1.94792016357921,-298.34566789758
738465.45487269281875342131,3.09266945402387,-1.90176091799676,-298.31797235023
738465.45487278315704315901,3.17575609607227,-1.82790612506485,-298.281044953764
738465.45487287361174821854,3.21268349253822,-1.7909787285989,-298.151799066134
738465.45487296406645327806,3.27730643635365,-1.71712393566698,-298.207190160833
738465.45487305452115833759,3.22191534165471,-1.78174687948241,-298.207190160833
738465.45487314497586339712,3.20345164342174,-1.80021057771538,-298.225653859066
738465.45487323543056845665,3.22191534165471,-1.80021057771538,-298.225653859066
738465.45487332588527351618,3.30500198370312,-1.73558763389996,-298.1887264626
738465.45487341622356325388,3.4065523239845,-1.65250099185156,-298.234885708182
738465.45487350667826831341,3.26807458723716,-1.80944242683187,-298.299508651997
738465.45487359713297337294,3.26807458723716,-1.81867427594836,-298.308740501114
738465.45487368758767843246,3.26807458723716,-1.82790612506485,-298.281044953764
738465.45487377804238349199,3.24037903988769,-1.84636982329783,-298.34566789758
738465.45487386849708855152,3.22191534165471,-1.84636982329783,-298.31797235023
738465.45487395895179361105,3.15729239783929,-1.92945646534623,-298.290276802881
738465.45487404929008334875,3.13882869960631,-1.93868831446272,-298.327204199347
738465.45487413974478840828,3.12959685048982,-1.94792016357921,-298.34566789758
738465.45487423019949346781,3.1480605487228,-1.92022461622974,-298.336436048463
738465.45487432065419852734,3.10190130314035,-1.96638386181219,-298.336436048463
738465.45487441110890358686,3.08343760490738,-1.98484756004517,-298.34566789758
738465.45487450156360864639,3.12959685048982,-1.93868831446272,-298.327204199347
738465.45487459201831370592,3.11113315225684,-1.9571520126957,-298.299508651997
738465.45487468235660344362,3.07420575579089,-2.00331125827815,-298.354899746696
738465.45487477281130850315,3.08343760490738,-2.00331125827815,-298.373363444929
738465.45487486326601356268,3.12036500137333,-1.96638386181219,-298.253349406415
738465.45487495372071862221,3.18498794518876,-1.90176091799676,-298.336436048463
738465.45487504417542368174,3.11113315225684,-1.98484756004517,-298.364131595813
738465.45487513463012874126,3.10190130314035,-1.98484756004517,-298.290276802881
738465.45487522508483380079,3.12036500137333,-1.98484756004517,-298.327204199347
738465.45487531542312353849,3.17575609607227,-1.92022461622974,-298.373363444929
738465.45487540587782859802,3.11113315225684,-1.98484756004517,-298.354899746696
738465.45487549633253365755,3.12959685048982,-1.96638386181219,-298.31797235023
738465.45487558678723871708,3.1480605487228,-1.94792016357921,-298.336436048463
738465.45487567724194377661,3.15729239783929,-1.94792016357921,-298.327204199347
738465.45487576769664883614,3.17575609607227,-1.92022461622974,-298.31797235023
738465.45487585815135389566,3.08343760490738,-2.01254310739463,-298.262581255531
738465.45487594848964363337,3.0649739066744,-2.02177495651112,-298.290276802881
738465.45487603894434869289,3.12959685048982,-1.96638386181219,-298.327204199347
738465.45487612939905375242,3.12959685048982,-1.96638386181219,-298.308740501114
738465.45487621985375881195,3.12036500137333,-1.97561571092868,-298.31797235023
738465.45487631030846387148,3.12036500137333,-1.97561571092868,-298.308740501114
738465.45487640076316893101,3.12036500137333,-1.97561571092868,-298.1887264626
738465.45487649121787399054,3.11113315225684,-1.98484756004517,-298.234885708182
738465.45487658167257905006,3.08343760490738,-2.01254310739463,-298.262581255531
738465.45487667201086878777,3.07420575579089,-2.01254310739463,-298.299508651997
738465.45487676246557384729,3.12959685048982,-1.96638386181219,-298.34566789758
738465.45487685292027890682,3.12959685048982,-1.98484756004517,-298.382595294046
738465.45487694337498396635,3.13882869960631,-1.99407940916166,-298.308740501114
738465.45487703382968902588,3.17575609607227,-1.9571520126957,-298.34566789758
738465.45487712428439408541,3.20345164342174,-1.92945646534623,-298.34566789758
738465.45487721473909914494,3.17575609607227,-1.94792016357921,-298.354899746696
738465.45487730507738888264,3.17575609607227,-1.94792016357921,-298.336436048463
738465.45487739553209394217,3.22191534165471,-1.92022461622974,-298.336436048463
738465.45487748598679900169,3.20345164342174,-1.92022461622974,-298.364131595813
738465.45487757644150406122,3.21268349253822,-1.89252906888028,-298.281044953764
738465.45487766689620912075,3.21268349253822,-1.90176091799676,-298.354899746696
738465.45487775735091418028,3.13882869960631,-1.97561571092868,-298.34566789758
738465.45487784780561923981,3.09266945402387,-2.02177495651112,-298.364131595813
738465.45487793814390897751,3.15729239783929,-1.94792016357921,-298.327204199347
738465.45487802859861403704,3.12036500137333,-1.98484756004517,-298.391827143162
738465.45487811905331909657,3.02804651020844,-2.07716605121006,-298.401058992279
738465.45487820950802415609,3.09266945402387,-2.00331125827815,-298.327204199347
738465.45487829996272921562,3.18498794518876,-1.92022461622974,-298.354899746696
738465.45487839041743427515,3.07420575579089,-2.0402386547441,-298.336436048463
738465.45487848087213933468,3.11113315225684,-2.00331125827815,-298.281044953764
738465.45487857121042907238,3.04651020844142,-2.07716605121006,-298.299508651997
738465.45487866166513413191,3.04651020844142,-2.07716605121006,-298.281044953764
738465.45487875211983919144,3.08343760490738,-1.97561571092868,-298.271813104648
738465.45487884257454425097,3.10190130314035,-1.96638386181219,-298.290276802881
738465.45487893302924931049,3.2311471907712,-1.64326914273507,-298.207190160833
738465.45487902348395437002,3.76659443952757,-1.41247291482284,-298.087176122318
738465.45487911393865942955,4.54206976531266,-1.23706778160955,-298.041016876736
738465.45487920427694916725,4.38512833033235,-1.63403729361858,-298.096407971435
738465.45487929473165422678,3.70197149571215,-2.13255714590899,-298.197958311716
738465.45487938518635928631,3.4896389660329,-2.23410748619037,-298.364131595813
738465.45487947564106434584,3.24037903988769,-2.22487563707389,-298.364131595813
738465.45487956609576940536,3.26807458723716,-2.03100680562761,-298.34566789758
738465.45487965655047446489,3.17575609607227,-1.99407940916166,-298.327204199347
738465.45487974700517952442,3.1480605487228,-2.01254310739463,-298.308740501114
738465.45487983734346926212,3.15729239783929,-1.98484756004517,-298.327204199347
738465.45487992779817432165,3.11113315225684,-2.01254310739463,-298.225653859066
738465.45488001825287938118,3.18498794518876,-1.92945646534623,-298.216422009949
738465.45488010870758444071,3.15729239783929,-1.96638386181219,-298.336436048463
738465.45488019916228950024,3.11113315225684,-2.00331125827815,-298.354899746696
738465.45488028961699455976,3.11113315225684,-2.00331125827815,-298.308740501114
738465.45488038007169961929,3.17575609607227,-1.93868831446272,-298.34566789758
738465.45488047040998935699,3.16652424695578,-1.94792016357921,-298.34566789758
738465.45488056086469441652,3.1480605487228,-1.97561571092868,-298.373363444929
738465.45488065131939947605,3.24037903988769,-1.86483352153081,-298.281044953764
738465.45488074177410453558,3.19421979430525,-1.91099276711325,-298.31797235023
738465.45488083222880959511,3.18498794518876,-1.92022461622974,-298.336436048463
738465.45488092268351465464,3.22191534165471,-1.88329721976379,-298.253349406415
738465.45488101313821971416,3.24961088900418,-1.86483352153081,-298.34566789758
738465.45488110347650945187,3.36962492751854,-1.73558763389996,-298.336436048463
738465.45488119393121451139,3.28653828547014,-1.81867427594836,-298.327204199347
738465.45488128438591957092,3.27730643635365,-1.84636982329783,-298.262581255531
738465.45488137484062463045,3.32346568193609,-1.7909787285989,-298.271813104648
738465.45488146529532968998,3.4065523239845,-1.70789208655049,-298.281044953764
738465.45488155575003474951,3.42501602221747,-1.698660237434,-298.225653859066
738465.45488164620473980904,3.33269753105258,-1.80944242683187,-298.281044953764
738465.45488173654302954674,3.44347972045045,-1.72635578478347,-298.281044953764
738465.45488182699773460627,3.4065523239845,-1.78174687948241,-298.281044953764
738465.45488191745243966579,3.39732047486801,-1.80021057771538,-298.262581255531
738465.45488200790714472532,3.38808862575152,-1.81867427594836,-298.281044953764
738465.45488209836184978485,3.38808862575152,-1.80944242683187,-298.327204199347
738465.45488218881655484438,3.27730643635365,-1.92945646534623,-298.290276802881
738465.45488227927125990391,3.22191534165471,-1.96638386181219,-298.327204199347
738465.45488236960954964161,3.29577013458663,-1.90176091799676,-298.327204199347
738465.45488246006425470114,3.25884273812067,-1.92022461622974,-298.262581255531
738465.45488255051895976067,3.18498794518876,-2.01254310739463,-298.327204199347
738465.45488264097366482019,3.24037903988769,-1.93868831446272,-298.354899746696
738465.45488273142836987972,3.20345164342174,-1.97561571092868,-298.234885708182
738465.45488282188307493925,3.24961088900418,-1.93868831446272,-298.253349406415
738465.45488291233777999878,3.15729239783929,-2.0402386547441,-298.262581255531
738465.45488300267606973648,3.20345164342174,-1.99407940916166,-298.253349406415
738465.45488309313077479601,3.20345164342174,-1.98484756004517,-298.216422009949
738465.45488318358547985554,3.20345164342174,-1.98484756004517,-298.271813104648
738465.45488327404018491507,3.24037903988769,-1.96638386181219,-298.336436048463
738465.45488336449488997459,3.24961088900418,-1.94792016357921,-298.336436048463
738465.45488345494959503412,3.31423383281961,-1.88329721976379,-298.271813104648
738465.45488354540430009365,3.21268349253822,-1.99407940916166,-298.216422009949
738465.45488363574258983135,3.19421979430525,-2.02177495651112,-298.327204199347
738465.45488372619729489088,3.24037903988769,-1.97561571092868,-298.299508651997
738465.45488381665199995041,3.29577013458663,-1.92022461622974,-298.262581255531
738465.45488390710670500994,3.24961088900418,-1.96638386181219,-298.271813104648
738465.45488399756141006947,3.22191534165471,-1.98484756004517,-298.271813104648
738465.45488408801611512899,3.22191534165471,-1.99407940916166,-298.271813104648
738465.45488417847082018852,3.24037903988769,-1.97561571092868,-298.281044953764
738465.45488426880910992622,3.25884273812067,-1.9571520126957,-298.290276802881
738465.45488435926381498575,3.26807458723716,-1.94792016357921,-298.271813104648
738465.45488444971852004528,3.21268349253822,-2.00331125827815,-298.308740501114
738465.45488454017322510481,3.2311471907712,-1.98484756004517,-298.299508651997
738465.45488463062793016434,3.2311471907712,-1.98484756004517,-298.281044953764
738465.45488472108263522387,3.20345164342174,-2.01254310739463,-298.281044953764
738465.45488481153734028339,3.24037903988769,-1.98484756004517,-298.34566789758
738465.45488490187563002110,3.21268349253822,-2.00331125827815,-298.31797235023
738465.45488499233033508062,3.22191534165471,-1.99407940916166,-298.336436048463
738465.45488508278504014015,3.2311471907712,-1.98484756004517,-298.271813104648
738465.45488517323974519968,3.26807458723716,-1.93868831446272,-298.299508651997
738465.45488526369445025921,3.21268349253822,-2.00331125827815,-298.290276802881
738465.45488535414915531874,3.21268349253822,-2.01254310739463,-298.364131595813
738465.45488544460386037827,3.24961088900418,-1.99407940916166,-298.34566789758
738465.45488553494215011597,3.29577013458663,-1.9571520126957,-298.253349406415
738465.45488562539685517550,3.29577013458663,-1.94792016357921,-298.336436048463
738465.45488571585156023502,3.24961088900418,-2.00331125827815,-298.327204199347
738465.45488580630626529455,3.29577013458663,-1.93868831446272,-298.281044953764
738465.45488589676097035408,3.36039307840205,-1.89252906888028,-298.308740501114
738465.45488598721567541361,3.38808862575152,-1.85560167241432,-298.308740501114
738465.45488607767038047314,3.32346568193609,-1.90176091799676,-298.299508651997
738465.45488616800867021084,3.24037903988769,-1.99407940916166,-298.299508651997
738465.45488625846337527037,3.30500198370312,-1.92945646534623,-298.336436048463
738465.45488634891808032990,3.2311471907712,-2.00331125827815,-298.373363444929
738465.45488643937278538942,3.18498794518876,-2.02177495651112,-298.299508651997
738465.45488652982749044895,3.24037903988769,-1.97561571092868,-298.354899746696
738465.45488662028219550848,3.19421979430525,-2.03100680562761,-298.373363444929
738465.45488671073690056801,3.15729239783929,-2.06793420209357,-298.290276802881
738465.45488680107519030571,3.22191534165471,-2.00331125827815,-298.34566789758
738465.45488689152989536524,3.2311471907712,-1.99407940916166,-298.34566789758
738465.45488698198460042477,3.20345164342174,-2.02177495651112,-298.327204199347
738465.45488707243930548429,3.24961088900418,-1.98484756004517,-298.179494613483
738465.45488716289401054382,3.19421979430525,-2.0402386547441,-298.373363444929
738465.45488725334871560335,3.17575609607227,-2.05870235297708,-298.373363444929
738465.45488734380342066288,3.12036500137333,-2.0402386547441,-298.31797235023
738465.45488743414171040058,3.20345164342174,-1.97561571092868,-298.308740501114
738465.45488752459641546011,3.48040711691641,-1.48632770775475,-298.16103091525
738465.45488761505112051964,4.04354991302225,-1.36631366924039,-298.050248725852
738465.45488770550582557917,4.56976531266213,-1.3570818201239,-298.031785027619
738465.45488779596053063869,4.3389690847499,-1.75405133213294,-298.114871669668
738465.45488788641523569822,3.73889889217811,-2.14178899502548,-298.253349406415
738465.45488797686994075775,3.4896389660329,-2.16025269325846,-298.364131595813
738465.45488806720823049545,3.28653828547014,-2.15102084414197,-298.327204199347
738465.45488815766293555498,3.26807458723716,-2.04947050386059,-298.290276802881
738465.45488824811764061451,3.30500198370312,-1.9571520126957,-298.299508651997
738465.45488833857234567404,3.22191534165471,-2.01254310739463,-298.271813104648
738465.45488842902705073357,3.22191534165471,-2.01254310739463,-298.281044953764
738465.45488851948175579309,3.25884273812067,-1.96638386181219,-298.290276802881
738465.45488860993646085262,3.21268349253822,-1.99407940916166,-298.308740501114
738465.45488870039116591215,3.2311471907712,-1.98484756004517,-298.327204199347
738465.45488879072945564985,3.24961088900418,-1.96638386181219,-298.34566789758
738465.45488888118416070938,3.29577013458663,-1.92022461622974,-298.336436048463
738465.45488897163886576891,3.2311471907712,-1.98484756004517,-298.271813104648
738465.45488906209357082844,3.26807458723716,-1.94792016357921,-298.364131595813
738465.45488915254827588797,3.29577013458663,-1.91099276711325,-298.327204199347
738465.45488924300298094749,3.28653828547014,-1.91099276711325,-298.281044953764
738465.45488933345768600702,3.31423383281961,-1.90176091799676,-298.308740501114
738465.45488942379597574472,3.31423383281961,-1.91099276711325,-298.244117557298
738465.45488951425068080425,3.35116122928556,-1.85560167241432,-298.327204199347
738465.45488960470538586378,3.36039307840205,-1.83713797418134,-298.327204199347
738465.45488969516009092331,3.34192938016907,-1.86483352153081,-298.31797235023
738465.45488978561479598284,3.41578417310099,-1.7909787285989,-298.234885708182
738465.45488987606950104237,3.60965300454726,-1.59710989715262,-298.253349406415
738465.45488996652420610189,3.42501602221747,-1.77251503036592,-298.271813104648
738465.45489005686249583960,3.43424787133396,-1.7909787285989,-298.290276802881
738465.45489014731720089912,3.45271156956694,-1.77251503036592,-298.281044953764
738465.45489023777190595865,3.53579821161534,-1.70789208655049,-298.271813104648
738465.45489032822661101818,3.58195745719779,-1.67096469008454,-298.253349406415
738465.45489041868131607771,3.50810266426588,-1.77251503036592,-298.271813104648
738465.45489050913602113724,3.43424787133396,-1.85560167241432,-298.105639820551
738465.45489059959072619677,3.4065523239845,-1.89252906888028,-298.244117557298
738465.45489068992901593447,3.41578417310099,-1.88329721976379,-298.290276802881
738465.45489078038372099400,3.45271156956694,-1.82790612506485,-298.327204199347
738465.45489087083842605352,3.47117526779992,-1.80944242683187,-298.34566789758
738465.45489096129313111305,3.29577013458663,-2.00331125827815,-298.336436048463
738465.45489105174783617258,3.24961088900418,-2.02177495651112,-298.290276802881
738465.45489114220254123211,3.30500198370312,-1.9571520126957,-298.31797235023
738465.45489123265724629164,3.39732047486801,-1.88329721976379,-298.34566789758
738465.45489132299553602934,3.32346568193609,-1.96638386181219,-298.299508651997
738465.45489141345024108887,3.29577013458663,-1.99407940916166,-298.34566789758
738465.45489150390494614840,3.31423383281961,-1.96638386181219,-298.262581255531
738465.45489159435965120792,3.36962492751854,-1.91099276711325,-298.244117557298
738465.45489168481435626745,3.29577013458663,-2.00331125827815,-298.244117557298
738465.45489177526906132698,3.31423383281961,-1.97561571092868,-298.244117557298
738465.45489186572376638651,3.32346568193609,-1.97561571092868,-298.216422009949
738465.45489195606205612421,3.41578417310099,-1.89252906888028,-298.262581255531
738465.45489204651676118374,3.47117526779992,-1.83713797418134,-298.244117557298
738465.45489213697146624327,3.26807458723716,-2.03100680562761,-298.253349406415
738465.45489222742617130280,3.27730643635365,-2.03100680562761,-298.271813104648
738465.45489231788087636232,3.29577013458663,-2.01254310739463,-298.253349406415
738465.45489240833558142185,3.32346568193609,-1.99407940916166,-298.253349406415
738465.45489249879028648138,3.44347972045045,-1.86483352153081,-298.281044953764
738465.45489258912857621908,3.43424787133396,-1.8740653706473,-298.253349406415
738465.45489267958328127861,3.32346568193609,-1.98484756004517,-298.290276802881
738465.45489277003798633814,3.25884273812067,-2.04947050386059,-298.308740501114
738465.45489286049269139767,3.28653828547014,-2.03100680562761,-298.290276802881
738465.45489295094739645720,3.34192938016907,-1.96638386181219,-298.244117557298
738465.45489304140210151672,3.48040711691641,-1.83713797418134,-298.262581255531
738465.45489313185680657625,3.35116122928556,-1.9571520126957,-298.308740501114
738465.45489322219509631395,3.25884273812067,-2.04947050386059,-298.336436048463
738465.45489331264980137348,3.29577013458663,-2.01254310739463,-298.253349406415
738465.45489340310450643301,3.33269753105258,-1.97561571092868,-298.281044953764
738465.45489349355921149254,3.36039307840205,-1.94792016357921,-298.299508651997
738465.45489358401391655207,3.30500198370312,-2.01254310739463,-298.31797235023
738465.45489367446862161160,3.28653828547014,-2.02177495651112,-298.364131595813
738465.45489376492332667112,3.31423383281961,-2.00331125827815,-298.373363444929
738465.45489385526161640882,3.4065523239845,-1.90176091799676,-298.299508651997
738465.45489394571632146835,3.34192938016907,-1.96638386181219,-298.327204199347
738465.45489403617102652788,3.30500198370312,-2.02177495651112,-298.170262764367
738465.45489412662573158741,3.31423383281961,-2.0402386547441,-298.207190160833
738465.45489421708043664694,3.41578417310099,-1.93868831446272,-298.336436048463
738465.45489430753514170647,3.48040711691641,-1.8740653706473,-298.34566789758
738465.45489439798984676600,3.36962492751854,-1.96638386181219,-298.327204199347
738465.45489448832813650370,3.36962492751854,-1.9571520126957,-298.271813104648
738465.45489457878284156322,3.42501602221747,-1.91099276711325,-298.31797235023
738465.45489466923754662275,3.41578417310099,-1.91099276711325,-298.31797235023
738465.45489475969225168228,3.45271156956694,-1.88329721976379,-298.253349406415
738465.45489485014695674181,3.37885677663503,-1.9571520126957,-298.336436048463
738465.45489494060166180134,3.34192938016907,-1.96638386181219,-298.336436048463
738465.45489503105636686087,3.4065523239845,-1.91099276711325,-298.336436048463
738465.45489512139465659857,3.41578417310099,-1.88329721976379,-298.308740501114
738465.45489521184936165810,3.20345164342174,-2.09562974944304,-298.354899746696
738465.45489530230406671762,3.24037903988769,-2.06793420209357,-298.373363444929
738465.45489539275877177715,3.26807458723716,-2.03100680562761,-298.271813104648
738465.45489548321347683668,3.31423383281961,-2.00331125827815,-298.34566789758
738465.45489557366818189621,3.30500198370312,-2.01254310739463,-298.354899746696
738465.45489566412288695574,3.33269753105258,-1.97561571092868,-298.253349406415
738465.45489575446117669344,3.36962492751854,-1.94792016357921,-298.327204199347
738465.45489584491588175297,3.30500198370312,-2.01254310739463,-298.354899746696
738465.45489593537058681250,3.27730643635365,-1.98484756004517,-298.244117557298
738465.45489602582529187202,3.24037903988769,-2.02177495651112,-298.290276802881
738465.45489611627999693155,3.4065523239845,-1.62480544450209,-298.207190160833
738465.45489620673470199108,4.02508621478927,-1.30169072542497,-298.013321329386
738465.45489629718940705061,4.61592455824457,-1.28322702719199,-297.957930234687
738465.45489638752769678831,4.69901120029298,-1.34784997100742,-297.948698385571
738465.45489647798240184784,4.21895504623554,-1.84636982329783,-298.105639820551
738465.45489656843710690737,3.72043519394513,-2.16948454237495,-298.253349406415
738465.45489665889181196690,3.49887081514939,-2.15102084414197,-298.290276802881
738465.45489674934651702642,3.45271156956694,-2.02177495651112,-298.281044953764
738465.45489683980122208595,3.39732047486801,-1.96638386181219,-298.262581255531
738465.45489693025592714548,3.34192938016907,-1.99407940916166,-298.31797235023
738465.45489702059421688318,3.27730643635365,-2.05870235297708,-298.336436048463
738465.45489711104892194271,3.32346568193609,-1.99407940916166,-298.253349406415
738465.45489720150362700224,3.30500198370312,-1.9571520126957,-298.31797235023
738465.45489729195833206177,3.2311471907712,-2.0402386547441,-298.299508651997
738465.45489738241303712130,3.28653828547014,-1.98484756004517,-298.262581255531
738465.45489747286774218082,3.31423383281961,-1.9571520126957,-298.253349406415
738465.45489756332244724035,3.29577013458663,-1.98484756004517,-298.114871669668
738465.45489765366073697805,3.35116122928556,-1.91099276711325,-298.170262764367
738465.45489774411544203758,3.41578417310099,-1.83713797418134,-298.253349406415
738465.45489783457014709711,3.47117526779992,-1.80021057771538,-298.271813104648
738465.45489792502485215664,3.37885677663503,-1.89252906888028,-298.234885708182
738465.45489801547955721617,3.38808862575152,-1.8740653706473,-298.271813104648
738465.45489810593426227570,3.34192938016907,-1.92022461622974,-298.281044953764
738465.45489819638896733522,3.42501602221747,-1.86483352153081,-298.299508651997
738465.45489828672725707293,3.46194341868343,-1.82790612506485,-298.234885708182
738465.45489837718196213245,3.42501602221747,-1.84636982329783,-298.281044953764
738465.45489846763666719198,3.49887081514939,-1.74481948301645,-298.253349406415
738465.45489855809137225151,3.55426190984832,-1.698660237434,-298.197958311716
738465.45489864854607731104,3.58195745719779,-1.68019653920103,-298.244117557298
738465.45489873900078237057,3.60042115543077,-1.66173284096805,-298.253349406415
738465.45489882945548743010,3.49887081514939,-1.80021057771538,-298.1887264626
738465.45489891979377716780,3.51733451338237,-1.7909787285989,-298.225653859066
738465.45489901024848222733,3.60965300454726,-1.698660237434,-298.262581255531
738465.45489910070318728685,3.54503006073183,-1.7909787285989,-298.207190160833
738465.45489919115789234638,3.55426190984832,-1.80944242683187,-298.271813104648
738465.45489928161259740591,3.50810266426588,-1.84636982329783,-298.262581255531
738465.45489937206730246544,3.48040711691641,-1.88329721976379,-298.271813104648
738465.45489946252200752497,3.44347972045045,-1.90176091799676,-298.271813104648
738465.45489955286029726267,3.4896389660329,-1.83713797418134,-298.308740501114
738465.45489964331500232220,3.43424787133396,-1.90176091799676,-298.290276802881
738465.45489973376970738173,3.31423383281961,-2.0402386547441,-298.271813104648
738465.45489982422441244125,3.34192938016907,-1.99407940916166,-298.290276802881
738465.45489991467911750078,3.36039307840205,-1.97561571092868,-298.207190160833
738465.45490000513382256031,3.42501602221747,-1.91099276711325,-298.244117557298
738465.45490009558852761984,3.41578417310099,-1.92022461622974,-298.244117557298
738465.45490018592681735754,3.38808862575152,-1.94792016357921,-298.253349406415
738465.45490027638152241707,3.36962492751854,-1.97561571092868,-298.234885708182
738465.45490036683622747660,3.39732047486801,-1.94792016357921,-298.234885708182
738465.45490045729093253613,3.33269753105258,-1.99407940916166,-298.281044953764
738465.45490054774563759565,3.35116122928556,-1.99407940916166,-298.271813104648
738465.45490063820034265518,3.43424787133396,-1.92945646534623,-298.262581255531
738465.45490072865504771471,3.38808862575152,-1.9571520126957,-298.253349406415
738465.45490081899333745241,3.37885677663503,-1.98484756004517,-298.281044953764
738465.45490090944804251194,3.34192938016907,-2.00331125827815,-298.281044953764
738465.45490099990274757147,3.48040711691641,-1.85560167241432,-298.170262764367
738465.45490109035745263100,3.36039307840205,-2.00331125827815,-298.16103091525
738465.45490118081215769053,3.36039307840205,-1.99407940916166,-298.207190160833
738465.45490127126686275005,3.38808862575152,-1.96638386181219,-298.31797235023
738465.45490136172156780958,3.4065523239845,-1.94792016357921,-298.234885708182
738465.45490145217627286911,3.34192938016907,-2.00331125827815,-298.225653859066
738465.45490154251456260681,3.38808862575152,-1.97561571092868,-298.262581255531
738465.45490163296926766634,3.33269753105258,-2.03100680562761,-298.308740501114
738465.45490172342397272587,3.36039307840205,-1.96638386181219,-298.31797235023
738465.45490181387867778540,3.39732047486801,-1.93868831446272,-298.197958311716
738465.45490190433338284492,3.38808862575152,-1.94792016357921,-298.281044953764
738465.45490199478808790445,3.41578417310099,-1.92945646534623,-298.290276802881
738465.45490208524279296398,3.34192938016907,-2.00331125827815,-298.281044953764
738465.45490217558108270168,3.36039307840205,-1.98484756004517,-298.281044953764
738465.45490226603578776121,3.29577013458663,-2.04947050386059,-298.290276802881
738465.45490235649049282074,3.29577013458663,-2.04947050386059,-298.327204199347
738465.45490244694519788027,3.33269753105258,-2.00331125827815,-298.299508651997
