time_dn,ecg_projection_ll_ra_mV,ecg_projection_la_ra_mV,ecg_projection_vx_rl_mV
738336.42802499816752970219,-0.750857061474451,-1.71096936958932,343.720206305124
738336.42802508862223476171,-0.713929665008494,-1.66173284096805,343.75713370159
738336.42802517907693982124,-0.701620532853175,-1.64942370881273,343.744824569435
738336.42802526953164488077,-0.701620532853175,-1.64942370881273,343.707897172969
738336.42802535998634994030,-0.738547929319132,-1.68635110527868,343.732515437279
738336.42802545044105499983,-0.787784457940408,-1.72327850174464,343.744824569435
738336.42802554089576005936,-0.76316619362977,-1.71096936958932,343.75713370159
738336.42802563135046511889,-0.713929665008494,-1.64942370881273,343.75713370159
738336.42802572180517017841,-0.701620532853175,-1.64942370881273,343.75713370159
738336.42802581225987523794,-0.750857061474451,-1.68635110527868,343.75713370159
738336.42802590271458029747,-0.787784457940408,-1.72327850174464,343.695588040813
738336.42802599316928535700,-0.76316619362977,-1.698660237434,343.75713370159
738336.42802608362399041653,-0.787784457940408,-1.72327850174464,343.769442833745
738336.42802617407869547606,-0.800093590095726,-1.72327850174464,343.720206305124
738336.42802626453340053558,-0.800093590095726,-1.72327850174464,343.769442833745
738336.42802635498810559511,-0.750857061474451,-1.67404197312337,343.781751965901
738336.42802644544281065464,-0.689311400697857,-1.62480544450209,343.75713370159
738336.42802653589751571417,-0.738547929319132,-1.66173284096805,343.720206305124
738336.42802662635222077370,-0.824711854406364,-1.74789676605528,343.732515437279
738336.42802671680692583323,-0.812402722251045,-1.72327850174464,343.769442833745
738336.42802680726163089275,-0.750857061474451,-1.67404197312337,343.720206305124
738336.42802689771633595228,-0.775475325785089,-1.68635110527868,343.732515437279
738336.42802698817104101181,-0.787784457940408,-1.698660237434,343.75713370159
738336.42802707862574607134,-0.787784457940408,-1.67404197312337,343.75713370159
738336.42802716908045113087,-0.787784457940408,-1.698660237434,343.646351512192
738336.42802725953515619040,-0.738547929319132,-1.64942370881273,343.744824569435
738336.42802734998986124992,-0.775475325785089,-1.698660237434,343.75713370159
738336.42802744044456630945,-0.775475325785089,-1.68635110527868,343.75713370159
738336.42802753089927136898,-0.76316619362977,-1.67404197312337,343.683278908658
738336.42802762135397642851,-0.787784457940408,-1.698660237434,343.75713370159
738336.42802771180868148804,-0.726238797163813,-1.63711457665741,343.744824569435
738336.42802780214697122574,-0.726238797163813,-1.62480544450209,343.695588040813
738336.42802789260167628527,-0.787784457940408,-1.68635110527868,343.683278908658
738336.42802798305638134480,-0.837020986561683,-1.73558763389996,343.634042380037
738336.42802807351108640432,-0.812402722251045,-1.71096936958932,343.744824569435
738336.42802816396579146385,-0.837020986561683,-1.73558763389996,343.720206305124
738336.42802825442049652338,-0.750857061474451,-1.67404197312337,343.744824569435
738336.42802834487520158291,-0.726238797163813,-1.66173284096805,343.695588040813
738336.42802843532990664244,-0.701620532853175,-1.64942370881273,343.646351512192
738336.42802852578461170197,-0.726238797163813,-1.71096936958932,343.695588040813
738336.42802861623931676149,-0.6523840042319,-1.68635110527868,343.658660644347
738336.42802870669402182102,-0.738547929319132,-1.77251503036592,343.695588040813
738336.42802879714872688055,-0.812402722251045,-1.79713329467655,343.695588040813
738336.42802888760343194008,-0.76316619362977,-1.71096936958932,343.744824569435
738336.42802897805813699961,-0.812402722251045,-1.72327850174464,343.732515437279
738336.42802906851284205914,-0.861639250872321,-1.77251503036592,343.732515437279
738336.42802915896754711866,-0.837020986561683,-1.73558763389996,343.732515437279
738336.42802924942225217819,-0.824711854406364,-1.71096936958932,343.732515437279
738336.42802933987695723772,-0.812402722251045,-1.68635110527868,343.744824569435
738336.42802943033166229725,-0.812402722251045,-1.67404197312337,343.720206305124
738336.42802952078636735678,-0.812402722251045,-1.68635110527868,343.769442833745
738336.42802961124107241631,-0.76316619362977,-1.63711457665741,343.744824569435
738336.42802970169577747583,-0.775475325785089,-1.63711457665741,343.670969776503
738336.42802979215048253536,-0.701620532853175,-1.5632597837255,343.769442833745
738336.42802988260518759489,-0.664693136387219,-1.53864151941486,343.720206305124
738336.42802997305989265442,-0.750857061474451,-1.62480544450209,343.806370230211
738336.42803006351459771395,-0.923184911648915,-1.77251503036592,343.781751965901
738336.42803015396930277348,-0.898566647338277,-1.64942370881273,343.732515437279
738336.42803024442400783300,-0.812402722251045,-1.5017141229489,343.867915890988
738336.42803033487871289253,-0.504674418368074,-1.72327850174464,343.978698080386
738336.42803042533341795206,-0.0861639250872321,-2.11717073071485,344.027934609007
738336.42803051578812301159,0.0984730572425509,-2.30180771304463,344.15102593056
738336.42803060624282807112,-0.332346568193609,-2.03100680562761,344.077171137628
738336.42803069669753313065,-0.800093590095726,-1.87098808760847,343.720206305124
738336.42803078715223819017,-0.713929665008494,-1.79713329467655,343.769442833745
738336.42803087760694324970,-0.689311400697857,-1.68635110527868,343.794061098056
738336.42803096806164830923,-0.689311400697857,-1.63711457665741,343.794061098056
738336.42803105851635336876,-0.701620532853175,-1.62480544450209,343.75713370159
738336.42803114897105842829,-0.726238797163813,-1.64942370881273,343.781751965901
738336.42803123942576348782,-0.812402722251045,-1.698660237434,343.781751965901
738336.42803132988046854734,-0.812402722251045,-1.71096936958932,343.781751965901
738336.42803142033517360687,-0.812402722251045,-1.698660237434,343.744824569435
738336.42803151078987866640,-0.787784457940408,-1.68635110527868,343.560187587105
738336.42803160124458372593,-0.76316619362977,-1.66173284096805,343.720206305124
738336.42803169169928878546,-0.750857061474451,-1.64942370881273,343.744824569435
738336.42803178215399384499,-0.738547929319132,-1.63711457665741,343.720206305124
738336.42803187260869890451,-0.726238797163813,-1.63711457665741,343.695588040813
738336.42803196306340396404,-0.713929665008494,-1.62480544450209,343.732515437279
738336.42803205340169370174,-0.738547929319132,-1.66173284096805,343.75713370159
738336.42803214385639876127,-0.726238797163813,-1.64942370881273,343.720206305124
738336.42803223431110382080,-0.701620532853175,-1.63711457665741,343.781751965901
738336.42803232476580888033,-0.664693136387219,-1.61249631234677,343.806370230211
738336.42803241522051393986,-0.664693136387219,-1.63711457665741,343.806370230211
738336.42803250567521899939,-0.677002268542538,-1.63711457665741,343.707897172969
738336.42803259612992405891,-0.664693136387219,-1.63711457665741,343.830988494522
738336.42803268658462911844,-0.640074872076581,-1.61249631234677,343.843297626677
738336.42803277703933417797,-0.590838343455306,-1.57556891588082,343.781751965901
738336.42803286749403923750,-0.603147475610625,-1.61249631234677,343.867915890988
738336.42803295794874429703,-0.590838343455306,-1.60018718019145,343.867915890988
738336.42803304840344935656,-0.566220079144668,-1.58787804803613,343.880225023143
738336.42803313885815441608,-0.529292682678711,-1.58787804803613,343.830988494522
738336.42803322931285947561,-0.480056154057436,-1.57556891588082,343.904843287454
738336.42803331976756453514,-0.443128757591479,-1.55095065157018,343.929461551764
738336.42803341022226959467,-0.418510493280842,-1.53864151941486,343.880225023143
738336.42803350067697465420,-0.381583096814885,-1.53864151941486,343.94177068392
738336.42803359113167971373,-0.369273964659566,-1.53864151941486,343.917152419609
738336.42803368158638477325,-0.381583096814885,-1.57556891588082,343.917152419609
738336.42803377204108983278,-0.356964832504247,-1.53864151941486,343.904843287454
738336.42803386249579489231,-0.381583096814885,-1.55095065157018,343.904843287454
738336.42803395295049995184,-0.443128757591479,-1.58787804803613,343.806370230211
738336.42803404340520501137,-0.54160181483403,-1.64942370881273,343.867915890988
738336.42803413385991007090,-0.590838343455306,-1.66173284096805,343.892534155299
738336.42803422431461513042,-0.615456607765943,-1.64942370881273,343.830988494522
738336.42803431476932018995,-0.6523840042319,-1.67404197312337,343.744824569435
738336.42803440522402524948,-0.664693136387219,-1.64942370881273,343.794061098056
738336.42803449567873030901,-0.677002268542538,-1.66173284096805,343.781751965901
738336.42803458613343536854,-0.677002268542538,-1.66173284096805,343.720206305124
738336.42803467658814042807,-0.689311400697857,-1.66173284096805,343.769442833745
738336.42803476704284548759,-0.750857061474451,-1.72327850174464,343.75713370159
738336.42803485749755054712,-0.726238797163813,-1.698660237434,343.75713370159
738336.42803494795225560665,-0.738547929319132,-1.71096936958932,343.683278908658
738336.42803503840696066618,-0.787784457940408,-1.7602058982106,343.597114983571
738336.42803512886166572571,-0.76316619362977,-1.73558763389996,343.75713370159
738336.42803521931637078524,-0.726238797163813,-1.68635110527868,343.744824569435
738336.42803530977107584476,-0.76316619362977,-1.72327850174464,343.720206305124
738336.42803540022578090429,-0.738547929319132,-1.71096936958932,343.75713370159
738336.42803549068048596382,-0.738547929319132,-1.71096936958932,343.75713370159
738336.42803558113519102335,-0.726238797163813,-1.698660237434,343.732515437279
738336.42803567158989608288,-0.6523840042319,-1.62480544450209,343.75713370159
738336.42803576204460114241,-0.6523840042319,-1.62480544450209,343.75713370159
738336.42803585249930620193,-0.713929665008494,-1.698660237434,343.744824569435
738336.42803594295401126146,-0.726238797163813,-1.71096936958932,343.75713370159
738336.42803603340871632099,-0.750857061474451,-1.73558763389996,343.781751965901
738336.42803612386342138052,-0.726238797163813,-1.71096936958932,343.75713370159
738336.42803621420171111822,-0.713929665008494,-1.698660237434,343.720206305124
738336.42803630465641617775,-0.726238797163813,-1.72327850174464,343.75713370159
738336.42803639511112123728,-0.713929665008494,-1.68635110527868,343.75713370159
738336.42803648556582629681,-0.713929665008494,-1.71096936958932,343.683278908658
738336.42803657602053135633,-0.701620532853175,-1.698660237434,343.75713370159
738336.42803666647523641586,-0.689311400697857,-1.68635110527868,343.720206305124
738336.42803675692994147539,-0.689311400697857,-1.68635110527868,343.720206305124
738336.42803684738464653492,-0.640074872076581,-1.63711457665741,343.634042380037
738336.42803693783935159445,-0.664693136387219,-1.66173284096805,343.646351512192
738336.42803702829405665398,-0.701620532853175,-1.68635110527868,343.695588040813
738336.42803711874876171350,-0.713929665008494,-1.71096936958932,343.658660644347
738336.42803720920346677303,-0.701620532853175,-1.68635110527868,343.670969776503
738336.42803729965817183256,-0.726238797163813,-1.71096936958932,343.646351512192
738336.42803739011287689209,-0.689311400697857,-1.66173284096805,343.683278908658
738336.42803748056758195162,-0.689311400697857,-1.66173284096805,343.695588040813
738336.42803757102228701115,-0.738547929319132,-1.71096936958932,343.769442833745
738336.42803766147699207067,-0.701620532853175,-1.68635110527868,343.744824569435
738336.42803775193169713020,-0.6523840042319,-1.62480544450209,343.781751965901
738336.42803784238640218973,-0.6523840042319,-1.63711457665741,343.806370230211
738336.42803793284110724926,-0.726238797163813,-1.71096936958932,343.744824569435
738336.42803802329581230879,-0.677002268542538,-1.66173284096805,343.75713370159
738336.42803811375051736832,-0.677002268542538,-1.64942370881273,343.744824569435
738336.42803820420522242785,-0.775475325785089,-1.74789676605528,343.744824569435
738336.42803829465992748737,-0.812402722251045,-1.77251503036592,343.683278908658
738336.42803838511463254690,-0.775475325785089,-1.73558763389996,343.75713370159
738336.42803847556933760643,-0.750857061474451,-1.698660237434,343.744824569435
738336.42803856602404266596,-0.738547929319132,-1.698660237434,343.584805851416
738336.42803865647874772549,-0.76316619362977,-1.72327850174464,343.720206305124
738336.42803874693345278502,-0.750857061474451,-1.71096936958932,343.769442833745
738336.42803883738815784454,-0.738547929319132,-1.698660237434,343.744824569435
738336.42803892784286290407,-0.713929665008494,-1.67404197312337,343.732515437279
738336.42803901829756796360,-0.726238797163813,-1.68635110527868,343.75713370159
738336.42803910875227302313,-0.713929665008494,-1.67404197312337,343.75713370159
738336.42803919920697808266,-0.590838343455306,-1.5632597837255,343.75713370159
738336.42803928966168314219,-0.689311400697857,-1.64942370881273,343.707897172969
738336.42803938011638820171,-0.775475325785089,-1.73558763389996,343.744824569435
738336.42803947057109326124,-0.738547929319132,-1.698660237434,343.75713370159
738336.42803956102579832077,-0.775475325785089,-1.72327850174464,343.707897172969
738336.42803965148050338030,-0.787784457940408,-1.74789676605528,343.744824569435
738336.42803974193520843983,-0.775475325785089,-1.73558763389996,343.75713370159
738336.42803983238991349936,-0.76316619362977,-1.72327850174464,343.720206305124
738336.42803992284461855888,-0.738547929319132,-1.698660237434,343.744824569435
738336.42804001329932361841,-0.738547929319132,-1.68635110527868,343.584805851416
738336.42804010375402867794,-0.738547929319132,-1.698660237434,343.720206305124
738336.42804019420873373747,-0.726238797163813,-1.68635110527868,343.707897172969
738336.42804028466343879700,-0.738547929319132,-1.698660237434,343.658660644347
738336.42804037500172853470,-0.738547929319132,-1.698660237434,343.720206305124
738336.42804046545643359423,-0.726238797163813,-1.68635110527868,343.744824569435
738336.42804055591113865376,-0.726238797163813,-1.698660237434,343.769442833745
738336.42804064636584371328,-0.726238797163813,-1.68635110527868,343.707897172969
738336.42804073682054877281,-0.726238797163813,-1.68635110527868,343.769442833745
738336.42804082727525383234,-0.738547929319132,-1.68635110527868,343.75713370159
738336.42804091772995889187,-0.726238797163813,-1.68635110527868,343.720206305124
738336.42804100818466395140,-0.726238797163813,-1.68635110527868,343.75713370159
738336.42804109863936901093,-0.726238797163813,-1.68635110527868,343.794061098056
738336.42804118909407407045,-0.738547929319132,-1.698660237434,343.769442833745
738336.42804127954877912998,-0.738547929319132,-1.71096936958932,343.744824569435
738336.42804137000348418951,-0.726238797163813,-1.698660237434,343.794061098056
738336.42804146045818924904,-0.713929665008494,-1.68635110527868,343.658660644347
738336.42804155091289430857,-0.701620532853175,-1.71096936958932,343.769442833745
738336.42804164136759936810,-0.689311400697857,-1.71096936958932,343.732515437279
738336.42804173182230442762,-0.689311400697857,-1.72327850174464,343.695588040813
738336.42804182227700948715,-0.664693136387219,-1.77251503036592,343.720206305124
738336.42804191273171454668,-0.640074872076581,-1.72327850174464,343.732515437279
738336.42804200318641960621,-0.664693136387219,-1.71096936958932,343.54787845495
738336.42804209364112466574,-0.677002268542538,-1.698660237434,343.621733247881
738336.42804218409582972527,-0.689311400697857,-1.67404197312337,343.744824569435
738336.42804227455053478479,-0.701620532853175,-1.68635110527868,343.75713370159
738336.42804236500523984432,-0.726238797163813,-1.698660237434,343.707897172969
738336.42804245545994490385,-0.750857061474451,-1.71096936958932,343.732515437279
738336.42804254591464996338,-0.76316619362977,-1.698660237434,343.720206305124
738336.42804263636935502291,-0.750857061474451,-1.68635110527868,343.658660644347
738336.42804272682406008244,-0.750857061474451,-1.68635110527868,343.670969776503
738336.42804281727876514196,-0.750857061474451,-1.68635110527868,343.683278908658
738336.42804290773347020149,-0.76316619362977,-1.698660237434,343.695588040813
738336.42804299818817526102,-0.750857061474451,-1.68635110527868,343.646351512192
738336.42804308864288032055,-0.738547929319132,-1.68635110527868,343.75713370159
738336.42804317909758538008,-0.726238797163813,-1.67404197312337,343.75713370159
738336.42804326955229043961,-0.726238797163813,-1.66173284096805,343.670969776503
738336.42804336000699549913,-0.713929665008494,-1.58787804803613,343.769442833745
738336.42804345046170055866,-0.701620532853175,-1.44016846217231,343.818679362367
738336.42804354091640561819,-0.467747021902117,-1.52633238725954,343.904843287454
738336.42804363137111067772,-0.123091321553189,-2.06793420209357,344.040243741162
738336.42804372182581573725,0.123091321553189,-2.27718944873399,344.187953327026
738336.42804381228052079678,-0.0492365286212755,-2.03100680562761,344.163335062716
738336.42804390273522585630,-0.6523840042319,-1.87098808760847,343.830988494522
738336.42804399318993091583,-0.713929665008494,-1.85867895545315,343.744824569435
738336.42804408364463597536,-0.689311400697857,-1.82175155898719,343.781751965901
738336.42804417409934103489,-0.6523840042319,-1.68635110527868,343.781751965901
738336.42804426455404609442,-0.54160181483403,-1.5632597837255,343.75713370159
738336.42804435500875115395,-0.6523840042319,-1.64942370881273,343.769442833745
738336.42804444546345621347,-0.787784457940408,-1.7602058982106,343.769442833745
738336.42804453591816127300,-0.787784457940408,-1.74789676605528,343.707897172969
738336.42804462625645101070,-0.76316619362977,-1.72327850174464,343.781751965901
738336.42804471671115607023,-0.738547929319132,-1.698660237434,343.769442833745
738336.42804480716586112976,-0.664693136387219,-1.62480544450209,343.707897172969
738336.42804489762056618929,-0.701620532853175,-1.66173284096805,343.75713370159
738336.42804498807527124882,-0.726238797163813,-1.698660237434,343.707897172969
738336.42804507852997630835,-0.701620532853175,-1.66173284096805,343.720206305124
738336.42804516898468136787,-0.689311400697857,-1.66173284096805,343.732515437279
738336.42804525943938642740,-0.627765739921262,-1.58787804803613,343.634042380037
738336.42804534989409148693,-0.54160181483403,-1.52633238725954,343.732515437279
738336.42804544034879654646,-0.640074872076581,-1.64942370881273,343.634042380037
738336.42804553080350160599,-0.689311400697857,-1.68635110527868,343.597114983571
738336.42804562125820666552,-0.713929665008494,-1.72327850174464,343.695588040813
738336.42804571171291172504,-0.689311400697857,-1.698660237434,343.818679362367
738336.42804580216761678457,-0.664693136387219,-1.67404197312337,343.806370230211
738336.42804589262232184410,-0.6523840042319,-1.67404197312337,343.794061098056
738336.42804598307702690363,-0.640074872076581,-1.67404197312337,343.806370230211
738336.42804607353173196316,-0.603147475610625,-1.64942370881273,343.744824569435
738336.42804616398643702269,-0.566220079144668,-1.62480544450209,343.818679362367
738336.42804625444114208221,-0.529292682678711,-1.61249631234677,343.855606758833
738336.42804634489584714174,-0.455437889746798,-1.5632597837255,343.880225023143
738336.42804643535055220127,-0.443128757591479,-1.5632597837255,343.855606758833
738336.42804652580525726080,-0.406201361125523,-1.55095065157018,343.917152419609
738336.42804661625996232033,-0.381583096814885,-1.55095065157018,343.904843287454
738336.42804670671466737986,-0.369273964659566,-1.57556891588082,343.904843287454
738336.42804679716937243938,-0.320037436038291,-1.52633238725954,343.867915890988
738336.42804688762407749891,-0.320037436038291,-1.55095065157018,343.929461551764
738336.42804697807878255844,-0.406201361125523,-1.63711457665741,343.954079816075
738336.42804706853348761797,-0.43081962543616,-1.64942370881273,343.94177068392
738336.42804715898819267750,-0.455437889746798,-1.63711457665741,343.904843287454
738336.42804724944289773703,-0.492365286212755,-1.64942370881273,343.855606758833
738336.42804733989760279655,-0.54160181483403,-1.66173284096805,343.843297626677
738336.42804743035230785608,-0.590838343455306,-1.67404197312337,343.75713370159
738336.42804752080701291561,-0.627765739921262,-1.67404197312337,343.720206305124
738336.42804761126171797514,-0.6523840042319,-1.68635110527868,343.683278908658
738336.42804770171642303467,-0.677002268542538,-1.698660237434,343.695588040813
738336.42804779217112809420,-0.689311400697857,-1.698660237434,343.707897172969
738336.42804788262583315372,-0.603147475610625,-1.60018718019145,343.732515437279
738336.42804797308053821325,-0.640074872076581,-1.63711457665741,343.744824569435
738336.42804806353524327278,-0.726238797163813,-1.72327850174464,343.75713370159
738336.42804815398994833231,-0.750857061474451,-1.73558763389996,343.646351512192
738336.42804824444465339184,-0.738547929319132,-1.72327850174464,343.75713370159
738336.42804833489935845137,-0.738547929319132,-1.72327850174464,343.744824569435
738336.42804842535406351089,-0.76316619362977,-1.73558763389996,343.744824569435
738336.42804851580876857042,-0.738547929319132,-1.71096936958932,343.720206305124
738336.42804860626347362995,-0.726238797163813,-1.71096936958932,343.75713370159
738336.42804869671817868948,-0.713929665008494,-1.68635110527868,343.744824569435
738336.42804878705646842718,-0.713929665008494,-1.68635110527868,343.670969776503
738336.42804887751117348671,-0.689311400697857,-1.67404197312337,343.744824569435
738336.42804896796587854624,-0.750857061474451,-1.72327850174464,343.732515437279
738336.42804905842058360577,-0.775475325785089,-1.73558763389996,343.535569322794
738336.42804914887528866529,-0.713929665008494,-1.698660237434,343.646351512192
738336.42804923932999372482,-0.689311400697857,-1.67404197312337,343.646351512192
738336.42804932978469878435,-0.726238797163813,-1.71096936958932,343.744824569435
738336.42804942023940384388,-0.738547929319132,-1.72327850174464,343.75713370159
738336.42804951069410890341,-0.726238797163813,-1.698660237434,343.744824569435
738336.42804960114881396294,-0.677002268542538,-1.66173284096805,343.658660644347
738336.42804969160351902246,-0.677002268542538,-1.66173284096805,343.695588040813
738336.42804978205822408199,-0.701620532853175,-1.68635110527868,343.769442833745
738336.42804987251292914152,-0.726238797163813,-1.72327850174464,343.75713370159
738336.42804996296763420105,-0.689311400697857,-1.68635110527868,343.646351512192
738336.42805005342233926058,-0.664693136387219,-1.66173284096805,343.744824569435
738336.42805014387704432011,-0.701620532853175,-1.68635110527868,343.75713370159
738336.42805023433174937963,-0.738547929319132,-1.72327850174464,343.744824569435
738336.42805032478645443916,-0.775475325785089,-1.7602058982106,343.744824569435
738336.42805041524115949869,-0.76316619362977,-1.74789676605528,343.744824569435
738336.42805050569586455822,-0.750857061474451,-1.72327850174464,343.744824569435
738336.42805059615056961775,-0.750857061474451,-1.71096936958932,343.720206305124
738336.42805068660527467728,-0.726238797163813,-1.698660237434,343.744824569435
738336.42805077705997973680,-0.701620532853175,-1.67404197312337,343.75713370159
738336.42805086751468479633,-0.726238797163813,-1.698660237434,343.658660644347
738336.42805095796938985586,-0.713929665008494,-1.68635110527868,343.744824569435
738336.42805104842409491539,-0.726238797163813,-1.68635110527868,343.75713370159
738336.42805113887879997492,-0.800093590095726,-1.7602058982106,343.707897172969
738336.42805122933350503445,-0.800093590095726,-1.74789676605528,343.732515437279
738336.42805131978821009398,-0.775475325785089,-1.72327850174464,343.75713370159
738336.42805141024291515350,-0.738547929319132,-1.68635110527868,343.732515437279
738336.42805150069762021303,-0.750857061474451,-1.68635110527868,343.732515437279
738336.42805159115232527256,-0.800093590095726,-1.73558763389996,343.720206305124
738336.42805168160703033209,-0.787784457940408,-1.72327850174464,343.744824569435
738336.42805177206173539162,-0.775475325785089,-1.71096936958932,343.695588040813
738336.42805186251644045115,-0.738547929319132,-1.67404197312337,343.634042380037
738336.42805195297114551067,-0.713929665008494,-1.64942370881273,343.646351512192
738336.42805204342585057020,-0.787784457940408,-1.72327850174464,343.695588040813
738336.42805213388055562973,-0.787784457940408,-1.73558763389996,343.695588040813
738336.42805222433526068926,-0.787784457940408,-1.71096936958932,343.707897172969
738336.42805231478996574879,-0.775475325785089,-1.71096936958932,343.75713370159
738336.42805240524467080832,-0.775475325785089,-1.68635110527868,343.75713370159
738336.42805249569937586784,-0.775475325785089,-1.698660237434,343.744824569435
738336.42805258615408092737,-0.775475325785089,-1.698660237434,343.646351512192
738336.42805267660878598690,-0.76316619362977,-1.698660237434,343.658660644347
738336.42805276706349104643,-0.775475325785089,-1.68635110527868,343.744824569435
738336.42805285751819610596,-0.76316619362977,-1.698660237434,343.658660644347
738336.42805294797290116549,-0.76316619362977,-1.698660237434,343.75713370159
738336.42805303831119090319,-0.775475325785089,-1.698660237434,343.744824569435
738336.42805312876589596272,-0.775475325785089,-1.698660237434,343.744824569435
738336.42805321922060102224,-0.775475325785089,-1.71096936958932,343.744824569435
738336.42805330967530608177,-0.76316619362977,-1.698660237434,343.769442833745
738336.42805340013001114130,-0.775475325785089,-1.698660237434,343.769442833745
738336.42805349058471620083,-0.76316619362977,-1.67404197312337,343.744824569435
738336.42805358103942126036,-0.750857061474451,-1.67404197312337,343.75713370159
738336.42805367149412631989,-0.775475325785089,-1.698660237434,343.75713370159
738336.42805376194883137941,-0.787784457940408,-1.71096936958932,343.75713370159
738336.42805385240353643894,-0.775475325785089,-1.698660237434,343.75713370159
738336.42805394285824149847,-0.787784457940408,-1.698660237434,343.75713370159
738336.42805403331294655800,-0.787784457940408,-1.698660237434,343.732515437279
738336.42805412376765161753,-0.787784457940408,-1.698660237434,343.707897172969
738336.42805421422235667706,-0.787784457940408,-1.698660237434,343.744824569435
738336.42805430467706173658,-0.775475325785089,-1.698660237434,343.744824569435
738336.42805439513176679611,-0.787784457940408,-1.698660237434,343.744824569435
738336.42805448558647185564,-0.775475325785089,-1.698660237434,343.695588040813
738336.42805457604117691517,-0.787784457940408,-1.698660237434,343.769442833745
738336.42805466649588197470,-0.787784457940408,-1.71096936958932,343.75713370159
738336.42805475695058703423,-0.787784457940408,-1.698660237434,343.634042380037
738336.42805484740529209375,-0.775475325785089,-1.698660237434,343.720206305124
738336.42805493785999715328,-0.787784457940408,-1.68635110527868,343.769442833745
738336.42805502831470221281,-0.775475325785089,-1.698660237434,343.75713370159
738336.42805511876940727234,-0.787784457940408,-1.698660237434,343.683278908658
738336.42805520922411233187,-0.787784457940408,-1.698660237434,343.634042380037
738336.42805529967881739140,-0.787784457940408,-1.698660237434,343.732515437279
738336.42805539013352245092,-0.787784457940408,-1.68635110527868,343.75713370159
738336.42805548058822751045,-0.775475325785089,-1.68635110527868,343.75713370159
738336.42805557104293256998,-0.775475325785089,-1.68635110527868,343.695588040813
738336.42805566149763762951,-0.775475325785089,-1.68635110527868,343.769442833745
738336.42805575195234268904,-0.787784457940408,-1.698660237434,343.769442833745
738336.42805584240704774857,-0.800093590095726,-1.698660237434,343.75713370159
738336.42805593286175280809,-0.787784457940408,-1.698660237434,343.744824569435
738336.42805602331645786762,-0.800093590095726,-1.71096936958932,343.75713370159
738336.42805611377116292715,-0.787784457940408,-1.68635110527868,343.658660644347
738336.42805620422586798668,-0.787784457940408,-1.698660237434,343.57249671926
738336.42805629468057304621,-0.775475325785089,-1.71096936958932,343.744824569435
738336.42805638513527810574,-0.76316619362977,-1.72327850174464,343.75713370159
738336.42805647558998316526,-0.76316619362977,-1.73558763389996,343.744824569435
738336.42805656604468822479,-0.750857061474451,-1.74789676605528,343.744824569435
738336.42805665649939328432,-0.738547929319132,-1.78482416252124,343.75713370159
738336.42805674695409834385,-0.713929665008494,-1.74789676605528,343.769442833745
738336.42805683740880340338,-0.713929665008494,-1.71096936958932,343.732515437279
738336.42805692786350846291,-0.738547929319132,-1.71096936958932,343.781751965901
738336.42805701831821352243,-0.750857061474451,-1.67404197312337,343.769442833745
738336.42805710877291858196,-0.76316619362977,-1.68635110527868,343.769442833745
738336.42805719911120831966,-0.76316619362977,-1.68635110527868,343.75713370159
738336.42805728956591337919,-0.738547929319132,-1.64942370881273,343.744824569435
738336.42805738002061843872,-0.689311400697857,-1.57556891588082,343.75713370159
738336.42805747047532349825,-0.787784457940408,-1.66173284096805,343.683278908658
738336.42805756093002855778,-0.861639250872321,-1.74789676605528,343.769442833745
738336.42805765138473361731,-0.87394838302764,-1.74789676605528,343.769442833745
738336.42805774183943867683,-0.849330118717002,-1.72327850174464,343.732515437279
738336.42805783229414373636,-0.824711854406364,-1.71096936958932,343.769442833745
738336.42805792274884879589,-0.812402722251045,-1.71096936958932,343.732515437279
738336.42805801320355385542,-0.800093590095726,-1.698660237434,343.732515437279
738336.42805810365825891495,-0.800093590095726,-1.68635110527868,343.707897172969
738336.42805819411296397448,-0.800093590095726,-1.5632597837255,343.732515437279
738336.42805828456766903400,-0.701620532853175,-1.39093193355103,343.843297626677
738336.42805837502237409353,-0.443128757591479,-1.71096936958932,343.917152419609
738336.42805846547707915306,-0.0615456607765943,-2.14178899502548,344.064862005473
738336.42805855593178421259,0.0492365286212755,-2.28949858088931,344.187953327026
738336.42805864638648927212,-0.283110039572334,-1.96946114485102,344.138716798405
738336.42805873684119433165,-0.76316619362977,-1.85867895545315,343.744824569435
738336.42805882729589939117,-0.701620532853175,-1.79713329467655,343.744824569435
738336.42805891775060445070,-0.677002268542538,-1.73558763389996,343.75713370159
738336.42805900820530951023,-0.689311400697857,-1.67404197312337,343.830988494522
738336.42805909866001456976,-0.689311400697857,-1.62480544450209,343.830988494522
738336.42805918911471962929,-0.701620532853175,-1.62480544450209,343.830988494522
738336.42805927956942468882,-0.787784457940408,-1.698660237434,343.732515437279
738336.42805937002412974834,-0.800093590095726,-1.72327850174464,343.830988494522
738336.42805946047883480787,-0.775475325785089,-1.68635110527868,343.830988494522
738336.42805955093353986740,-0.775475325785089,-1.68635110527868,343.732515437279
738336.42805964138824492693,-0.775475325785089,-1.68635110527868,343.707897172969
738336.42805973184294998646,-0.76316619362977,-1.67404197312337,343.707897172969
738336.42805982229765504599,-0.76316619362977,-1.66173284096805,343.794061098056
738336.42805991275236010551,-0.738547929319132,-1.66173284096805,343.781751965901
738336.42806000320706516504,-0.726238797163813,-1.64942370881273,343.880225023143
738336.42806009366177022457,-0.726238797163813,-1.64942370881273,343.867915890988
738336.42806018411647528410,-0.701620532853175,-1.62480544450209,343.769442833745
738336.42806027457118034363,-0.713929665008494,-1.64942370881273,343.818679362367
738336.42806036502588540316,-0.689311400697857,-1.62480544450209,343.880225023143
738336.42806045548059046268,-0.677002268542538,-1.63711457665741,343.806370230211
738336.42806054593529552221,-0.701620532853175,-1.66173284096805,343.830988494522
738336.42806063639000058174,-0.677002268542538,-1.63711457665741,343.843297626677
738336.42806072684470564127,-0.640074872076581,-1.61249631234677,343.843297626677
738336.42806081729941070080,-0.6523840042319,-1.62480544450209,343.818679362367
738336.42806090775411576033,-0.627765739921262,-1.62480544450209,343.855606758833
738336.42806099820882081985,-0.603147475610625,-1.60018718019145,343.867915890988
738336.42806108866352587938,-0.566220079144668,-1.60018718019145,343.880225023143
738336.42806117911823093891,-0.54160181483403,-1.58787804803613,343.867915890988
738336.42806126957293599844,-0.504674418368074,-1.57556891588082,343.904843287454
738336.42806135991122573614,-0.467747021902117,-1.57556891588082,343.94177068392
738336.42806145036593079567,-0.443128757591479,-1.5632597837255,343.892534155299
738336.42806154082063585520,-0.418510493280842,-1.5632597837255,343.94177068392
738336.42806163127534091473,-0.393892228970204,-1.5632597837255,343.867915890988
738336.42806172173004597425,-0.393892228970204,-1.57556891588082,343.917152419609
738336.42806181218475103378,-0.393892228970204,-1.58787804803613,343.904843287454
738336.42806190263945609331,-0.43081962543616,-1.60018718019145,343.880225023143
738336.42806199309416115284,-0.480056154057436,-1.61249631234677,343.867915890988
738336.42806208354886621237,-0.529292682678711,-1.63711457665741,343.806370230211
738336.42806217400357127190,-0.578529211299987,-1.64942370881273,343.830988494522
738336.42806226445827633142,-0.615456607765943,-1.66173284096805,343.781751965901
738336.42806235491298139095,-0.664693136387219,-1.67404197312337,343.769442833745
738336.42806244536768645048,-0.689311400697857,-1.68635110527868,343.75713370159
738336.42806253582239151001,-0.713929665008494,-1.698660237434,343.744824569435
738336.42806262627709656954,-0.726238797163813,-1.71096936958932,343.670969776503
738336.42806271673180162907,-0.738547929319132,-1.698660237434,343.707897172969
738336.42806280718650668859,-0.738547929319132,-1.698660237434,343.707897172969
738336.42806289764121174812,-0.738547929319132,-1.698660237434,343.695588040813
738336.42806298809591680765,-0.750857061474451,-1.698660237434,343.670969776503
738336.42806307855062186718,-0.750857061474451,-1.698660237434,343.683278908658
738336.42806316900532692671,-0.750857061474451,-1.698660237434,343.621733247881
738336.42806325946003198624,-0.750857061474451,-1.698660237434,343.609424115726
738336.42806334991473704576,-0.750857061474451,-1.698660237434,343.707897172969
738336.42806344036944210529,-0.750857061474451,-1.698660237434,343.720206305124
738336.42806353082414716482,-0.750857061474451,-1.698660237434,343.732515437279
738336.42806362127885222435,-0.750857061474451,-1.698660237434,343.794061098056
738336.42806371173355728388,-0.750857061474451,-1.698660237434,343.781751965901
738336.42806380218826234341,-0.738547929319132,-1.698660237434,343.769442833745
738336.42806389264296740294,-0.750857061474451,-1.71096936958932,343.769442833745
738336.42806398309767246246,-0.750857061474451,-1.71096936958932,343.806370230211
738336.42806407355237752199,-0.750857061474451,-1.71096936958932,343.855606758833
738336.42806416400708258152,-0.750857061474451,-1.698660237434,343.732515437279
738336.42806425446178764105,-0.750857061474451,-1.698660237434,343.794061098056
738336.42806434491649270058,-0.738547929319132,-1.698660237434,343.794061098056
738336.42806443537119776011,-0.738547929319132,-1.698660237434,343.806370230211
738336.42806452582590281963,-0.738547929319132,-1.698660237434,343.769442833745
738336.42806461628060787916,-0.738547929319132,-1.698660237434,343.806370230211
738336.42806470673531293869,-0.726238797163813,-1.698660237434,343.855606758833
738336.42806479719001799822,-0.726238797163813,-1.68635110527868,343.806370230211
738336.42806488764472305775,-0.738547929319132,-1.698660237434,343.818679362367
738336.42806497809942811728,-0.738547929319132,-1.698660237434,343.794061098056
738336.42806506855413317680,-0.738547929319132,-1.698660237434,343.806370230211
738336.42806515900883823633,-0.738547929319132,-1.698660237434,343.830988494522
738336.42806524946354329586,-0.738547929319132,-1.698660237434,343.830988494522
738336.42806533991824835539,-0.738547929319132,-1.68635110527868,343.843297626677
738336.42806543037295341492,-0.750857061474451,-1.68635110527868,343.769442833745
738336.42806552082765847445,-0.750857061474451,-1.68635110527868,343.732515437279
738336.42806561116594821215,-0.738547929319132,-1.68635110527868,343.75713370159
738336.42806570162065327168,-0.750857061474451,-1.68635110527868,343.732515437279
738336.42806579207535833120,-0.76316619362977,-1.698660237434,343.781751965901
738336.42806588253006339073,-0.76316619362977,-1.68635110527868,343.794061098056
738336.42806597298476845026,-0.726238797163813,-1.63711457665741,343.744824569435
738336.42806606343947350979,-0.775475325785089,-1.698660237434,343.695588040813
738336.42806615389417856932,-0.800093590095726,-1.72327850174464,343.695588040813
738336.42806624434888362885,-0.787784457940408,-1.698660237434,343.744824569435
738336.42806633480358868837,-0.800093590095726,-1.698660237434,343.781751965901
738336.42806642525829374790,-0.800093590095726,-1.698660237434,343.843297626677
738336.42806651571299880743,-0.800093590095726,-1.68635110527868,343.830988494522
738336.42806660616770386696,-0.800093590095726,-1.698660237434,343.781751965901
738336.42806669662240892649,-0.800093590095726,-1.68635110527868,343.769442833745
738336.42806678707711398602,-0.787784457940408,-1.698660237434,343.695588040813
738336.42806687753181904554,-0.800093590095726,-1.67404197312337,343.720206305124
738336.42806696798652410507,-0.800093590095726,-1.68635110527868,343.843297626677
738336.42806705844122916460,-0.787784457940408,-1.68635110527868,343.818679362367
738336.42806714889593422413,-0.800093590095726,-1.68635110527868,343.781751965901
738336.42806723935063928366,-0.787784457940408,-1.67404197312337,343.794061098056
738336.42806732980534434319,-0.800093590095726,-1.68635110527868,343.695588040813
738336.42806742026004940271,-0.812402722251045,-1.68635110527868,343.75713370159
738336.42806751071475446224,-0.812402722251045,-1.67404197312337,343.781751965901
738336.42806760116945952177,-0.812402722251045,-1.68635110527868,343.744824569435
738336.42806769162416458130,-0.812402722251045,-1.68635110527868,343.621733247881
738336.42806778207886964083,-0.812402722251045,-1.68635110527868,343.720206305124
738336.42806787253357470036,-0.824711854406364,-1.68635110527868,343.744824569435
738336.42806796298827975988,-0.824711854406364,-1.67404197312337,343.744824569435
738336.42806805344298481941,-0.824711854406364,-1.68635110527868,343.707897172969
738336.42806814389768987894,-0.837020986561683,-1.68635110527868,343.744824569435
738336.42806823435239493847,-0.824711854406364,-1.68635110527868,343.744824569435
738336.42806832480709999800,-0.824711854406364,-1.68635110527868,343.781751965901
738336.42806841526180505753,-0.812402722251045,-1.67404197312337,343.830988494522
738336.42806850571651011705,-0.837020986561683,-1.67404197312337,343.855606758833
738336.42806859617121517658,-0.824711854406364,-1.67404197312337,343.855606758833
738336.42806868662592023611,-0.837020986561683,-1.67404197312337,343.794061098056
738336.42806877708062529564,-0.837020986561683,-1.68635110527868,343.830988494522
738336.42806886753533035517,-0.837020986561683,-1.68635110527868,343.867915890988
738336.42806895799003541470,-0.837020986561683,-1.68635110527868,343.867915890988
738336.42806904844474047422,-0.837020986561683,-1.68635110527868,343.855606758833
738336.42806913889944553375,-0.837020986561683,-1.66173284096805,343.880225023143
738336.42806922935415059328,-0.849330118717002,-1.67404197312337,343.830988494522
738336.42806931980885565281,-0.849330118717002,-1.67404197312337,343.806370230211
738336.42806941026356071234,-0.849330118717002,-1.66173284096805,343.880225023143
738336.42806950071826577187,-0.837020986561683,-1.66173284096805,343.806370230211
738336.42806959117297083139,-0.812402722251045,-1.63711457665741,343.781751965901
738336.42806968162767589092,-0.800093590095726,-1.63711457665741,343.818679362367
738336.42806977196596562862,-0.849330118717002,-1.66173284096805,343.818679362367
738336.42806986242067068815,-0.898566647338277,-1.71096936958932,343.75713370159
738336.42806995287537574768,-0.898566647338277,-1.71096936958932,343.806370230211
738336.42807004333008080721,-0.898566647338277,-1.698660237434,343.75713370159
738336.42807013378478586674,-0.886257515182958,-1.68635110527868,343.75713370159
738336.42807022423949092627,-0.87394838302764,-1.68635110527868,343.75713370159
738336.42807031469419598579,-0.87394838302764,-1.68635110527868,343.794061098056
738336.42807040514890104532,-0.87394838302764,-1.67404197312337,343.794061098056
738336.42807049560360610485,-0.87394838302764,-1.67404197312337,343.732515437279
738336.42807058605831116438,-0.87394838302764,-1.67404197312337,343.830988494522
738336.42807067651301622391,-0.87394838302764,-1.66173284096805,343.892534155299
738336.42807076696772128344,-0.861639250872321,-1.66173284096805,343.843297626677
738336.42807085742242634296,-0.861639250872321,-1.66173284096805,343.794061098056
738336.42807094787713140249,-0.861639250872321,-1.67404197312337,343.843297626677
738336.42807103833183646202,-0.861639250872321,-1.68635110527868,343.818679362367
738336.42807112878654152155,-0.849330118717002,-1.68635110527868,343.75713370159
738336.42807121924124658108,-0.837020986561683,-1.698660237434,343.818679362367
738336.42807130969595164061,-0.824711854406364,-1.73558763389996,343.806370230211
738336.42807140015065670013,-0.812402722251045,-1.74789676605528,343.720206305124
738336.42807149060536175966,-0.800093590095726,-1.71096936958932,343.818679362367
738336.42807158106006681919,-0.812402722251045,-1.68635110527868,343.769442833745
738336.42807167151477187872,-0.849330118717002,-1.67404197312337,343.744824569435
738336.42807176196947693825,-0.861639250872321,-1.67404197312337,343.769442833745
738336.42807185242418199778,-0.861639250872321,-1.67404197312337,343.818679362367
738336.42807194287888705730,-0.87394838302764,-1.66173284096805,343.794061098056
738336.42807203333359211683,-0.886257515182958,-1.66173284096805,343.732515437279
738336.42807212378829717636,-0.886257515182958,-1.66173284096805,343.830988494522
738336.42807221424300223589,-0.886257515182958,-1.66173284096805,343.830988494522
738336.42807230469770729542,-0.886257515182958,-1.64942370881273,343.830988494522
738336.42807239515241235495,-0.898566647338277,-1.66173284096805,343.818679362367
738336.42807248560711741447,-0.910875779493596,-1.66173284096805,343.843297626677
738336.42807257606182247400,-0.898566647338277,-1.66173284096805,343.781751965901
738336.42807266651652753353,-0.910875779493596,-1.67404197312337,343.75713370159
738336.42807275697123259306,-0.910875779493596,-1.67404197312337,343.781751965901
738336.42807284742593765259,-0.910875779493596,-1.62480544450209,343.781751965901
738336.42807293788064271212,-0.898566647338277,-1.46478672648295,343.818679362367
738336.42807302833534777164,-0.701620532853175,-1.39093193355103,343.96638894823
738336.42807311879005283117,-0.381583096814885,-1.93253374838506,344.089480269784
738336.42807320924475789070,-0.0492365286212755,-2.24026205226803,344.200262459181
738336.42807329969946295023,-0.135400453708508,-2.24026205226803,344.237189855647
738336.42807339015416800976,-0.664693136387219,-1.85867895545315,343.991007212541
738336.42807348060887306929,-0.861639250872321,-1.83406069114251,343.806370230211
738336.42807357106357812881,-0.824711854406364,-1.73558763389996,343.867915890988
738336.42807366151828318834,-0.837020986561683,-1.67404197312337,343.880225023143
738336.42807375197298824787,-0.849330118717002,-1.67404197312337,343.806370230211
738336.42807384242769330740,-0.861639250872321,-1.64942370881273,343.683278908658
738336.42807393288239836693,-0.87394838302764,-1.64942370881273,343.843297626677
738336.42807402322068810463,-0.87394838302764,-1.63711457665741,343.769442833745
738336.42807411367539316416,-0.861639250872321,-1.63711457665741,343.781751965901
738336.42807420413009822369,-0.87394838302764,-1.63711457665741,343.843297626677
738336.42807429458480328321,-0.87394838302764,-1.63711457665741,343.781751965901
738336.42807438503950834274,-0.87394838302764,-1.63711457665741,343.794061098056
738336.42807447549421340227,-0.87394838302764,-1.63711457665741,343.818679362367
738336.42807456594891846180,-0.87394838302764,-1.63711457665741,343.867915890988
738336.42807465640362352133,-0.861639250872321,-1.62480544450209,343.892534155299
738336.42807474685832858086,-0.861639250872321,-1.63711457665741,343.818679362367
738336.42807483731303364038,-0.849330118717002,-1.62480544450209,343.917152419609
738336.42807492776773869991,-0.837020986561683,-1.62480544450209,343.880225023143
738336.42807501822244375944,-0.824711854406364,-1.61249631234677,343.830988494522
738336.42807510867714881897,-0.824711854406364,-1.62480544450209,343.892534155299
738336.42807519913185387850,-0.800093590095726,-1.61249631234677,343.892534155299
738336.42807528958655893803,-0.787784457940408,-1.61249631234677,343.843297626677
738336.42807538004126399755,-0.775475325785089,-1.60018718019145,343.867915890988
738336.42807547049596905708,-0.750857061474451,-1.60018718019145,343.904843287454
738336.42807556095067411661,-0.738547929319132,-1.58787804803613,343.917152419609
738336.42807565140537917614,-0.726238797163813,-1.58787804803613,343.904843287454
738336.42807574186008423567,-0.701620532853175,-1.57556891588082,343.94177068392
738336.42807583231478929520,-0.677002268542538,-1.57556891588082,343.904843287454
738336.42807592276949435472,-0.6523840042319,-1.5632597837255,343.954079816075
738336.42807601322419941425,-0.615456607765943,-1.55095065157018,343.94177068392
738336.42807610367890447378,-0.578529211299987,-1.53864151941486,344.003316344696
738336.42807619413360953331,-0.54160181483403,-1.55095065157018,344.003316344696
738336.42807628458831459284,-0.529292682678711,-1.53864151941486,343.96638894823
738336.42807637504301965237,-0.504674418368074,-1.53864151941486,343.96638894823
738336.42807646549772471189,-0.504674418368074,-1.55095065157018,343.96638894823
738336.42807655595242977142,-0.516983550523392,-1.5632597837255,343.978698080386
738336.42807664640713483095,-0.566220079144668,-1.57556891588082,343.892534155299
738336.42807673686183989048,-0.615456607765943,-1.60018718019145,343.929461551764
738336.42807682731654495001,-0.677002268542538,-1.62480544450209,343.880225023143
738336.42807691777125000954,-0.726238797163813,-1.63711457665741,343.892534155299
738336.42807700822595506907,-0.76316619362977,-1.64942370881273,343.892534155299
738336.42807709868066012859,-0.800093590095726,-1.66173284096805,343.904843287454
738336.42807718913536518812,-0.824711854406364,-1.66173284096805,343.892534155299
738336.42807727959007024765,-0.849330118717002,-1.66173284096805,343.560187587105
738336.42807737004477530718,-0.849330118717002,-1.67404197312337,343.634042380037
738336.42807746049948036671,-0.861639250872321,-1.67404197312337,343.855606758833
738336.42807755095418542624,-0.861639250872321,-1.67404197312337,343.904843287454
738336.42807764140889048576,-0.87394838302764,-1.67404197312337,343.794061098056
738336.42807773186359554529,-0.861639250872321,-1.66173284096805,343.867915890988
738336.42807782231830060482,-0.861639250872321,-1.67404197312337,343.904843287454
738336.42807791277300566435,-0.87394838302764,-1.67404197312337,343.843297626677
738336.42807800322771072388,-0.87394838302764,-1.66173284096805,343.855606758833
738336.42807809368241578341,-0.87394838302764,-1.67404197312337,343.892534155299
738336.42807818402070552111,-0.87394838302764,-1.67404197312337,343.843297626677
738336.42807827447541058064,-0.861639250872321,-1.66173284096805,343.843297626677
738336.42807836493011564016,-0.87394838302764,-1.67404197312337,343.904843287454
738336.42807845538482069969,-0.861639250872321,-1.67404197312337,343.892534155299
738336.42807854583952575922,-0.861639250872321,-1.67404197312337,343.806370230211
738336.42807863629423081875,-0.849330118717002,-1.67404197312337,343.855606758833
738336.42807872674893587828,-0.849330118717002,-1.67404197312337,343.892534155299
738336.42807881720364093781,-0.849330118717002,-1.67404197312337,343.830988494522
738336.42807890765834599733,-0.837020986561683,-1.67404197312337,343.892534155299
738336.42807899811305105686,-0.837020986561683,-1.67404197312337,343.843297626677
738336.42807908856775611639,-0.837020986561683,-1.67404197312337,343.794061098056
738336.42807917902246117592,-0.837020986561683,-1.67404197312337,343.855606758833
738336.42807926947716623545,-0.824711854406364,-1.67404197312337,343.855606758833
738336.42807935993187129498,-0.837020986561683,-1.66173284096805,343.806370230211
738336.42807945038657635450,-0.824711854406364,-1.66173284096805,343.818679362367
738336.42807954084128141403,-0.837020986561683,-1.67404197312337,343.794061098056
738336.42807963129598647356,-0.824711854406364,-1.67404197312337,343.806370230211
738336.42807972175069153309,-0.837020986561683,-1.67404197312337,343.806370230211
738336.42807981220539659262,-0.824711854406364,-1.67404197312337,343.855606758833
738336.42807990266010165215,-0.837020986561683,-1.67404197312337,343.806370230211
738336.42807999311480671167,-0.824711854406364,-1.66173284096805,343.75713370159
738336.42808008356951177120,-0.837020986561683,-1.66173284096805,343.794061098056
738336.42808017402421683073,-0.837020986561683,-1.66173284096805,343.818679362367
738336.42808026447892189026,-0.837020986561683,-1.66173284096805,343.781751965901
738336.42808035493362694979,-0.837020986561683,-1.66173284096805,343.720206305124
738336.42808044538833200932,-0.849330118717002,-1.66173284096805,343.732515437279
738336.42808053584303706884,-0.849330118717002,-1.66173284096805,343.744824569435
738336.42808062629774212837,-0.849330118717002,-1.67404197312337,343.769442833745
738336.42808071675244718790,-0.849330118717002,-1.67404197312337,343.806370230211
738336.42808080720715224743,-0.849330118717002,-1.66173284096805,343.597114983571
738336.42808089766185730696,-0.849330118717002,-1.66173284096805,343.707897172969
738336.42808098811656236649,-0.837020986561683,-1.66173284096805,343.806370230211
738336.42808107857126742601,-0.849330118717002,-1.66173284096805,343.830988494522
738336.42808116902597248554,-0.849330118717002,-1.66173284096805,343.818679362367
738336.42808125948067754507,-0.849330118717002,-1.67404197312337,343.880225023143
738336.42808134993538260460,-0.849330118717002,-1.67404197312337,343.880225023143
738336.42808144039008766413,-0.849330118717002,-1.67404197312337,343.806370230211
738336.42808153084479272366,-0.849330118717002,-1.67404197312337,343.830988494522
738336.42808162129949778318,-0.849330118717002,-1.67404197312337,343.904843287454
738336.42808171175420284271,-0.849330118717002,-1.67404197312337,343.904843287454
738336.42808180220890790224,-0.849330118717002,-1.66173284096805,343.769442833745
738336.42808189266361296177,-0.849330118717002,-1.67404197312337,343.855606758833
738336.42808198311831802130,-0.849330118717002,-1.68635110527868,343.880225023143
738336.42808207357302308083,-0.849330118717002,-1.66173284096805,343.855606758833
738336.42808216402772814035,-0.837020986561683,-1.67404197312337,343.843297626677
738336.42808225448243319988,-0.849330118717002,-1.68635110527868,343.904843287454
738336.42808234493713825941,-0.837020986561683,-1.66173284096805,343.855606758833
738336.42808243527542799711,-0.849330118717002,-1.67404197312337,343.843297626677
738336.42808252573013305664,-0.849330118717002,-1.67404197312337,343.892534155299
738336.42808261618483811617,-0.837020986561683,-1.67404197312337,343.867915890988
738336.42808270663954317570,-0.837020986561683,-1.68635110527868,343.818679362367
738336.42808279709424823523,-0.837020986561683,-1.68635110527868,343.880225023143
738336.42808288754895329475,-0.837020986561683,-1.66173284096805,343.75713370159
738336.42808297800365835428,-0.837020986561683,-1.67404197312337,343.75713370159
738336.42808306845836341381,-0.837020986561683,-1.67404197312337,343.843297626677
738336.42808315891306847334,-0.837020986561683,-1.67404197312337,343.818679362367
738336.42808324936777353287,-0.849330118717002,-1.67404197312337,343.744824569435
738336.42808333982247859240,-0.837020986561683,-1.68635110527868,343.769442833745
738336.42808343027718365192,-0.837020986561683,-1.68635110527868,343.781751965901
738336.42808352073188871145,-0.837020986561683,-1.67404197312337,343.794061098056
738336.42808361118659377098,-0.837020986561683,-1.67404197312337,343.830988494522
738336.42808370164129883051,-0.837020986561683,-1.67404197312337,343.806370230211
738336.42808379209600389004,-0.837020986561683,-1.67404197312337,343.867915890988
738336.42808388255070894957,-0.837020986561683,-1.67404197312337,343.855606758833
738336.42808397300541400909,-0.837020986561683,-1.67404197312337,343.830988494522
738336.42808406346011906862,-0.837020986561683,-1.66173284096805,343.781751965901
738336.42808415391482412815,-0.837020986561683,-1.67404197312337,343.794061098056
738336.42808424436952918768,-0.837020986561683,-1.67404197312337,343.781751965901
738336.42808433482423424721,-0.837020986561683,-1.67404197312337,343.609424115726
738336.42808442527893930674,-0.824711854406364,-1.67404197312337,343.781751965901
738336.42808451573364436626,-0.837020986561683,-1.67404197312337,343.867915890988
738336.42808460618834942579,-0.837020986561683,-1.68635110527868,343.806370230211
738336.42808469664305448532,-0.837020986561683,-1.67404197312337,343.892534155299
738336.42808478709775954485,-0.837020986561683,-1.68635110527868,343.867915890988
738336.42808487755246460438,-0.837020986561683,-1.68635110527868,343.867915890988
738336.42808496800716966391,-0.837020986561683,-1.67404197312337,343.794061098056
738336.42808505846187472343,-0.824711854406364,-1.67404197312337,343.781751965901
738336.42808514891657978296,-0.837020986561683,-1.67404197312337,343.781751965901
738336.42808523937128484249,-0.837020986561683,-1.67404197312337,343.75713370159
738336.42808532982598990202,-0.824711854406364,-1.67404197312337,343.769442833745
738336.42808542028069496155,-0.824711854406364,-1.67404197312337,343.794061098056
738336.42808551073540002108,-0.837020986561683,-1.68635110527868,343.843297626677
738336.42808560119010508060,-0.824711854406364,-1.67404197312337,343.830988494522
738336.42808569164481014013,-0.824711854406364,-1.67404197312337,343.867915890988
738336.42808578209951519966,-0.824711854406364,-1.67404197312337,343.855606758833
738336.42808587255422025919,-0.812402722251045,-1.67404197312337,343.843297626677
738336.42808596300892531872,-0.824711854406364,-1.67404197312337,343.917152419609
738336.42808605346363037825,-0.824711854406364,-1.67404197312337,343.867915890988
738336.42808614391833543777,-0.812402722251045,-1.67404197312337,343.781751965901
738336.42808623437304049730,-0.800093590095726,-1.66173284096805,343.867915890988
738336.42808632482774555683,-0.800093590095726,-1.68635110527868,343.892534155299
738336.42808641528245061636,-0.800093590095726,-1.72327850174464,343.818679362367
738336.42808650573715567589,-0.787784457940408,-1.72327850174464,343.904843287454
738336.42808659607544541359,-0.775475325785089,-1.77251503036592,343.904843287454
738336.42808668653015047312,-0.76316619362977,-1.77251503036592,343.892534155299
738336.42808677698485553265,-0.738547929319132,-1.71096936958932,343.769442833745
738336.42808686743956059217,-0.750857061474451,-1.698660237434,343.843297626677
738336.42808695789426565170,-0.775475325785089,-1.68635110527868,343.880225023143
738336.42808704834897071123,-0.800093590095726,-1.67404197312337,343.855606758833
738336.42808713880367577076,-0.812402722251045,-1.67404197312337,343.843297626677
738336.42808722925838083029,-0.812402722251045,-1.67404197312337,343.904843287454
738336.42808731971308588982,-0.837020986561683,-1.67404197312337,343.843297626677
738336.42808741016779094934,-0.837020986561683,-1.67404197312337,343.843297626677
738336.42808750062249600887,-0.824711854406364,-1.66173284096805,343.892534155299
738336.42808759107720106840,-0.824711854406364,-1.64942370881273,343.843297626677
738336.42808768153190612793,-0.837020986561683,-1.66173284096805,343.769442833745
738336.42808777198661118746,-0.837020986561683,-1.66173284096805,343.843297626677
738336.42808786244131624699,-0.837020986561683,-1.66173284096805,343.683278908658
738336.42808795289602130651,-0.824711854406364,-1.66173284096805,343.683278908658
738336.42808804335072636604,-0.824711854406364,-1.66173284096805,343.830988494522
738336.42808813380543142557,-0.824711854406364,-1.55095065157018,343.769442833745
738336.42808822426013648510,-0.738547929319132,-1.37862280139571,343.917152419609
738336.42808831471484154463,-0.492365286212755,-1.64942370881273,344.003316344696
738336.42808840516954660416,-0.11078218939787,-2.10486159855953,344.089480269784
738336.42808849562425166368,0.0369273964659566,-2.26488031657867,344.187953327026
738336.42808858607895672321,-0.0615456607765943,-2.19102552364676,344.249498987803
738336.42808867653366178274,-0.54160181483403,-1.84636982329783,344.077171137628
738336.42808876698836684227,-0.775475325785089,-1.83406069114251,343.75713370159
738336.42808885744307190180,-0.713929665008494,-1.73558763389996,343.806370230211
738336.42808894789777696133,-0.726238797163813,-1.67404197312337,343.781751965901
738336.42808903835248202085,-0.76316619362977,-1.66173284096805,343.794061098056
738336.42808912880718708038,-0.76316619362977,-1.66173284096805,343.794061098056
738336.42808921926189213991,-0.76316619362977,-1.64942370881273,343.843297626677
738336.42808930971659719944,-0.775475325785089,-1.66173284096805,343.843297626677
738336.42808940017130225897,-0.76316619362977,-1.64942370881273,343.830988494522
738336.42808949062600731850,-0.76316619362977,-1.63711457665741,343.830988494522
738336.42808958108071237803,-0.76316619362977,-1.63711457665741,343.917152419609
738336.42808967153541743755,-0.76316619362977,-1.63711457665741,343.917152419609
738336.42808976199012249708,-0.76316619362977,-1.63711457665741,343.855606758833
738336.42808985244482755661,-0.738547929319132,-1.62480544450209,343.892534155299
738336.42808994289953261614,-0.738547929319132,-1.62480544450209,343.917152419609
738336.42809003335423767567,-0.738547929319132,-1.62480544450209,343.867915890988
738336.42809012380894273520,-0.738547929319132,-1.63711457665741,343.94177068392
738336.42809021426364779472,-0.726238797163813,-1.62480544450209,343.94177068392
738336.42809030471835285425,-0.713929665008494,-1.62480544450209,343.929461551764
738336.42809039517305791378,-0.713929665008494,-1.62480544450209,343.769442833745
738336.42809048562776297331,-0.689311400697857,-1.61249631234677,343.892534155299
738336.42809057608246803284,-0.677002268542538,-1.61249631234677,343.94177068392
738336.42809066653717309237,-0.6523840042319,-1.60018718019145,343.904843287454
738336.42809075687546283007,-0.640074872076581,-1.60018718019145,343.917152419609
738336.42809084733016788960,-0.615456607765943,-1.58787804803613,343.96638894823
738336.42809093778487294912,-0.590838343455306,-1.57556891588082,343.855606758833
738336.42809102823957800865,-0.566220079144668,-1.5632597837255,343.867915890988
738336.42809111869428306818,-0.54160181483403,-1.5632597837255,343.954079816075
738336.42809120914898812771,-0.492365286212755,-1.5632597837255,343.954079816075
738336.42809129960369318724,-0.467747021902117,-1.5632597837255,343.954079816075
738336.42809139005839824677,-0.443128757591479,-1.55095065157018,343.806370230211
738336.42809148051310330629,-0.406201361125523,-1.55095065157018,343.892534155299
738336.42809157096780836582,-0.393892228970204,-1.55095065157018,343.96638894823
738336.42809166142251342535,-0.381583096814885,-1.5632597837255,343.978698080386
738336.42809175187721848488,-0.381583096814885,-1.5632597837255,344.015625476852
738336.42809184233192354441,-0.406201361125523,-1.58787804803613,343.978698080386
738336.42809193278662860394,-0.455437889746798,-1.60018718019145,343.94177068392
738336.42809202324133366346,-0.504674418368074,-1.61249631234677,343.96638894823
738336.42809211369603872299,-0.566220079144668,-1.63711457665741,343.855606758833
738336.42809220415074378252,-0.590838343455306,-1.63711457665741,343.880225023143
738336.42809229460544884205,-0.627765739921262,-1.63711457665741,343.855606758833
738336.42809238506015390158,-0.677002268542538,-1.66173284096805,343.892534155299
738336.42809247551485896111,-0.701620532853175,-1.67404197312337,343.830988494522
738336.42809256596956402063,-0.713929665008494,-1.66173284096805,343.843297626677
738336.42809265642426908016,-0.726238797163813,-1.67404197312337,343.855606758833
738336.42809274687897413969,-0.750857061474451,-1.67404197312337,343.867915890988
738336.42809283733367919922,-0.750857061474451,-1.67404197312337,343.744824569435
738336.42809292778838425875,-0.750857061474451,-1.68635110527868,343.794061098056
738336.42809301824308931828,-0.76316619362977,-1.68635110527868,343.781751965901
738336.42809310869779437780,-0.76316619362977,-1.68635110527868,343.818679362367
738336.42809319915249943733,-0.76316619362977,-1.68635110527868,343.830988494522
738336.42809328960720449686,-0.76316619362977,-1.68635110527868,343.818679362367
738336.42809338006190955639,-0.750857061474451,-1.68635110527868,343.843297626677
738336.42809347051661461592,-0.750857061474451,-1.67404197312337,343.830988494522
738336.42809356097131967545,-0.76316619362977,-1.67404197312337,343.732515437279
738336.42809365142602473497,-0.750857061474451,-1.68635110527868,343.794061098056
738336.42809374188072979450,-0.76316619362977,-1.68635110527868,343.744824569435
738336.42809383233543485403,-0.750857061474451,-1.68635110527868,343.781751965901
738336.42809392279013991356,-0.750857061474451,-1.68635110527868,343.781751965901
738336.42809401324484497309,-0.750857061474451,-1.68635110527868,343.769442833745
738336.42809410369955003262,-0.750857061474451,-1.68635110527868,343.806370230211
738336.42809419415425509214,-0.750857061474451,-1.68635110527868,343.855606758833
738336.42809428460896015167,-0.750857061474451,-1.68635110527868,343.880225023143
738336.42809437506366521120,-0.750857061474451,-1.68635110527868,343.806370230211
738336.42809446551837027073,-0.750857061474451,-1.698660237434,343.855606758833
738336.42809455597307533026,-0.738547929319132,-1.67404197312337,343.904843287454
738336.42809464642778038979,-0.738547929319132,-1.68635110527868,343.769442833745
738336.42809473688248544931,-0.738547929319132,-1.67404197312337,343.867915890988
738336.42809482733719050884,-0.726238797163813,-1.67404197312337,343.867915890988
738336.42809491779189556837,-0.750857061474451,-1.68635110527868,343.720206305124
738336.42809500813018530607,-0.738547929319132,-1.698660237434,343.75713370159
738336.42809509858489036560,-0.750857061474451,-1.67404197312337,343.892534155299
738336.42809518903959542513,-0.738547929319132,-1.68635110527868,343.855606758833
738336.42809527949430048466,-0.713929665008494,-1.66173284096805,343.830988494522
738336.42809536994900554419,-0.738547929319132,-1.67404197312337,343.867915890988
738336.42809546040371060371,-0.76316619362977,-1.68635110527868,343.818679362367
738336.42809555085841566324,-0.76316619362977,-1.68635110527868,343.843297626677
738336.42809564131312072277,-0.76316619362977,-1.67404197312337,343.818679362367
738336.42809573176782578230,-0.76316619362977,-1.67404197312337,343.794061098056
738336.42809582222253084183,-0.76316619362977,-1.66173284096805,343.843297626677
738336.42809591267723590136,-0.750857061474451,-1.66173284096805,343.830988494522
738336.42809600313194096088,-0.750857061474451,-1.64942370881273,343.794061098056
738336.42809609358664602041,-0.76316619362977,-1.64942370881273,343.794061098056
738336.42809618404135107994,-0.775475325785089,-1.67404197312337,343.806370230211
738336.42809627449605613947,-0.787784457940408,-1.68635110527868,343.892534155299
738336.42809636495076119900,-0.76316619362977,-1.64942370881273,343.781751965901
738336.42809645540546625853,-0.76316619362977,-1.64942370881273,343.806370230211
738336.42809654586017131805,-0.775475325785089,-1.66173284096805,343.830988494522
738336.42809663631487637758,-0.76316619362977,-1.66173284096805,343.867915890988
738336.42809672676958143711,-0.787784457940408,-1.68635110527868,343.904843287454
738336.42809681722428649664,-0.800093590095726,-1.68635110527868,343.855606758833
738336.42809690767899155617,-0.787784457940408,-1.67404197312337,343.830988494522
738336.42809699813369661570,-0.775475325785089,-1.64942370881273,343.843297626677
738336.42809708858840167522,-0.787784457940408,-1.67404197312337,343.855606758833
738336.42809717904310673475,-0.787784457940408,-1.66173284096805,343.855606758833
738336.42809726949781179428,-0.775475325785089,-1.66173284096805,343.867915890988
738336.42809735995251685381,-0.775475325785089,-1.66173284096805,343.892534155299
738336.42809745040722191334,-0.775475325785089,-1.66173284096805,343.830988494522
738336.42809754086192697287,-0.775475325785089,-1.66173284096805,343.818679362367
738336.42809763131663203239,-0.787784457940408,-1.64942370881273,343.830988494522
738336.42809772177133709192,-0.775475325785089,-1.66173284096805,343.818679362367
738336.42809781222604215145,-0.775475325785089,-1.64942370881273,343.880225023143
738336.42809790268074721098,-0.775475325785089,-1.64942370881273,343.892534155299
738336.42809799313545227051,-0.775475325785089,-1.64942370881273,343.818679362367
738336.42809808359015733004,-0.775475325785089,-1.64942370881273,343.904843287454
738336.42809817404486238956,-0.787784457940408,-1.64942370881273,343.904843287454
738336.42809826449956744909,-0.787784457940408,-1.64942370881273,343.904843287454
738336.42809835495427250862,-0.775475325785089,-1.64942370881273,343.867915890988
738336.42809844540897756815,-0.787784457940408,-1.66173284096805,343.781751965901
738336.42809853586368262768,-0.775475325785089,-1.63711457665741,343.769442833745
738336.42809862631838768721,-0.775475325785089,-1.63711457665741,343.781751965901
738336.42809871677309274673,-0.787784457940408,-1.63711457665741,343.867915890988
738336.42809880722779780626,-0.800093590095726,-1.64942370881273,343.806370230211
738336.42809889768250286579,-0.787784457940408,-1.63711457665741,343.806370230211
738336.42809898813720792532,-0.787784457940408,-1.64942370881273,343.794061098056
738336.42809907859191298485,-0.800093590095726,-1.63711457665741,343.794061098056
738336.42809916893020272255,-0.800093590095726,-1.64942370881273,343.806370230211
738336.42809925938490778208,-0.800093590095726,-1.64942370881273,343.843297626677
738336.42809934983961284161,-0.800093590095726,-1.63711457665741,343.904843287454
738336.42809944029431790113,-0.800093590095726,-1.64942370881273,343.917152419609
738336.42809953074902296066,-0.800093590095726,-1.64942370881273,343.781751965901
738336.42809962120372802019,-0.800093590095726,-1.64942370881273,343.794061098056
738336.42809971165843307972,-0.800093590095726,-1.64942370881273,343.806370230211
738336.42809980211313813925,-0.800093590095726,-1.64942370881273,343.781751965901
738336.42809989256784319878,-0.800093590095726,-1.63711457665741,343.843297626677
738336.42809998302254825830,-0.800093590095726,-1.64942370881273,343.880225023143
738336.42810007347725331783,-0.800093590095726,-1.62480544450209,343.904843287454
738336.42810016393195837736,-0.812402722251045,-1.62480544450209,343.794061098056
738336.42810025438666343689,-0.824711854406364,-1.63711457665741,343.855606758833
738336.42810034484136849642,-0.824711854406364,-1.64942370881273,343.880225023143
738336.42810043529607355595,-0.812402722251045,-1.63711457665741,343.818679362367
738336.42810052575077861547,-0.800093590095726,-1.63711457665741,343.880225023143
738336.42810061620548367500,-0.787784457940408,-1.64942370881273,343.880225023143
738336.42810070666018873453,-0.787784457940408,-1.66173284096805,343.867915890988
738336.42810079711489379406,-0.775475325785089,-1.68635110527868,343.830988494522
738336.42810088756959885359,-0.775475325785089,-1.72327850174464,343.880225023143
738336.42810097802430391312,-0.76316619362977,-1.698660237434,343.892534155299
738336.42810106847900897264,-0.750857061474451,-1.64942370881273,343.830988494522
738336.42810115893371403217,-0.750857061474451,-1.62480544450209,343.892534155299
738336.42810124938841909170,-0.787784457940408,-1.60018718019145,343.732515437279
738336.42810133984312415123,-0.824711854406364,-1.64942370881273,343.781751965901
738336.42810143029782921076,-0.849330118717002,-1.66173284096805,343.794061098056
738336.42810152075253427029,-0.849330118717002,-1.64942370881273,343.867915890988
738336.42810161120723932981,-0.861639250872321,-1.64942370881273,343.781751965901
738336.42810170166194438934,-0.849330118717002,-1.63711457665741,343.830988494522
738336.42810179211664944887,-0.849330118717002,-1.63711457665741,343.830988494522
738336.42810188257135450840,-0.861639250872321,-1.63711457665741,343.892534155299
738336.42810197302605956793,-0.861639250872321,-1.63711457665741,343.806370230211
738336.42810206348076462746,-0.861639250872321,-1.62480544450209,343.720206305124
738336.42810215393546968699,-0.861639250872321,-1.63711457665741,343.830988494522
738336.42810224439017474651,-0.849330118717002,-1.62480544450209,343.892534155299
738336.42810233484487980604,-0.849330118717002,-1.62480544450209,343.830988494522
738336.42810242529958486557,-0.87394838302764,-1.55095065157018,343.818679362367
738336.42810251575428992510,-0.812402722251045,-1.37862280139571,343.855606758833
738336.42810260620899498463,-0.566220079144668,-1.48940499079358,344.003316344696
738336.42810269666370004416,-0.209255246640421,-2.00638854131698,344.138716798405
738336.42810278711840510368,0,-2.25257118442335,344.261808119958
738336.42810287757311016321,-0.246182643106377,-2.06793420209357,344.249498987803
738336.42810296802781522274,-0.750857061474451,-1.78482416252124,344.003316344696
738336.42810305848252028227,-0.76316619362977,-1.74789676605528,343.904843287454
738336.42810314893722534180,-0.775475325785089,-1.68635110527868,343.892534155299
738336.42810323939193040133,-0.812402722251045,-1.64942370881273,343.917152419609
738336.42810332984663546085,-0.800093590095726,-1.63711457665741,343.917152419609
738336.42810342018492519855,-0.812402722251045,-1.61249631234677,343.880225023143
738336.42810351063963025808,-0.787784457940408,-1.57556891588082,343.917152419609
738336.42810360109433531761,-0.837020986561683,-1.62480544450209,343.954079816075
738336.42810369154904037714,-0.849330118717002,-1.62480544450209,343.769442833745
738336.42810378200374543667,-0.861639250872321,-1.63711457665741,343.830988494522
738336.42810387245845049620,-0.849330118717002,-1.62480544450209,343.830988494522
738336.42810396291315555573,-0.824711854406364,-1.60018718019145,343.855606758833
738336.42810405336786061525,-0.824711854406364,-1.60018718019145,343.880225023143
738336.42810414382256567478,-0.824711854406364,-1.60018718019145,343.867915890988
738336.42810423427727073431,-0.824711854406364,-1.61249631234677,343.880225023143
738336.42810432473197579384,-0.812402722251045,-1.60018718019145,343.880225023143
738336.42810441518668085337,-0.787784457940408,-1.58787804803613,343.855606758833
738336.42810450564138591290,-0.800093590095726,-1.60018718019145,343.917152419609
738336.42810459609609097242,-0.800093590095726,-1.61249631234677,343.954079816075
738336.42810468655079603195,-0.787784457940408,-1.58787804803613,343.843297626677
738336.42810477700550109148,-0.738547929319132,-1.55095065157018,343.94177068392
738336.42810486746020615101,-0.750857061474451,-1.57556891588082,343.954079816075
738336.42810495791491121054,-0.750857061474451,-1.57556891588082,343.94177068392
738336.42810504836961627007,-0.726238797163813,-1.55095065157018,343.929461551764
738336.42810513882432132959,-0.713929665008494,-1.55095065157018,343.954079816075
738336.42810522927902638912,-0.701620532853175,-1.55095065157018,343.991007212541
738336.42810531973373144865,-0.664693136387219,-1.52633238725954,343.917152419609
738336.42810541018843650818,-0.6523840042319,-1.53864151941486,343.892534155299
738336.42810550064314156771,-0.627765739921262,-1.52633238725954,343.929461551764
738336.42810559109784662724,-0.578529211299987,-1.52633238725954,343.880225023143
738336.42810568155255168676,-0.566220079144668,-1.51402325510422,344.052552873318
738336.42810577200725674629,-0.54160181483403,-1.51402325510422,344.015625476852
738336.42810586246196180582,-0.504674418368074,-1.51402325510422,344.027934609007
738336.42810595291666686535,-0.504674418368074,-1.52633238725954,344.052552873318
738336.42810604337137192488,-0.492365286212755,-1.51402325510422,344.077171137628
738336.42810613382607698441,-0.516983550523392,-1.52633238725954,344.064862005473
738336.42810622428078204393,-0.566220079144668,-1.53864151941486,344.027934609007
738336.42810631473548710346,-0.615456607765943,-1.5632597837255,344.003316344696
738336.42810640519019216299,-0.677002268542538,-1.57556891588082,343.929461551764
738336.42810649564489722252,-0.726238797163813,-1.60018718019145,343.96638894823
738336.42810658609960228205,-0.787784457940408,-1.61249631234677,343.978698080386
738336.42810667655430734158,-0.812402722251045,-1.62480544450209,343.954079816075
738336.42810676700901240110,-0.837020986561683,-1.62480544450209,343.892534155299
738336.42810685746371746063,-0.849330118717002,-1.62480544450209,343.904843287454
738336.42810694791842252016,-0.87394838302764,-1.63711457665741,343.917152419609
738336.42810703837312757969,-0.87394838302764,-1.63711457665741,343.867915890988
738336.42810712882783263922,-0.886257515182958,-1.62480544450209,343.892534155299
738336.42810721928253769875,-0.886257515182958,-1.62480544450209,343.917152419609
738336.42810730973724275827,-0.886257515182958,-1.63711457665741,343.904843287454
738336.42810740019194781780,-0.898566647338277,-1.63711457665741,343.806370230211
738336.42810749064665287733,-0.886257515182958,-1.62480544450209,343.806370230211
738336.42810758098494261503,-0.886257515182958,-1.61249631234677,343.794061098056
738336.42810767143964767456,-0.898566647338277,-1.63711457665741,343.794061098056
738336.42810776189435273409,-0.898566647338277,-1.64942370881273,343.806370230211
738336.42810785234905779362,-0.898566647338277,-1.64942370881273,343.880225023143
738336.42810794280376285315,-0.886257515182958,-1.63711457665741,343.843297626677
738336.42810803325846791267,-0.898566647338277,-1.63711457665741,343.892534155299
738336.42810812371317297220,-0.898566647338277,-1.63711457665741,343.904843287454
738336.42810821416787803173,-0.87394838302764,-1.61249631234677,343.843297626677
738336.42810830462258309126,-0.824711854406364,-1.57556891588082,343.917152419609
738336.42810839507728815079,-0.87394838302764,-1.62480544450209,343.818679362367
738336.42810848553199321032,-0.910875779493596,-1.64942370881273,343.818679362367
738336.42810857598669826984,-0.898566647338277,-1.64942370881273,343.794061098056
738336.42810866644140332937,-0.910875779493596,-1.66173284096805,343.794061098056
738336.42810875689610838890,-0.837020986561683,-1.58787804803613,343.818679362367
738336.42810884735081344843,-0.861639250872321,-1.61249631234677,343.818679362367
738336.42810893780551850796,-0.886257515182958,-1.64942370881273,343.830988494522
738336.42810902826022356749,-0.923184911648915,-1.67404197312337,343.794061098056
738336.42810911871492862701,-0.923184911648915,-1.68635110527868,343.695588040813
738336.42810920916963368654,-0.898566647338277,-1.64942370881273,343.843297626677
738336.42810929962433874607,-0.886257515182958,-1.63711457665741,343.818679362367
738336.42810939007904380560,-0.87394838302764,-1.61249631234677,343.806370230211
738336.42810948053374886513,-0.861639250872321,-1.60018718019145,343.867915890988
738336.42810957098845392466,-0.76316619362977,-1.51402325510422,343.917152419609
738336.42810966144315898418,-0.750857061474451,-1.5017141229489,343.892534155299
738336.42810975189786404371,-0.898566647338277,-1.62480544450209,343.806370230211
738336.42810984235256910324,-0.984730572425509,-1.71096936958932,343.904843287454
738336.42810993280727416277,-0.972421440270191,-1.71096936958932,343.867915890988
738336.42811002326197922230,-0.972421440270191,-1.698660237434,343.855606758833
738336.42811011371668428183,-0.972421440270191,-1.698660237434,343.867915890988
738336.42811020417138934135,-0.947803175959553,-1.67404197312337,343.892534155299
738336.42811029462609440088,-0.898566647338277,-1.61249631234677,343.904843287454
738336.42811038508079946041,-0.837020986561683,-1.57556891588082,343.855606758833
738336.42811047553550451994,-0.849330118717002,-1.57556891588082,343.880225023143
738336.42811056599020957947,-0.910875779493596,-1.63711457665741,343.892534155299
738336.42811065644491463900,-0.935494043804234,-1.64942370881273,343.830988494522
738336.42811074689961969852,-0.947803175959553,-1.67404197312337,343.843297626677
738336.42811083735432475805,-0.935494043804234,-1.66173284096805,343.818679362367
738336.42811092780902981758,-0.947803175959553,-1.66173284096805,343.806370230211
738336.42811101826373487711,-0.947803175959553,-1.66173284096805,343.781751965901
738336.42811110871843993664,-0.787784457940408,-1.5017141229489,343.806370230211
738336.42811119917314499617,-0.849330118717002,-1.5632597837255,343.818679362367
738336.42811128962785005569,-0.861639250872321,-1.57556891588082,343.904843287454
738336.42811138008255511522,-0.837020986561683,-1.55095065157018,343.843297626677
738336.42811147053726017475,-1.00934883673615,-1.71096936958932,343.904843287454
738336.42811156099196523428,-1.05858536535742,-1.77251503036592,343.917152419609
738336.42811165144667029381,-0.997039704580828,-1.71096936958932,343.843297626677
738336.42811174178496003151,-0.960112308114872,-1.67404197312337,343.917152419609
738336.42811183223966509104,-0.910875779493596,-1.61249631234677,343.880225023143
738336.42811192269437015057,-0.886257515182958,-1.60018718019145,343.855606758833
738336.42811201314907521009,-0.898566647338277,-1.61249631234677,343.904843287454
738336.42811210360378026962,-0.910875779493596,-1.61249631234677,343.855606758833
738336.42811219405848532915,-0.935494043804234,-1.64942370881273,343.830988494522
738336.42811228451319038868,-0.923184911648915,-1.63711457665741,343.855606758833
738336.42811237496789544821,-0.849330118717002,-1.5632597837255,343.707897172969
738336.42811246542260050774,-0.910875779493596,-1.62480544450209,343.75713370159
738336.42811255587730556726,-0.960112308114872,-1.66173284096805,343.781751965901
738336.42811264633201062679,-0.898566647338277,-1.60018718019145,343.646351512192
738336.42811273678671568632,-0.824711854406364,-1.52633238725954,343.794061098056
738336.42811282724142074585,-0.787784457940408,-1.48940499079358,343.794061098056
738336.42811291769612580538,-0.861639250872321,-1.5632597837255,343.794061098056
738336.42811300815083086491,-0.984730572425509,-1.68635110527868,343.818679362367
738336.42811309860553592443,-1.08320362966806,-1.79713329467655,343.855606758833
738336.42811318906024098396,-1.03396710104678,-1.73558763389996,343.892534155299
738336.42811327951494604349,-0.997039704580828,-1.698660237434,343.794061098056
738336.42811336996965110302,-0.997039704580828,-1.71096936958932,343.892534155299
738336.42811346042435616255,-0.935494043804234,-1.62480544450209,343.880225023143
738336.42811355087906122208,-0.775475325785089,-1.47709585863826,343.843297626677
738336.42811364133376628160,-0.935494043804234,-1.64942370881273,343.867915890988
738336.42811373178847134113,-0.997039704580828,-1.72327850174464,343.917152419609
738336.42811382224317640066,-0.947803175959553,-1.64942370881273,343.880225023143
738336.42811391269788146019,-0.849330118717002,-1.57556891588082,343.806370230211
738336.42811400315258651972,-0.750857061474451,-1.46478672648295,343.867915890988
738336.42811409360729157925,-0.837020986561683,-1.5632597837255,343.830988494522
738336.42811418406199663877,-0.898566647338277,-1.66173284096805,343.781751965901
738336.42811427451670169830,-0.910875779493596,-1.68635110527868,343.830988494522
738336.42811436497140675783,-0.997039704580828,-1.82175155898719,343.843297626677
738336.42811445542611181736,-1.00934883673615,-1.85867895545315,343.843297626677
738336.42811454588081687689,-0.87394838302764,-1.71096936958932,343.769442833745
738336.42811463633552193642,-0.886257515182958,-1.698660237434,343.830988494522
738336.42811472679022699594,-0.849330118717002,-1.60018718019145,343.855606758833
738336.42811481724493205547,-0.775475325785089,-1.51402325510422,343.818679362367
738336.42811490769963711500,-0.87394838302764,-1.60018718019145,343.843297626677
738336.42811499815434217453,-0.984730572425509,-1.698660237434,343.843297626677
738336.42811508860904723406,-1.00934883673615,-1.71096936958932,343.855606758833
738336.42811517906375229359,-0.997039704580828,-1.68635110527868,343.794061098056
738336.42811526951845735312,-0.997039704580828,-1.68635110527868,343.843297626677
738336.42811535997316241264,-0.997039704580828,-1.698660237434,343.855606758833
738336.42811545042786747217,-0.935494043804234,-1.61249631234677,343.781751965901
738336.42811554088257253170,-0.910875779493596,-1.60018718019145,343.781751965901
738336.42811563133727759123,-0.800093590095726,-1.48940499079358,343.794061098056
738336.42811572179198265076,-0.849330118717002,-1.55095065157018,343.769442833745
738336.42811581224668771029,-0.923184911648915,-1.62480544450209,343.732515437279
738336.42811590270139276981,-1.00934883673615,-1.67404197312337,343.855606758833
738336.42811599303968250751,-0.972421440270191,-1.51402325510422,343.867915890988
738336.42811608349438756704,-0.824711854406364,-1.37862280139571,343.732515437279
738336.42811617394909262657,-0.504674418368074,-1.80944242683187,343.991007212541
738336.42811626440379768610,0,-2.01869767347229,344.12640766625
738336.42811635485850274563,0.11078218939787,-2.06793420209357,344.261808119958
738336.42811644531320780516,-0.283110039572334,-2.04331593778293,344.200262459181
738336.42811653576791286469,-0.87394838302764,-1.84636982329783,343.917152419609
738336.42811662622261792421,-0.886257515182958,-1.80944242683187,343.818679362367
738336.42811671667732298374,-0.935494043804234,-1.79713329467655,343.843297626677
738336.42811680713202804327,-0.886257515182958,-1.68635110527868,343.843297626677
738336.42811689758673310280,-0.923184911648915,-1.68635110527868,343.855606758833
738336.42811698804143816233,-0.775475325785089,-1.53864151941486,343.830988494522
738336.42811707849614322186,-0.898566647338277,-1.66173284096805,343.794061098056
738336.42811716895084828138,-0.812402722251045,-1.55095065157018,343.855606758833
738336.42811725940555334091,-0.738547929319132,-1.47709585863826,343.843297626677
738336.42811734986025840044,-0.910875779493596,-1.66173284096805,343.75713370159
738336.42811744031496345997,-0.910875779493596,-1.67404197312337,343.830988494522
738336.42811753076966851950,-0.787784457940408,-1.55095065157018,343.843297626677
738336.42811762122437357903,-0.849330118717002,-1.61249631234677,343.843297626677
738336.42811771167907863855,-1.00934883673615,-1.77251503036592,343.744824569435
738336.42811780213378369808,-0.960112308114872,-1.72327850174464,343.867915890988
738336.42811789258848875761,-0.861639250872321,-1.63711457665741,343.867915890988
738336.42811798304319381714,-0.812402722251045,-1.58787804803613,343.855606758833
738336.42811807349789887667,-0.713929665008494,-1.5017141229489,343.806370230211
738336.42811816395260393620,-0.689311400697857,-1.47709585863826,343.855606758833
738336.42811825440730899572,-0.627765739921262,-1.42785933001699,343.855606758833
738336.42811834486201405525,-0.689311400697857,-1.5017141229489,343.830988494522
738336.42811843531671911478,-0.800093590095726,-1.62480544450209,343.867915890988
738336.42811852577142417431,-0.640074872076581,-1.46478672648295,343.892534155299
738336.42811861622612923384,-0.701620532853175,-1.53864151941486,343.880225023143
738336.42811870668083429337,-0.910875779493596,-1.77251503036592,343.904843287454
738336.42811879713553935289,-0.689311400697857,-1.5632597837255,343.929461551764
738336.42811888759024441242,-0.787784457940408,-1.68635110527868,343.929461551764
738336.42811897804494947195,-0.689311400697857,-1.61249631234677,343.904843287454
738336.42811906849965453148,-0.603147475610625,-1.5632597837255,343.978698080386
738336.42811915895435959101,-0.640074872076581,-1.60018718019145,343.929461551764
738336.42811924940906465054,-0.381583096814885,-1.35400453708508,343.96638894823
738336.42811933986376971006,-0.123091321553189,-1.15705842259997,344.027934609007
738336.42811943031847476959,-0.43081962543616,-1.47709585863826,344.027934609007
738336.42811952077317982912,-0.640074872076581,-1.68635110527868,344.015625476852
738336.42811961122788488865,-0.455437889746798,-1.51402325510422,343.843297626677
738336.42811970168258994818,-0.640074872076581,-1.67404197312337,343.904843287454
738336.42811979213729500771,-0.516983550523392,-1.52633238725954,343.991007212541
738336.42811988259200006723,-0.578529211299987,-1.55095065157018,343.904843287454
738336.42811997304670512676,-0.689311400697857,-1.63711457665741,343.929461551764
738336.42812006350141018629,-0.775475325785089,-1.67404197312337,343.917152419609
738336.42812015383969992399,-0.701620532853175,-1.57556891588082,343.867915890988
738336.42812024429440498352,-0.640074872076581,-1.5017141229489,343.818679362367
738336.42812033474911004305,-0.997039704580828,-1.83406069114251,343.843297626677
738336.42812042520381510258,-1.00934883673615,-1.83406069114251,343.855606758833
738336.42812051565852016211,-0.849330118717002,-1.66173284096805,343.781751965901
738336.42812060611322522163,-0.701620532853175,-1.52633238725954,343.843297626677
738336.42812069656793028116,-0.972421440270191,-1.79713329467655,343.744824569435
738336.42812078702263534069,-0.972421440270191,-1.77251503036592,343.781751965901
738336.42812087747734040022,-0.750857061474451,-1.57556891588082,343.781751965901
738336.42812096793204545975,-0.775475325785089,-1.58787804803613,343.794061098056
738336.42812105838675051928,-0.787784457940408,-1.58787804803613,343.818679362367
738336.42812114884145557880,-0.837020986561683,-1.63711457665741,343.806370230211
738336.42812123929616063833,-0.910875779493596,-1.71096936958932,343.843297626677
738336.42812132975086569786,-0.960112308114872,-1.74789676605528,343.867915890988
738336.42812142020557075739,-0.849330118717002,-1.66173284096805,343.781751965901
738336.42812151066027581692,-0.947803175959553,-1.7602058982106,343.732515437279
738336.42812160111498087645,-0.923184911648915,-1.73558763389996,343.769442833745
738336.42812169156968593597,-0.898566647338277,-1.71096936958932,343.830988494522
738336.42812178202439099550,-0.664693136387219,-1.47709585863826,343.855606758833
738336.42812187247909605503,-0.590838343455306,-1.40324106570635,343.794061098056
738336.42812196293380111456,-0.726238797163813,-1.5632597837255,343.75713370159
738336.42812205338850617409,-0.898566647338277,-1.72327850174464,343.794061098056
738336.42812214384321123362,-0.947803175959553,-1.78482416252124,343.843297626677
738336.42812223429791629314,-0.972421440270191,-1.79713329467655,343.75713370159
738336.42812232475262135267,-0.960112308114872,-1.77251503036592,343.867915890988
738336.42812241520732641220,-0.947803175959553,-1.77251503036592,343.818679362367
738336.42812250566203147173,-0.886257515182958,-1.71096936958932,343.769442833745
738336.42812259611673653126,-0.849330118717002,-1.68635110527868,343.781751965901
738336.42812268657144159079,-0.800093590095726,-1.63711457665741,343.794061098056
738336.42812277702614665031,-0.664693136387219,-1.5017141229489,343.818679362367
738336.42812286748085170984,-0.603147475610625,-1.44016846217231,343.720206305124
738336.42812295793555676937,-0.726238797163813,-1.55095065157018,343.720206305124
738336.42812304839026182890,-0.910875779493596,-1.73558763389996,343.732515437279
738336.42812313884496688843,-0.960112308114872,-1.77251503036592,343.609424115726
738336.42812322929967194796,-0.87394838302764,-1.698660237434,343.695588040813
738336.42812331975437700748,-0.960112308114872,-1.77251503036592,343.830988494522
738336.42812341020908206701,-0.923184911648915,-1.72327850174464,343.769442833745
738336.42812350066378712654,-0.76316619362977,-1.58787804803613,343.769442833745
738336.42812359111849218607,-0.701620532853175,-1.5017141229489,343.867915890988
738336.42812368157319724560,-0.738547929319132,-1.53864151941486,343.830988494522
738336.42812377202790230513,-0.76316619362977,-1.58787804803613,343.818679362367
738336.42812386248260736465,-0.886257515182958,-1.698660237434,343.806370230211
738336.42812395293731242418,-0.87394838302764,-1.68635110527868,343.843297626677
738336.42812404339201748371,-0.726238797163813,-1.52633238725954,343.855606758833
738336.42812413384672254324,-0.812402722251045,-1.61249631234677,343.720206305124
738336.42812422430142760277,-0.861639250872321,-1.64942370881273,343.744824569435
738336.42812431475613266230,-0.898566647338277,-1.698660237434,343.75713370159
738336.42812440509442240000,-1.02165796889147,-1.82175155898719,343.75713370159
738336.42812449554912745953,-0.800093590095726,-1.58787804803613,343.794061098056
738336.42812458600383251905,-0.677002268542538,-1.46478672648295,343.843297626677
738336.42812467645853757858,-1.0462762332021,-1.84636982329783,343.867915890988
738336.42812476691324263811,-0.910875779493596,-1.68635110527868,343.806370230211
738336.42812485736794769764,-0.87394838302764,-1.66173284096805,343.892534155299
738336.42812494782265275717,-0.972421440270191,-1.7602058982106,343.806370230211
738336.42812503827735781670,-0.972421440270191,-1.7602058982106,343.781751965901
738336.42812512873206287622,-0.87394838302764,-1.66173284096805,343.806370230211
738336.42812521918676793575,-0.775475325785089,-1.5632597837255,343.732515437279
738336.42812530964147299528,-0.837020986561683,-1.64942370881273,343.732515437279
738336.42812540009617805481,-0.824711854406364,-1.61249631234677,343.720206305124
738336.42812549055088311434,-0.997039704580828,-1.78482416252124,343.75713370159
738336.42812558100558817387,-1.02165796889147,-1.80944242683187,343.75713370159
738336.42812567146029323339,-0.750857061474451,-1.53864151941486,343.732515437279
738336.42812576191499829292,-0.800093590095726,-1.58787804803613,343.732515437279
738336.42812585236970335245,-1.0462762332021,-1.83406069114251,343.794061098056
738336.42812594282440841198,-0.997039704580828,-1.77251503036592,343.744824569435
738336.42812603327911347151,-0.787784457940408,-1.58787804803613,343.732515437279
738336.42812612373381853104,-0.713929665008494,-1.51402325510422,343.732515437279
738336.42812621418852359056,-0.824711854406364,-1.60018718019145,343.769442833745
738336.42812630464322865009,-0.713929665008494,-1.5017141229489,343.75713370159
738336.42812639509793370962,-0.923184911648915,-1.71096936958932,343.75713370159
738336.42812648555263876915,-1.09551276182338,-1.88329721976379,343.75713370159
738336.42812657600734382868,-1.08320362966806,-1.87098808760847,343.744824569435
738336.42812666646204888821,-0.947803175959553,-1.72327850174464,343.634042380037
738336.42812675691675394773,-0.812402722251045,-1.60018718019145,343.670969776503
738336.42812684737145900726,-0.775475325785089,-1.5632597837255,343.75713370159
738336.42812693782616406679,-0.787784457940408,-1.57556891588082,343.732515437279
738336.42812702828086912632,-0.76316619362977,-1.5632597837255,343.781751965901
738336.42812711873557418585,-0.701620532853175,-1.5017141229489,343.75713370159
738336.42812720919027924538,-1.08320362966806,-1.87098808760847,343.794061098056
738336.42812729964498430490,-1.0462762332021,-1.83406069114251,343.75713370159
738336.42812739009968936443,-0.910875779493596,-1.68635110527868,343.75713370159
738336.42812748055439442396,-0.837020986561683,-1.63711457665741,343.75713370159
738336.42812757100909948349,-1.03396710104678,-1.82175155898719,343.75713370159
738336.42812766146380454302,-0.910875779493596,-1.698660237434,343.769442833745
738336.42812775191850960255,-0.886257515182958,-1.68635110527868,343.818679362367
738336.42812784237321466208,-0.935494043804234,-1.73558763389996,343.806370230211
738336.42812793282791972160,-0.837020986561683,-1.62480544450209,343.843297626677
738336.42812802328262478113,-0.849330118717002,-1.63711457665741,343.794061098056
738336.42812811373732984066,-0.677002268542538,-1.46478672648295,343.720206305124
738336.42812820419203490019,-0.824711854406364,-1.61249631234677,343.720206305124
738336.42812829464673995972,-0.997039704580828,-1.78482416252124,343.720206305124
738336.42812838510144501925,-0.898566647338277,-1.68635110527868,343.720206305124
738336.42812847555615007877,-1.0462762332021,-1.85867895545315,343.769442833745
738336.42812856589443981647,-1.0462762332021,-1.84636982329783,343.818679362367
738336.42812865634914487600,-0.960112308114872,-1.74789676605528,343.794061098056
738336.42812874680384993553,-0.898566647338277,-1.698660237434,343.830988494522
738336.42812883725855499506,-0.76316619362977,-1.5632597837255,343.843297626677
738336.42812892771326005459,-0.898566647338277,-1.698660237434,343.781751965901
738336.42812901816796511412,-0.984730572425509,-1.79713329467655,343.830988494522
738336.42812910862267017365,-0.947803175959553,-1.74789676605528,343.720206305124
738336.42812919907737523317,-0.849330118717002,-1.64942370881273,343.769442833745
738336.42812928953208029270,-0.726238797163813,-1.53864151941486,343.75713370159
738336.42812937998678535223,-0.738547929319132,-1.55095065157018,343.732515437279
738336.42812947044149041176,-0.800093590095726,-1.61249631234677,343.732515437279
738336.42812956089619547129,-0.750857061474451,-1.5632597837255,343.744824569435
738336.42812965135090053082,-0.910875779493596,-1.73558763389996,343.794061098056
738336.42812974180560559034,-0.837020986561683,-1.68635110527868,343.732515437279
738336.42812983226031064987,-0.849330118717002,-1.72327850174464,343.720206305124
738336.42812992271501570940,-1.00934883673615,-1.90791548407442,343.75713370159
738336.42813001316972076893,-0.947803175959553,-1.88329721976379,343.75713370159
738336.42813010362442582846,-0.824711854406364,-1.73558763389996,343.75713370159
738336.42813019407913088799,-0.898566647338277,-1.79713329467655,343.597114983571
738336.42813028453383594751,-0.898566647338277,-1.77251503036592,343.621733247881
738336.42813037498854100704,-0.87394838302764,-1.698660237434,343.794061098056
738336.42813046544324606657,-0.713929665008494,-1.53864151941486,343.806370230211
738336.42813055589795112610,-0.775475325785089,-1.60018718019145,343.695588040813
738336.42813064635265618563,-0.775475325785089,-1.58787804803613,343.781751965901
738336.42813073680736124516,-0.87394838302764,-1.67404197312337,343.769442833745
738336.42813082726206630468,-0.997039704580828,-1.78482416252124,343.806370230211
738336.42813091771677136421,-0.984730572425509,-1.77251503036592,343.818679362367
738336.42813100817147642374,-0.935494043804234,-1.72327850174464,343.830988494522
738336.42813109862618148327,-0.910875779493596,-1.68635110527868,343.744824569435
738336.42813118908088654280,-0.861639250872321,-1.64942370881273,343.781751965901
738336.42813127953559160233,-0.984730572425509,-1.77251503036592,343.818679362367
738336.42813136999029666185,-1.00934883673615,-1.79713329467655,343.744824569435
738336.42813146044500172138,-0.935494043804234,-1.698660237434,343.781751965901
738336.42813155089970678091,-0.775475325785089,-1.40324106570635,343.744824569435
738336.42813164135441184044,-0.640074872076581,-1.25553147984252,343.867915890988
738336.42813173180911689997,-0.455437889746798,-1.84636982329783,343.991007212541
738336.42813182226382195950,-0.147709585863826,-2.25257118442335,344.138716798405
738336.42813191271852701902,-0.11078218939787,-2.31411684519995,344.187953327026
738336.42813200317323207855,-0.553910946989349,-1.98177027700634,344.077171137628
738336.42813209362793713808,-0.849330118717002,-1.85867895545315,343.695588040813
738336.42813218408264219761,-0.750857061474451,-1.74789676605528,343.720206305124
738336.42813227453734725714,-0.837020986561683,-1.73558763389996,343.75713370159
738336.42813236499205231667,-0.910875779493596,-1.77251503036592,343.818679362367
738336.42813245544675737619,-0.910875779493596,-1.73558763389996,343.806370230211
738336.42813254590146243572,-0.775475325785089,-1.60018718019145,343.806370230211
738336.42813263635616749525,-0.713929665008494,-1.52633238725954,343.806370230211
738336.42813272681087255478,-0.738547929319132,-1.55095065157018,343.867915890988
738336.42813281714916229248,-0.923184911648915,-1.74789676605528,343.806370230211
738336.42813290760386735201,-0.898566647338277,-1.71096936958932,343.794061098056
738336.42813299805857241154,-0.886257515182958,-1.698660237434,343.855606758833
738336.42813308851327747107,-0.824711854406364,-1.63711457665741,343.818679362367
738336.42813317896798253059,-0.898566647338277,-1.72327850174464,343.769442833745
738336.42813326942268759012,-0.910875779493596,-1.73558763389996,343.806370230211
738336.42813335987739264965,-0.861639250872321,-1.68635110527868,343.855606758833
738336.42813345033209770918,-0.750857061474451,-1.58787804803613,343.794061098056
738336.42813354078680276871,-0.87394838302764,-1.71096936958932,343.830988494522
738336.42813363124150782824,-0.603147475610625,-1.45247759432763,343.830988494522
738336.42813372169621288776,-0.76316619362977,-1.61249631234677,343.732515437279
738336.42813381215091794729,-0.886257515182958,-1.74789676605528,343.695588040813
738336.42813390260562300682,-0.886257515182958,-1.74789676605528,343.892534155299
738336.42813399306032806635,-0.6523840042319,-1.52633238725954,343.917152419609
738336.42813408351503312588,-0.701620532853175,-1.58787804803613,343.855606758833
738336.42813417396973818541,-0.775475325785089,-1.67404197312337,343.744824569435
738336.42813426442444324493,-0.738547929319132,-1.63711457665741,343.806370230211
738336.42813435487914830446,-0.6523840042319,-1.58787804803613,343.818679362367
738336.42813444533385336399,-0.603147475610625,-1.5632597837255,343.843297626677
738336.42813453578855842352,-0.640074872076581,-1.61249631234677,343.867915890988
738336.42813462624326348305,-0.480056154057436,-1.46478672648295,343.880225023143
738336.42813471669796854258,-0.467747021902117,-1.5017141229489,343.892534155299
738336.42813480715267360210,-0.43081962543616,-1.47709585863826,343.855606758833
738336.42813489760737866163,-0.369273964659566,-1.44016846217231,343.904843287454
738336.42813498806208372116,-0.566220079144668,-1.64942370881273,343.917152419609
738336.42813507851678878069,-0.504674418368074,-1.61249631234677,343.892534155299
738336.42813516897149384022,-0.492365286212755,-1.60018718019145,343.954079816075
738336.42813525942619889975,-0.492365286212755,-1.57556891588082,343.978698080386
738336.42813534988090395927,-0.578529211299987,-1.64942370881273,343.954079816075
738336.42813544033560901880,-0.689311400697857,-1.698660237434,343.830988494522
738336.42813553079031407833,-0.713929665008494,-1.68635110527868,343.855606758833
738336.42813562124501913786,-0.701620532853175,-1.64942370881273,343.880225023143
738336.42813571169972419739,-0.812402722251045,-1.73558763389996,343.744824569435
738336.42813580215442925692,-0.837020986561683,-1.74789676605528,343.769442833745
738336.42813589260913431644,-0.837020986561683,-1.73558763389996,343.830988494522
738336.42813598306383937597,-0.800093590095726,-1.67404197312337,343.830988494522
738336.42813607351854443550,-0.824711854406364,-1.68635110527868,343.707897172969
738336.42813616397324949503,-0.861639250872321,-1.72327850174464,343.769442833745
738336.42813625442795455456,-0.849330118717002,-1.71096936958932,343.720206305124
738336.42813634488265961409,-0.824711854406364,-1.67404197312337,343.781751965901
738336.42813643533736467361,-0.812402722251045,-1.67404197312337,343.843297626677
738336.42813652579206973314,-0.87394838302764,-1.72327850174464,343.781751965901
738336.42813661624677479267,-0.750857061474451,-1.60018718019145,343.720206305124
738336.42813670670147985220,-0.812402722251045,-1.66173284096805,343.794061098056
738336.42813679715618491173,-0.984730572425509,-1.84636982329783,343.830988494522
738336.42813688761088997126,-0.960112308114872,-1.80944242683187,343.744824569435
738336.42813697794917970896,-0.898566647338277,-1.74789676605528,343.794061098056
738336.42813706840388476849,-0.886257515182958,-1.73558763389996,343.843297626677
738336.42813715885858982801,-0.87394838302764,-1.73558763389996,343.830988494522
738336.42813724931329488754,-0.849330118717002,-1.71096936958932,343.609424115726
738336.42813733976799994707,-0.689311400697857,-1.5632597837255,343.535569322794
738336.42813743022270500660,-0.750857061474451,-1.62480544450209,343.646351512192
738336.42813752067741006613,-0.750857061474451,-1.62480544450209,343.670969776503
738336.42813761113211512566,-0.76316619362977,-1.63711457665741,343.683278908658
738336.42813770158682018518,-0.849330118717002,-1.71096936958932,343.683278908658
738336.42813779204152524471,-0.923184911648915,-1.79713329467655,343.695588040813
738336.42813788249623030424,-0.984730572425509,-1.84636982329783,343.695588040813
738336.42813797295093536377,-0.923184911648915,-1.78482416252124,343.781751965901
738336.42813806340564042330,-0.861639250872321,-1.71096936958932,343.781751965901
738336.42813815386034548283,-0.837020986561683,-1.698660237434,343.794061098056
738336.42813824431505054235,-0.800093590095726,-1.67404197312337,343.720206305124
738336.42813833476975560188,-0.750857061474451,-1.62480544450209,343.781751965901
738336.42813842522446066141,-0.76316619362977,-1.62480544450209,343.818679362367
738336.42813851567916572094,-0.812402722251045,-1.67404197312337,343.830988494522
738336.42813860613387078047,-0.886257515182958,-1.74789676605528,343.75713370159
738336.42813869658857584000,-0.861639250872321,-1.72327850174464,343.843297626677
738336.42813878704328089952,-0.824711854406364,-1.66173284096805,343.843297626677
738336.42813887749798595905,-0.824711854406364,-1.66173284096805,343.732515437279
738336.42813896795269101858,-0.800093590095726,-1.64942370881273,343.732515437279
738336.42813905840739607811,-0.861639250872321,-1.698660237434,343.732515437279
738336.42813914886210113764,-0.923184911648915,-1.74789676605528,343.744824569435
738336.42813923931680619717,-0.775475325785089,-1.61249631234677,343.781751965901
738336.42813932977151125669,-0.849330118717002,-1.67404197312337,343.818679362367
738336.42813942022621631622,-0.886257515182958,-1.71096936958932,343.683278908658
738336.42813951068092137575,-0.812402722251045,-1.62480544450209,343.794061098056
738336.42813960113562643528,-0.812402722251045,-1.63711457665741,343.830988494522
738336.42813969159033149481,-0.935494043804234,-1.73558763389996,343.843297626677
738336.42813978204503655434,-0.910875779493596,-1.72327850174464,343.769442833745
738336.42813987249974161386,-0.910875779493596,-1.71096936958932,343.818679362367
738336.42813996295444667339,-0.947803175959553,-1.73558763389996,343.855606758833
738336.42814005340915173292,-0.87394838302764,-1.67404197312337,343.732515437279
738336.42814014386385679245,-0.787784457940408,-1.60018718019145,343.818679362367
738336.42814023431856185198,-0.898566647338277,-1.698660237434,343.867915890988
738336.42814032477326691151,-0.898566647338277,-1.68635110527868,343.843297626677
738336.42814041522797197104,-0.87394838302764,-1.64942370881273,343.781751965901
738336.42814050568267703056,-0.849330118717002,-1.63711457665741,343.830988494522
738336.42814059613738209009,-0.837020986561683,-1.63711457665741,343.843297626677
738336.42814068659208714962,-0.837020986561683,-1.62480544450209,343.732515437279
738336.42814077704679220915,-0.972421440270191,-1.7602058982106,343.769442833745
738336.42814086750149726868,-0.972421440270191,-1.74789676605528,343.720206305124
738336.42814095795620232821,-0.837020986561683,-1.61249631234677,343.794061098056
738336.42814104841090738773,-0.837020986561683,-1.61249631234677,343.806370230211
738336.42814113874919712543,-0.972421440270191,-1.73558763389996,343.855606758833
738336.42814122920390218496,-0.947803175959553,-1.71096936958932,343.830988494522
738336.42814131965860724449,-0.910875779493596,-1.68635110527868,343.744824569435
738336.42814141011331230402,-0.76316619362977,-1.53864151941486,343.843297626677
738336.42814150056801736355,-0.837020986561683,-1.60018718019145,343.867915890988
738336.42814159102272242308,-0.960112308114872,-1.71096936958932,343.75713370159
738336.42814168147742748260,-0.997039704580828,-1.74789676605528,343.818679362367
738336.42814177193213254213,-0.923184911648915,-1.67404197312337,343.732515437279
738336.42814186238683760166,-0.923184911648915,-1.67404197312337,343.720206305124
738336.42814195284154266119,-0.935494043804234,-1.71096936958932,343.732515437279
738336.42814204329624772072,-0.960112308114872,-1.72327850174464,343.732515437279
738336.42814213375095278025,-0.960112308114872,-1.71096936958932,343.732515437279
738336.42814222420565783978,-0.947803175959553,-1.698660237434,343.695588040813
738336.42814231466036289930,-0.923184911648915,-1.68635110527868,343.806370230211
738336.42814240511506795883,-0.898566647338277,-1.64942370881273,343.830988494522
738336.42814249556977301836,-0.849330118717002,-1.60018718019145,343.75713370159
738336.42814258602447807789,-0.76316619362977,-1.51402325510422,343.75713370159
738336.42814267647918313742,-0.775475325785089,-1.53864151941486,343.75713370159
738336.42814276693388819695,-1.00934883673615,-1.74789676605528,343.720206305124
738336.42814285738859325647,-1.00934883673615,-1.74789676605528,343.806370230211
738336.42814294784329831600,-0.935494043804234,-1.67404197312337,343.855606758833
738336.42814303829800337553,-1.02165796889147,-1.74789676605528,343.843297626677
738336.42814312875270843506,-1.00934883673615,-1.73558763389996,343.75713370159
738336.42814321920741349459,-0.984730572425509,-1.71096936958932,343.830988494522
738336.42814330966211855412,-0.960112308114872,-1.68635110527868,343.855606758833
738336.42814340011682361364,-0.910875779493596,-1.63711457665741,343.806370230211
738336.42814349057152867317,-0.923184911648915,-1.67404197312337,343.806370230211
738336.42814358102623373270,-0.923184911648915,-1.67404197312337,343.843297626677
738336.42814367148093879223,-0.800093590095726,-1.57556891588082,343.794061098056
738336.42814376193564385176,-0.76316619362977,-1.57556891588082,343.75713370159
738336.42814385239034891129,-0.87394838302764,-1.698660237434,343.781751965901
738336.42814394284505397081,-0.947803175959553,-1.82175155898719,343.744824569435
738336.42814403329975903034,-0.960112308114872,-1.79713329467655,343.744824569435
738336.42814412375446408987,-0.898566647338277,-1.72327850174464,343.769442833745
738336.42814421420916914940,-0.886257515182958,-1.68635110527868,343.794061098056
738336.42814430466387420893,-0.984730572425509,-1.73558763389996,343.707897172969
738336.42814439511857926846,-0.984730572425509,-1.73558763389996,343.597114983571
738336.42814448557328432798,-0.972421440270191,-1.698660237434,343.781751965901
738336.42814457602798938751,-0.972421440270191,-1.68635110527868,343.732515437279
738336.42814466648269444704,-0.960112308114872,-1.64942370881273,343.75713370159
738336.42814475693739950657,-0.947803175959553,-1.64942370881273,343.806370230211
738336.42814484739210456610,-0.923184911648915,-1.63711457665741,343.806370230211
738336.42814493784680962563,-0.923184911648915,-1.62480544450209,343.818679362367
738336.42814502830151468515,-0.984730572425509,-1.67404197312337,343.867915890988
738336.42814511875621974468,-0.972421440270191,-1.66173284096805,343.904843287454
738336.42814520921092480421,-0.935494043804234,-1.62480544450209,343.892534155299
738336.42814529966562986374,-0.997039704580828,-1.68635110527868,343.830988494522
738336.42814539000391960144,-0.972421440270191,-1.64942370881273,343.867915890988
738336.42814548045862466097,-0.972421440270191,-1.52633238725954,343.892534155299
738336.42814557091332972050,-0.886257515182958,-1.39093193355103,343.917152419609
738336.42814566136803478003,-0.566220079144668,-1.68635110527868,344.089480269784
738336.42814575182273983955,-0.209255246640421,-2.12947986287016,344.175644194871
738336.42814584227744489908,-0.0861639250872321,-2.30180771304463,344.163335062716
738336.42814593273214995861,-0.196946114485102,-2.17871639149144,344.089480269784
738336.42814602318685501814,-0.76316619362977,-1.80944242683187,343.806370230211
738336.42814611364156007767,-0.861639250872321,-1.7602058982106,343.695588040813
738336.42814620409626513720,-0.898566647338277,-1.74789676605528,343.75713370159
738336.42814629455097019672,-0.947803175959553,-1.73558763389996,343.744824569435
738336.42814638500567525625,-0.935494043804234,-1.698660237434,343.732515437279
738336.42814647546038031578,-0.935494043804234,-1.66173284096805,343.781751965901
738336.42814656591508537531,-0.935494043804234,-1.64942370881273,343.830988494522
738336.42814665636979043484,-0.935494043804234,-1.64942370881273,343.806370230211
738336.42814674682449549437,-0.923184911648915,-1.64942370881273,343.830988494522
738336.42814683727920055389,-0.910875779493596,-1.64942370881273,343.830988494522
738336.42814692773390561342,-0.910875779493596,-1.63711457665741,343.843297626677
738336.42814701818861067295,-0.923184911648915,-1.62480544450209,343.744824569435
738336.42814710864331573248,-0.923184911648915,-1.64942370881273,343.843297626677
738336.42814719909802079201,-0.910875779493596,-1.62480544450209,343.904843287454
738336.42814728955272585154,-0.824711854406364,-1.5632597837255,343.880225023143
738336.42814738000743091106,-0.800093590095726,-1.55095065157018,343.794061098056
738336.42814747046213597059,-0.886257515182958,-1.63711457665741,343.880225023143
738336.42814756091684103012,-0.910875779493596,-1.66173284096805,343.904843287454
738336.42814765137154608965,-0.898566647338277,-1.64942370881273,343.806370230211
738336.42814774182625114918,-0.898566647338277,-1.64942370881273,343.867915890988
738336.42814783228095620871,-0.886257515182958,-1.64942370881273,343.892534155299
738336.42814792273566126823,-0.837020986561683,-1.62480544450209,343.75713370159
738336.42814801319036632776,-0.812402722251045,-1.58787804803613,343.769442833745
738336.42814810364507138729,-0.787784457940408,-1.58787804803613,343.917152419609
738336.42814819409977644682,-0.627765739921262,-1.44016846217231,343.867915890988
738336.42814828455448150635,-0.689311400697857,-1.52633238725954,343.917152419609
738336.42814837500918656588,-0.750857061474451,-1.58787804803613,343.892534155299
738336.42814846546389162540,-0.775475325785089,-1.63711457665741,343.978698080386
738336.42814855591859668493,-0.750857061474451,-1.63711457665741,343.96638894823
738336.42814864637330174446,-0.677002268542538,-1.58787804803613,343.94177068392
738336.42814873682800680399,-0.640074872076581,-1.5632597837255,344.027934609007
738336.42814882728271186352,-0.590838343455306,-1.5632597837255,344.101789401939
738336.42814891773741692305,-0.566220079144668,-1.55095065157018,344.040243741162
738336.42814900819212198257,-0.54160181483403,-1.55095065157018,344.015625476852
738336.42814909864682704210,-0.54160181483403,-1.5632597837255,344.040243741162
738336.42814918910153210163,-0.566220079144668,-1.5632597837255,344.027934609007
738336.42814927955623716116,-0.603147475610625,-1.57556891588082,343.96638894823
738336.42814937001094222069,-0.677002268542538,-1.61249631234677,343.978698080386
738336.42814946046564728022,-0.726238797163813,-1.62480544450209,343.94177068392
738336.42814955080393701792,-0.750857061474451,-1.61249631234677,343.917152419609
738336.42814964125864207745,-0.76316619362977,-1.62480544450209,343.855606758833
738336.42814973171334713697,-0.837020986561683,-1.66173284096805,343.880225023143
738336.42814982216805219650,-0.87394838302764,-1.67404197312337,343.855606758833
738336.42814991262275725603,-0.861639250872321,-1.64942370881273,343.830988494522
738336.42815000307746231556,-0.886257515182958,-1.66173284096805,343.855606758833
738336.42815009353216737509,-0.886257515182958,-1.66173284096805,343.843297626677
738336.42815018398687243462,-0.849330118717002,-1.62480544450209,343.794061098056
738336.42815027444157749414,-0.898566647338277,-1.67404197312337,343.830988494522
738336.42815036489628255367,-0.984730572425509,-1.74789676605528,343.843297626677
738336.42815045535098761320,-0.910875779493596,-1.67404197312337,343.781751965901
738336.42815054580569267273,-0.861639250872321,-1.63711457665741,343.830988494522
738336.42815063626039773226,-0.960112308114872,-1.72327850174464,343.818679362367
738336.42815072671510279179,-0.972421440270191,-1.73558763389996,343.794061098056
738336.42815081716980785131,-0.935494043804234,-1.698660237434,343.818679362367
738336.42815090762451291084,-0.898566647338277,-1.67404197312337,343.794061098056
738336.42815099807921797037,-0.861639250872321,-1.62480544450209,343.769442833745
738336.42815108853392302990,-0.898566647338277,-1.67404197312337,343.769442833745
738336.42815117898862808943,-0.910875779493596,-1.698660237434,343.818679362367
738336.42815126944333314896,-0.837020986561683,-1.63711457665741,343.806370230211
738336.42815135989803820848,-0.837020986561683,-1.62480544450209,343.523260190639
738336.42815145035274326801,-0.837020986561683,-1.62480544450209,343.621733247881
738336.42815154080744832754,-0.935494043804234,-1.72327850174464,343.794061098056
738336.42815163126215338707,-0.935494043804234,-1.72327850174464,343.806370230211
738336.42815172171685844660,-0.935494043804234,-1.72327850174464,343.769442833745
738336.42815181217156350613,-0.923184911648915,-1.72327850174464,343.830988494522
738336.42815190262626856565,-0.910875779493596,-1.71096936958932,343.830988494522
738336.42815199308097362518,-0.886257515182958,-1.68635110527868,343.75713370159
738336.42815208353567868471,-0.861639250872321,-1.67404197312337,343.830988494522
738336.42815217399038374424,-0.87394838302764,-1.67404197312337,343.843297626677
738336.42815226444508880377,-0.861639250872321,-1.64942370881273,343.794061098056
738336.42815235489979386330,-0.861639250872321,-1.66173284096805,343.830988494522
738336.42815244535449892282,-0.886257515182958,-1.68635110527868,343.830988494522
738336.42815253580920398235,-0.861639250872321,-1.64942370881273,343.806370230211
738336.42815262626390904188,-0.861639250872321,-1.66173284096805,343.794061098056
738336.42815271671861410141,-0.898566647338277,-1.68635110527868,343.75713370159
738336.42815280717331916094,-0.898566647338277,-1.67404197312337,343.818679362367
738336.42815289762802422047,-0.87394838302764,-1.66173284096805,343.75713370159
738336.42815298808272927999,-0.87394838302764,-1.64942370881273,343.75713370159
738336.42815307853743433952,-0.898566647338277,-1.67404197312337,343.75713370159
738336.42815316899213939905,-0.910875779493596,-1.68635110527868,343.720206305124
738336.42815325944684445858,-0.898566647338277,-1.67404197312337,343.818679362367
738336.42815334990154951811,-0.886257515182958,-1.67404197312337,343.843297626677
738336.42815344035625457764,-0.898566647338277,-1.67404197312337,343.867915890988
738336.42815353081095963717,-0.898566647338277,-1.68635110527868,343.818679362367
738336.42815362126566469669,-0.898566647338277,-1.67404197312337,343.843297626677
738336.42815371172036975622,-0.886257515182958,-1.66173284096805,343.917152419609
738336.42815380205865949392,-0.87394838302764,-1.66173284096805,343.880225023143
738336.42815389251336455345,-0.886257515182958,-1.66173284096805,343.855606758833
738336.42815398296806961298,-0.861639250872321,-1.64942370881273,343.855606758833
738336.42815407342277467251,-0.861639250872321,-1.63711457665741,343.830988494522
738336.42815416387747973204,-0.886257515182958,-1.67404197312337,343.806370230211
738336.42815425433218479156,-0.886257515182958,-1.66173284096805,343.830988494522
738336.42815434478688985109,-0.898566647338277,-1.66173284096805,343.843297626677
738336.42815443524159491062,-0.923184911648915,-1.698660237434,343.732515437279
738336.42815452569629997015,-0.923184911648915,-1.698660237434,343.806370230211
738336.42815461615100502968,-0.910875779493596,-1.698660237434,343.818679362367
738336.42815470660571008921,-0.898566647338277,-1.68635110527868,343.806370230211
738336.42815479706041514874,-0.886257515182958,-1.67404197312337,343.794061098056
738336.42815488751512020826,-0.886257515182958,-1.66173284096805,343.621733247881
738336.42815497796982526779,-0.849330118717002,-1.63711457665741,343.720206305124
738336.42815506842453032732,-0.812402722251045,-1.60018718019145,343.769442833745
738336.42815515887923538685,-0.849330118717002,-1.63711457665741,343.806370230211
738336.42815524933394044638,-0.886257515182958,-1.67404197312337,343.806370230211
738336.42815533978864550591,-0.923184911648915,-1.71096936958932,343.794061098056
738336.42815543024335056543,-0.923184911648915,-1.72327850174464,343.781751965901
738336.42815552069805562496,-0.935494043804234,-1.72327850174464,343.818679362367
738336.42815561115276068449,-0.923184911648915,-1.71096936958932,343.806370230211
738336.42815570160746574402,-0.910875779493596,-1.698660237434,343.75713370159
738336.42815579206217080355,-0.898566647338277,-1.698660237434,343.818679362367
738336.42815588251687586308,-0.898566647338277,-1.67404197312337,343.781751965901
738336.42815597297158092260,-0.87394838302764,-1.68635110527868,343.769442833745
738336.42815606342628598213,-0.837020986561683,-1.64942370881273,343.707897172969
738336.42815615388099104166,-0.849330118717002,-1.698660237434,343.781751965901
738336.42815624433569610119,-0.824711854406364,-1.68635110527868,343.843297626677
738336.42815633479040116072,-0.787784457940408,-1.698660237434,343.781751965901
738336.42815642524510622025,-0.837020986561683,-1.79713329467655,343.707897172969
738336.42815651569981127977,-0.812402722251045,-1.72327850174464,343.75713370159
738336.42815660615451633930,-0.824711854406364,-1.698660237434,343.769442833745
738336.42815669660922139883,-0.861639250872321,-1.698660237434,343.707897172969
738336.42815678706392645836,-0.87394838302764,-1.698660237434,343.75713370159
738336.42815687751863151789,-0.910875779493596,-1.71096936958932,343.769442833745
738336.42815696797333657742,-0.87394838302764,-1.67404197312337,343.806370230211
738336.42815705842804163694,-0.886257515182958,-1.66173284096805,343.670969776503
738336.42815714888274669647,-0.886257515182958,-1.67404197312337,343.75713370159
738336.42815723933745175600,-0.910875779493596,-1.67404197312337,343.818679362367
738336.42815732979215681553,-0.898566647338277,-1.68635110527868,343.818679362367
738336.42815742024686187506,-0.898566647338277,-1.66173284096805,343.769442833745
738336.42815751070156693459,-0.849330118717002,-1.61249631234677,343.818679362367
738336.42815760115627199411,-0.837020986561683,-1.62480544450209,343.818679362367
738336.42815769161097705364,-0.898566647338277,-1.68635110527868,343.806370230211
738336.42815778206568211317,-0.910875779493596,-1.698660237434,343.818679362367
738336.42815787252038717270,-0.923184911648915,-1.71096936958932,343.830988494522
738336.42815796285867691040,-0.923184911648915,-1.61249631234677,343.818679362367
