time_dn,ecg_projection_ll_ra_mV,ecg_projection_la_ra_mV,ecg_projection_vx_rl_mV
738336.46274678595364093781,1.05858536535742,0.923184911648915,342.883185318562
738336.46274687640834599733,0.87394838302764,0.726238797163813,342.870876186407
738336.46274696674663573503,0.849330118717002,0.701620532853175,342.870876186407
738336.46274705720134079456,1.00934883673615,0.861639250872321,342.920112715028
738336.46274714765604585409,1.05858536535742,0.923184911648915,342.883185318562
738336.46274723811075091362,1.13244015828934,1.09551276182338,342.858567054252
738336.46274732844904065132,1.00934883673615,1.05858536535742,343.030894904426
738336.46274741890374571085,1.42785933001699,0.935494043804234,343.117058829513
738336.46274750935845077038,1.93253374838506,0.553910946989349,343.301695811843
738336.46274759969674050808,1.90791548407442,0.209255246640421,343.400168869086
738336.46274769015144556761,1.37862280139571,0.381583096814885,343.338623208309
738336.46274778060615062714,0.923184911648915,0.54160181483403,342.920112715028
738336.46274787106085568666,1.1078218939787,0.726238797163813,342.981658375805
738336.46274796139914542437,1.0462762332021,0.775475325785089,343.006276640116
738336.46274805185385048389,1.05858536535742,0.837020986561683,342.920112715028
738336.46274814230855554342,1.19398581906593,0.997039704580828,342.96934924365
738336.46274823276326060295,1.26784061199784,1.07089449751274,342.957040111494
738336.46274832310155034065,1.18167668691061,1.00934883673615,342.944730979339
738336.46274841355625540018,1.09551276182338,0.910875779493596,342.957040111494
738336.46274850401096045971,0.910875779493596,0.738547929319132,342.957040111494
738336.46274859446566551924,0.87394838302764,0.701620532853175,343.006276640116
738336.46274868480395525694,0.923184911648915,0.750857061474451,342.883185318562
738336.46274877525866031647,1.05858536535742,0.87394838302764,342.981658375805
738336.46274886571336537600,1.18167668691061,1.02165796889147,343.018585772271
738336.46274895605165511370,1.12013102613402,0.947803175959553,343.018585772271
738336.46274904650636017323,1.09551276182338,0.923184911648915,342.858567054252
738336.46274913696106523275,1.25553147984252,1.05858536535742,342.846257922096
738336.46274922741577029228,1.0462762332021,0.861639250872321,343.030894904426
738336.46274931775406002998,0.972421440270191,0.775475325785089,342.920112715028
738336.46274940820876508951,1.15705842259997,0.947803175959553,343.018585772271
738336.46274949866347014904,1.09551276182338,0.898566647338277,343.055513168737
738336.46274958911817520857,1.0462762332021,0.824711854406364,342.932421847184
738336.46274967945646494627,1.08320362966806,0.861639250872321,342.99396750796
738336.46274976991117000580,1.23091321553189,1.00934883673615,343.006276640116
738336.46274986036587506533,1.16936755475529,0.935494043804234,342.981658375805
738336.46274995082058012486,1.21860408337657,0.960112308114872,343.018585772271
738336.46275004115886986256,1.34169540492976,1.07089449751274,343.030894904426
738336.46275013161357492208,1.26784061199784,0.972421440270191,343.018585772271
738336.46275022206827998161,1.13244015828934,0.824711854406364,342.99396750796
738336.46275031252298504114,1.21860408337657,0.898566647338277,343.055513168737
738336.46275040286127477884,1.28014974415316,0.960112308114872,343.055513168737
738336.46275049331597983837,1.37862280139571,0.997039704580828,343.055513168737
738336.46275058377068489790,1.37862280139571,0.972421440270191,343.018585772271
738336.46275067410897463560,1.40324106570635,0.984730572425509,343.117058829513
738336.46275076456367969513,1.60018718019145,1.15705842259997,343.141677093824
738336.46275085501838475466,1.53864151941486,1.05858536535742,343.117058829513
738336.46275094547308981419,1.44016846217231,0.935494043804234,343.129367961669
738336.46275103581137955189,1.37862280139571,0.886257515182958,343.141677093824
738336.46275112626608461142,1.41555019786167,0.910875779493596,343.153986225979
738336.46275121672078967094,1.40324106570635,0.935494043804234,343.055513168737
738336.46275130717549473047,1.29245887630848,0.861639250872321,343.067822300892
738336.46275139751378446817,1.24322234768721,0.861639250872321,343.055513168737
738336.46275148796848952770,1.35400453708508,0.997039704580828,342.957040111494
738336.46275157842319458723,1.25553147984252,0.923184911648915,342.981658375805
738336.46275166887789964676,1.26784061199784,0.947803175959553,342.957040111494
738336.46275175921618938446,1.16936755475529,0.87394838302764,342.932421847184
738336.46275184967089444399,0.997039704580828,0.713929665008494,342.920112715028
738336.46275194012559950352,1.12013102613402,0.837020986561683,342.895494450718
738336.46275203046388924122,1.07089449751274,0.800093590095726,342.907803582873
738336.46275212091859430075,0.972421440270191,0.701620532853175,342.870876186407
738336.46275221137329936028,1.13244015828934,0.87394838302764,342.858567054252
738336.46275230182800441980,1.19398581906593,0.935494043804234,342.846257922096
738336.46275239216629415751,1.03396710104678,0.76316619362977,342.907803582873
738336.46275248262099921703,1.0462762332021,0.775475325785089,342.883185318562
738336.46275257307570427656,1.19398581906593,0.923184911648915,342.870876186407
738336.46275266353040933609,1.21860408337657,0.935494043804234,342.772403129165
738336.46275275386869907379,1.02165796889147,0.750857061474451,342.821639657786
738336.46275284432340413332,1.02165796889147,0.750857061474451,342.883185318562
738336.46275293477810919285,1.08320362966806,0.800093590095726,342.870876186407
738336.46275302523281425238,1.15705842259997,0.87394838302764,342.920112715028
738336.46275311557110399008,1.07089449751274,0.800093590095726,342.833948789941
738336.46275320602580904961,1.0462762332021,0.775475325785089,342.932421847184
738336.46275329648051410913,1.07089449751274,0.800093590095726,342.981658375805
738336.46275338693521916866,1.09551276182338,0.837020986561683,342.96934924365
738336.46275347727350890636,1.36631366924039,1.09551276182338,342.883185318562
738336.46275356772821396589,1.1078218939787,0.824711854406364,342.932421847184
738336.46275365818291902542,0.984730572425509,0.738547929319132,342.944730979339
738336.46275374852120876312,1.1078218939787,0.861639250872321,342.870876186407
738336.46275383897591382265,1.0462762332021,0.775475325785089,342.96934924365
738336.46275392943061888218,0.984730572425509,0.726238797163813,343.018585772271
738336.46275401988532394171,1.0462762332021,0.787784457940408,343.006276640116
738336.46275411022361367941,1.1078218939787,0.849330118717002,342.944730979339
738336.46275420067831873894,1.23091321553189,0.984730572425509,342.944730979339
738336.46275429113302379847,1.13244015828934,0.886257515182958,342.99396750796
738336.46275438158772885799,1.00934883673615,0.76316619362977,342.99396750796
738336.46275447192601859570,1.08320362966806,0.849330118717002,342.920112715028
738336.46275456238072365522,1.00934883673615,0.787784457940408,342.957040111494
738336.46275465283542871475,1.13244015828934,0.923184911648915,342.858567054252
738336.46275474329013377428,1.03396710104678,0.800093590095726,342.80933052563
738336.46275483362842351198,0.898566647338277,0.689311400697857,342.821639657786
738336.46275492408312857151,0.972421440270191,0.76316619362977,342.821639657786
738336.46275501453783363104,1.14474929044465,0.935494043804234,342.846257922096
738336.46275510487612336874,0.947803175959553,0.750857061474451,342.858567054252
738336.46275519533082842827,1.02165796889147,0.824711854406364,342.80933052563
738336.46275528578553348780,1.08320362966806,0.886257515182958,342.858567054252
738336.46275537624023854733,1.03396710104678,0.849330118717002,342.821639657786
738336.46275546657852828503,0.984730572425509,0.800093590095726,342.846257922096
738336.46275555703323334455,1.03396710104678,0.837020986561683,342.907803582873
738336.46275564748793840408,1.0462762332021,0.849330118717002,342.870876186407
738336.46275573794264346361,1.03396710104678,0.837020986561683,342.883185318562
738336.46275582828093320131,1.08320362966806,0.898566647338277,342.920112715028
738336.46275591873563826084,0.886257515182958,0.689311400697857,342.920112715028
738336.46275600919034332037,0.87394838302764,0.689311400697857,342.870876186407
738336.46275609964504837990,0.923184911648915,0.738547929319132,342.858567054252
738336.46275618998333811760,1.13244015828934,0.960112308114872,342.760093997009
738336.46275628043804317713,1.03396710104678,0.861639250872321,342.920112715028
738336.46275637089274823666,0.923184911648915,0.750857061474451,342.932421847184
738336.46275646134745329618,1.09551276182338,0.923184911648915,342.870876186407
738336.46275655168574303389,1.00934883673615,0.824711854406364,342.907803582873
738336.46275664214044809341,0.960112308114872,0.775475325785089,342.907803582873
738336.46275673259515315294,1.09551276182338,0.923184911648915,342.883185318562
738336.46275682293344289064,0.947803175959553,0.775475325785089,342.96934924365
738336.46275691338814795017,0.960112308114872,0.800093590095726,342.957040111494
738336.46275700384285300970,0.935494043804234,0.76316619362977,342.895494450718
738336.46275709429755806923,0.898566647338277,0.726238797163813,342.981658375805
738336.46275718463584780693,1.03396710104678,0.87394838302764,342.920112715028
738336.46275727509055286646,1.05858536535742,0.886257515182958,342.920112715028
738336.46275736554525792599,0.947803175959553,0.775475325785089,342.957040111494
738336.46275745599996298552,1.05858536535742,0.886257515182958,342.981658375805
738336.46275754633825272322,1.03396710104678,0.87394838302764,342.957040111494
738336.46275763679295778275,0.947803175959553,0.775475325785089,342.895494450718
738336.46275772724766284227,1.03396710104678,0.861639250872321,342.96934924365
738336.46275781770236790180,0.997039704580828,0.837020986561683,342.96934924365
738336.46275790804065763950,0.923184911648915,0.750857061474451,342.932421847184
738336.46275799849536269903,0.972421440270191,0.800093590095726,342.932421847184
738336.46275808895006775856,0.984730572425509,0.812402722251045,342.981658375805
738336.46275817928835749626,0.910875779493596,0.750857061474451,342.944730979339
738336.46275826974306255579,0.972421440270191,0.812402722251045,342.846257922096
738336.46275836019776761532,1.03396710104678,0.87394838302764,342.858567054252
738336.46275845065247267485,0.997039704580828,0.824711854406364,342.858567054252
738336.46275854099076241255,1.08320362966806,0.910875779493596,342.797021393475
738336.46275863144546747208,1.07089449751274,0.910875779493596,342.846257922096
738336.46275872190017253160,0.898566647338277,0.738547929319132,342.920112715028
738336.46275881235487759113,1.02165796889147,0.849330118717002,342.895494450718
738336.46275890269316732883,0.984730572425509,0.800093590095726,342.957040111494
738336.46275899314787238836,0.898566647338277,0.738547929319132,342.932421847184
738336.46275908360257744789,0.960112308114872,0.800093590095726,342.883185318562
738336.46275917405728250742,0.947803175959553,0.775475325785089,342.870876186407
738336.46275926439557224512,1.13244015828934,0.960112308114872,342.883185318562
738336.46275935485027730465,0.984730572425509,0.812402722251045,342.883185318562
738336.46275944530498236418,0.861639250872321,0.701620532853175,342.883185318562
738336.46275953575968742371,0.935494043804234,0.76316619362977,342.907803582873
738336.46275962609797716141,1.08320362966806,0.935494043804234,342.883185318562
738336.46275971655268222094,1.0462762332021,0.886257515182958,342.747784864854
738336.46275980700738728046,0.898566647338277,0.738547929319132,342.907803582873
738336.46275989734567701817,0.947803175959553,0.787784457940408,342.920112715028
738336.46275998780038207769,1.07089449751274,0.910875779493596,342.96934924365
738336.46276007825508713722,1.03396710104678,0.861639250872321,342.957040111494
738336.46276016870979219675,0.87394838302764,0.713929665008494,342.981658375805
738336.46276025904808193445,1.03396710104678,0.861639250872321,342.895494450718
738336.46276034950278699398,1.03396710104678,0.87394838302764,342.944730979339
738336.46276043995749205351,1.0462762332021,0.861639250872321,342.944730979339
738336.46276053041219711304,0.935494043804234,0.713929665008494,342.858567054252
738336.46276062075048685074,1.02165796889147,0.800093590095726,342.96934924365
738336.46276071120519191027,1.12013102613402,0.87394838302764,342.883185318562
738336.46276080165989696980,0.997039704580828,0.701620532853175,342.907803582873
738336.46276089211460202932,1.0462762332021,0.775475325785089,342.870876186407
738336.46276098245289176702,1.09551276182338,0.837020986561683,342.895494450718
738336.46276107290759682655,0.972421440270191,0.750857061474451,342.957040111494
738336.46276116336230188608,0.997039704580828,0.824711854406364,342.957040111494
738336.46276125370059162378,1.02165796889147,0.861639250872321,342.883185318562
738336.46276134415529668331,1.00934883673615,0.849330118717002,342.944730979339
738336.46276143461000174284,1.08320362966806,0.923184911648915,342.96934924365
738336.46276152506470680237,0.972421440270191,0.812402722251045,342.932421847184
738336.46276161540299654007,0.849330118717002,0.713929665008494,342.80933052563
738336.46276170585770159960,0.87394838302764,0.738547929319132,342.96934924365
738336.46276179631240665913,1.02165796889147,0.886257515182958,342.981658375805
738336.46276188676711171865,1.02165796889147,0.886257515182958,342.895494450718
738336.46276197710540145636,0.997039704580828,0.849330118717002,342.858567054252
738336.46276206756010651588,1.00934883673615,0.87394838302764,342.858567054252
738336.46276215801481157541,0.947803175959553,0.800093590095726,342.870876186407
738336.46276224846951663494,1.0462762332021,0.923184911648915,342.846257922096
738336.46276233880780637264,0.935494043804234,0.960112308114872,342.895494450718
738336.46276242926251143217,1.09551276182338,1.09551276182338,343.080131433047
738336.46276251971721649170,1.42785933001699,0.640074872076581,343.17860449029
738336.46276261005550622940,1.94484288054038,0.381583096814885,343.36324147262
738336.46276270051021128893,1.85867895545315,0.22156437879574,343.412478001241
738336.46276279096491634846,1.18167668691061,0.43081962543616,343.289386679688
738336.46276288141962140799,0.960112308114872,0.578529211299987,342.907803582873
738336.46276297175791114569,1.15705842259997,0.800093590095726,343.006276640116
738336.46276306221261620522,1.07089449751274,0.800093590095726,343.018585772271
738336.46276315266732126474,1.03396710104678,0.824711854406364,342.772403129165
738336.46276324312202632427,1.09551276182338,0.898566647338277,342.858567054252
738336.46276333346031606197,1.14474929044465,0.972421440270191,342.932421847184
738336.46276342391502112150,1.25553147984252,1.07089449751274,343.006276640116
738336.46276351436972618103,1.03396710104678,0.861639250872321,342.895494450718
738336.46276360482443124056,1.07089449751274,0.910875779493596,342.858567054252
738336.46276369516272097826,0.997039704580828,0.824711854406364,342.870876186407
738336.46276378561742603779,0.947803175959553,0.775475325785089,342.957040111494
738336.46276387607213109732,1.14474929044465,0.972421440270191,342.907803582873
738336.46276396652683615685,1.00934883673615,0.824711854406364,342.920112715028
738336.46276405686512589455,1.05858536535742,0.886257515182958,342.932421847184
738336.46276414731983095407,1.07089449751274,0.898566647338277,342.883185318562
738336.46276423777453601360,1.02165796889147,0.837020986561683,342.981658375805
738336.46276432811282575130,1.20629495122125,1.00934883673615,343.018585772271
738336.46276441856753081083,1.05858536535742,0.861639250872321,342.932421847184
738336.46276450902223587036,1.05858536535742,0.861639250872321,342.96934924365
738336.46276459947694092989,1.14474929044465,0.947803175959553,342.99396750796
738336.46276468981523066759,1.16936755475529,0.972421440270191,342.99396750796
738336.46276478026993572712,1.05858536535742,0.824711854406364,342.920112715028
738336.46276487072464078665,1.00934883673615,0.787784457940408,342.99396750796
738336.46276496117934584618,1.08320362966806,0.849330118717002,343.030894904426
738336.46276505151763558388,1.15705842259997,0.910875779493596,342.944730979339
738336.46276514197234064341,1.14474929044465,0.898566647338277,342.981658375805
738336.46276523242704570293,1.18167668691061,0.923184911648915,343.018585772271
738336.46276532288175076246,1.44016846217231,1.15705842259997,343.067822300892
738336.46276541322004050016,1.42785933001699,1.1078218939787,343.055513168737
738336.46276550367474555969,1.21860408337657,0.886257515182958,343.055513168737
738336.46276559412945061922,1.16936755475529,0.812402722251045,343.104749697358
738336.46276568446774035692,1.3047680084638,0.910875779493596,343.141677093824
738336.46276577492244541645,1.55095065157018,1.14474929044465,343.067822300892
738336.46276586537715047598,1.37862280139571,0.947803175959553,343.080131433047
738336.46276595583185553551,1.40324106570635,0.935494043804234,343.067822300892
738336.46276604617014527321,1.48940499079358,1.00934883673615,343.080131433047
738336.46276613662485033274,1.42785933001699,0.935494043804234,343.030894904426
738336.46276622707955539227,1.47709585863826,0.997039704580828,343.067822300892
738336.46276631753426045179,1.44016846217231,0.997039704580828,343.104749697358
738336.46276640787255018950,1.31707714061912,0.910875779493596,343.104749697358
738336.46276649832725524902,1.20629495122125,0.837020986561683,343.018585772271
738336.46276658878196030855,1.26784061199784,0.947803175959553,343.043204036582
738336.46276667923666536808,1.13244015828934,0.812402722251045,342.797021393475
738336.46276676957495510578,1.1078218939787,0.812402722251045,342.846257922096
738336.46276686002966016531,1.15705842259997,0.886257515182958,342.932421847184
738336.46276695048436522484,1.14474929044465,0.886257515182958,342.957040111494
738336.46276704093907028437,1.29245887630848,1.02165796889147,342.957040111494
738336.46276713127736002207,1.19398581906593,0.947803175959553,342.883185318562
738336.46276722173206508160,1.03396710104678,0.787784457940408,342.920112715028
738336.46276731218677014112,1.05858536535742,0.800093590095726,342.920112715028
738336.46276740252505987883,1.13244015828934,0.861639250872321,342.932421847184
738336.46276749297976493835,0.997039704580828,0.76316619362977,342.846257922096
738336.46276758343446999788,0.947803175959553,0.689311400697857,342.932421847184
738336.46276767388917505741,1.02165796889147,0.775475325785089,342.907803582873
738336.46276776422746479511,1.15705842259997,0.910875779493596,342.870876186407
738336.46276785468216985464,1.1078218939787,0.87394838302764,342.833948789941
738336.46276794513687491417,1.0462762332021,0.800093590095726,342.821639657786
738336.46276803559157997370,1.07089449751274,0.849330118717002,342.870876186407
738336.46276812592986971140,1.02165796889147,0.800093590095726,342.895494450718
738336.46276821638457477093,1.00934883673615,0.775475325785089,342.870876186407
738336.46276830683927983046,1.15705842259997,0.923184911648915,342.858567054252
738336.46276839729398488998,1.00934883673615,0.787784457940408,342.821639657786
738336.46276848763227462769,0.886257515182958,0.664693136387219,342.907803582873
738336.46276857808697968721,0.947803175959553,0.726238797163813,342.920112715028
738336.46276866854168474674,1.08320362966806,0.861639250872321,342.957040111494
738336.46276875887997448444,1.24322234768721,1.00934883673615,342.883185318562
738336.46276884933467954397,1.12013102613402,0.898566647338277,342.895494450718
738336.46276893978938460350,1.00934883673615,0.775475325785089,342.907803582873
738336.46276903024408966303,0.972421440270191,0.76316619362977,342.920112715028
738336.46276912058237940073,0.898566647338277,0.689311400697857,342.846257922096
738336.46276921103708446026,0.960112308114872,0.738547929319132,342.957040111494
738336.46276930149178951979,1.16936755475529,0.960112308114872,342.920112715028
738336.46276939194649457932,1.03396710104678,0.824711854406364,342.833948789941
738336.46276948228478431702,1.03396710104678,0.837020986561683,342.907803582873
738336.46276957273948937654,1.00934883673615,0.812402722251045,342.944730979339
738336.46276966319419443607,1.1078218939787,0.898566647338277,342.920112715028
738336.46276975364889949560,1.0462762332021,0.849330118717002,342.870876186407
738336.46276984398718923330,0.886257515182958,0.689311400697857,342.883185318562
738336.46276993444189429283,0.984730572425509,0.800093590095726,342.944730979339
738336.46277002489659935236,1.07089449751274,0.87394838302764,342.80933052563
738336.46277011535130441189,0.886257515182958,0.701620532853175,342.833948789941
738336.46277020568959414959,0.886257515182958,0.713929665008494,342.686239204077
738336.46277029614429920912,1.02165796889147,0.837020986561683,342.747784864854
738336.46277038659900426865,1.00934883673615,0.824711854406364,342.821639657786
738336.46277047693729400635,1.02165796889147,0.849330118717002,342.907803582873
738336.46277056739199906588,1.03396710104678,0.861639250872321,342.932421847184
738336.46277065784670412540,0.898566647338277,0.738547929319132,342.907803582873
738336.46277074830140918493,0.947803175959553,0.800093590095726,342.895494450718
738336.46277083863969892263,0.972421440270191,0.812402722251045,342.96934924365
738336.46277092909440398216,1.00934883673615,0.849330118717002,342.981658375805
738336.46277101954910904169,0.972421440270191,0.812402722251045,342.944730979339
738336.46277111000381410122,0.984730572425509,0.824711854406364,342.920112715028
738336.46277120034210383892,0.923184911648915,0.76316619362977,342.99396750796
738336.46277129079680889845,1.00934883673615,0.861639250872321,342.96934924365
738336.46277138125151395798,1.02165796889147,0.861639250872321,342.883185318562
738336.46277147170621901751,1.08320362966806,0.947803175959553,342.944730979339
738336.46277156204450875521,0.947803175959553,0.787784457940408,342.99396750796
738336.46277165249921381474,0.886257515182958,0.738547929319132,342.895494450718
738336.46277174295391887426,1.03396710104678,0.886257515182958,342.96934924365
738336.46277183329220861197,0.923184911648915,0.775475325785089,342.981658375805
738336.46277192374691367149,0.886257515182958,0.738547929319132,342.895494450718
738336.46277201420161873102,0.837020986561683,0.677002268542538,342.932421847184
738336.46277210465632379055,0.960112308114872,0.824711854406364,342.96934924365
738336.46277219499461352825,1.08320362966806,0.923184911648915,342.981658375805
738336.46277228544931858778,0.997039704580828,0.849330118717002,342.920112715028
738336.46277237590402364731,0.910875779493596,0.787784457940408,343.006276640116
738336.46277246635872870684,0.984730572425509,0.861639250872321,342.96934924365
738336.46277255669701844454,1.07089449751274,0.935494043804234,342.870876186407
738336.46277264715172350407,1.07089449751274,0.947803175959553,342.932421847184
738336.46277273760642856359,0.910875779493596,0.775475325785089,342.932421847184
738336.46277282806113362312,0.861639250872321,0.713929665008494,342.932421847184
738336.46277291839942336082,0.861639250872321,0.738547929319132,342.833948789941
738336.46277300885412842035,1.05858536535742,0.947803175959553,342.957040111494
738336.46277309930883347988,1.03396710104678,0.923184911648915,342.920112715028
738336.46277318976353853941,0.898566647338277,0.787784457940408,342.932421847184
738336.46277328010182827711,0.87394838302764,0.750857061474451,342.858567054252
738336.46277337055653333664,0.935494043804234,0.824711854406364,342.907803582873
738336.46277346101123839617,0.960112308114872,0.837020986561683,342.870876186407
738336.46277355134952813387,1.00934883673615,0.886257515182958,342.883185318562
738336.46277364180423319340,1.02165796889147,0.898566647338277,342.920112715028
738336.46277373225893825293,1.05858536535742,0.935494043804234,342.760093997009
738336.46277382271364331245,0.935494043804234,0.824711854406364,342.78471226132
738336.46277391305193305016,0.947803175959553,0.837020986561683,342.870876186407
738336.46277400350663810968,0.960112308114872,0.837020986561683,342.944730979339
738336.46277409396134316921,0.861639250872321,0.750857061474451,342.981658375805
738336.46277418441604822874,0.87394838302764,0.76316619362977,342.895494450718
738336.46277427475433796644,0.923184911648915,0.812402722251045,342.920112715028
738336.46277436520904302597,1.02165796889147,0.898566647338277,342.883185318562
738336.46277445566374808550,1.02165796889147,0.898566647338277,342.883185318562
738336.46277454611845314503,1.02165796889147,0.898566647338277,342.870876186407
738336.46277463645674288273,0.947803175959553,0.824711854406364,342.870876186407
738336.46277472691144794226,0.886257515182958,0.787784457940408,342.883185318562
738336.46277481736615300179,0.935494043804234,0.812402722251045,342.944730979339
738336.46277490770444273949,0.984730572425509,0.849330118717002,342.957040111494
738336.46277499815914779902,1.19398581906593,1.08320362966806,342.981658375805
738336.46277508861385285854,1.03396710104678,0.898566647338277,343.018585772271
738336.46277517906855791807,0.775475325785089,0.6523840042319,342.99396750796
738336.46277526940684765577,0.861639250872321,0.726238797163813,342.907803582873
738336.46277535986155271530,0.923184911648915,0.775475325785089,342.957040111494
738336.46277545031625777483,1.02165796889147,0.849330118717002,343.018585772271
738336.46277554077096283436,1.1078218939787,0.923184911648915,342.870876186407
738336.46277563110925257206,1.12013102613402,0.861639250872321,342.920112715028
738336.46277572156395763159,1.02165796889147,0.750857061474451,342.957040111494
738336.46277581201866269112,1.0462762332021,0.812402722251045,342.932421847184
738336.46277590247336775064,0.947803175959553,0.726238797163813,342.907803582873
738336.46277599281165748835,0.923184911648915,0.76316619362977,342.957040111494
738336.46277608326636254787,0.960112308114872,0.812402722251045,342.895494450718
738336.46277617372106760740,0.947803175959553,0.812402722251045,342.932421847184
738336.46277626417577266693,0.898566647338277,0.787784457940408,342.920112715028
738336.46277635451406240463,0.947803175959553,0.824711854406364,342.932421847184
738336.46277644496876746416,0.997039704580828,0.886257515182958,342.895494450718
738336.46277653542347252369,1.00934883673615,0.910875779493596,342.944730979339
738336.46277662576176226139,0.984730572425509,0.886257515182958,342.944730979339
738336.46277671621646732092,0.923184911648915,0.812402722251045,342.858567054252
738336.46277680667117238045,0.824711854406364,0.713929665008494,342.932421847184
738336.46277689712587743998,0.886257515182958,0.787784457940408,342.895494450718
738336.46277698746416717768,0.972421440270191,0.849330118717002,342.932421847184
738336.46277707791887223721,1.14474929044465,1.02165796889147,342.895494450718
738336.46277716837357729673,0.947803175959553,0.87394838302764,342.895494450718
738336.46277725882828235626,0.861639250872321,0.923184911648915,342.821639657786
738336.46277734916657209396,1.09551276182338,1.09551276182338,342.944730979339
738336.46277743962127715349,1.47709585863826,0.627765739921262,343.203222754601
738336.46277753007598221302,1.80944242683187,0.233873510951058,343.350932340465
738336.46277762053068727255,1.73558763389996,0.160018718019145,343.38785973693
738336.46277771086897701025,1.29245887630848,0.664693136387219,343.129367961669
738336.46277780132368206978,1.03396710104678,0.677002268542538,342.907803582873
738336.46277789177838712931,1.0462762332021,0.738547929319132,342.981658375805
738336.46277798211667686701,1.0462762332021,0.824711854406364,342.907803582873
738336.46277807257138192654,1.07089449751274,0.87394838302764,342.797021393475
738336.46277816302608698606,1.05858536535742,0.886257515182958,342.858567054252
738336.46277825348079204559,0.997039704580828,0.812402722251045,342.944730979339
738336.46277834381908178329,0.947803175959553,0.787784457940408,342.96934924365
738336.46277843427378684282,0.960112308114872,0.824711854406364,342.870876186407
738336.46277852472849190235,1.02165796889147,0.87394838302764,342.96934924365
738336.46277861518319696188,1.0462762332021,0.898566647338277,343.018585772271
738336.46277870552148669958,0.935494043804234,0.800093590095726,343.030894904426
738336.46277879597619175911,1.0462762332021,0.898566647338277,342.99396750796
738336.46277888643089681864,1.08320362966806,0.935494043804234,343.018585772271
738336.46277897688560187817,1.05858536535742,0.898566647338277,343.006276640116
738336.46277906722389161587,1.07089449751274,0.910875779493596,342.920112715028
738336.46277915767859667540,0.997039704580828,0.824711854406364,343.006276640116
738336.46277924813330173492,1.09551276182338,0.923184911648915,343.018585772271
738336.46277933858800679445,1.12013102613402,0.947803175959553,342.944730979339
738336.46277942892629653215,1.03396710104678,0.849330118717002,343.043204036582
738336.46277951938100159168,0.997039704580828,0.812402722251045,343.030894904426
738336.46277960983570665121,1.03396710104678,0.849330118717002,343.018585772271
738336.46277970017399638891,1.12013102613402,0.935494043804234,343.006276640116
738336.46277979062870144844,1.20629495122125,0.997039704580828,343.043204036582
738336.46277988108340650797,1.28014974415316,1.07089449751274,343.055513168737
738336.46277997153811156750,1.14474929044465,0.898566647338277,342.99396750796
738336.46278006187640130520,1.09551276182338,0.837020986561683,343.043204036582
738336.46278015233110636473,1.09551276182338,0.861639250872321,343.104749697358
738336.46278024278581142426,1.3047680084638,1.02165796889147,343.080131433047
738336.46278033324051648378,1.23091321553189,0.935494043804234,343.067822300892
738336.46278042357880622149,1.41555019786167,1.09551276182338,343.153986225979
738336.46278051403351128101,1.37862280139571,1.02165796889147,343.166295358135
738336.46278060448821634054,1.24322234768721,0.87394838302764,343.018585772271
738336.46278069494292140007,1.29245887630848,0.898566647338277,343.153986225979
738336.46278078528121113777,1.3047680084638,0.886257515182958,343.104749697358
738336.46278087573591619730,1.40324106570635,0.947803175959553,343.067822300892
738336.46278096619062125683,1.42785933001699,0.960112308114872,343.153986225979
738336.46278105652891099453,1.40324106570635,0.923184911648915,343.203222754601
738336.46278114698361605406,1.44016846217231,0.984730572425509,343.166295358135
738336.46278123743832111359,1.45247759432763,1.02165796889147,343.055513168737
738336.46278132789302617311,1.35400453708508,0.972421440270191,343.117058829513
738336.46278141823131591082,1.21860408337657,0.87394838302764,343.055513168737
738336.46278150868602097034,1.13244015828934,0.812402722251045,342.957040111494
738336.46278159914072602987,1.08320362966806,0.800093590095726,343.006276640116
738336.46278168959543108940,1.24322234768721,0.972421440270191,342.957040111494
738336.46278177993372082710,1.05858536535742,0.800093590095726,342.895494450718
738336.46278187038842588663,0.960112308114872,0.726238797163813,342.858567054252
738336.46278196084313094616,0.984730572425509,0.738547929319132,342.870876186407
738336.46278205129783600569,1.08320362966806,0.837020986561683,342.907803582873
738336.46278214163612574339,1.20629495122125,0.972421440270191,342.858567054252
738336.46278223209083080292,1.0462762332021,0.800093590095726,342.846257922096
738336.46278232254553586245,0.972421440270191,0.750857061474451,342.821639657786
738336.46278241300024092197,0.997039704580828,0.76316619362977,342.80933052563
738336.46278250333853065968,1.03396710104678,0.812402722251045,342.846257922096
738336.46278259379323571920,1.0462762332021,0.800093590095726,342.895494450718
738336.46278268424794077873,1.0462762332021,0.812402722251045,342.907803582873
738336.46278277458623051643,1.08320362966806,0.837020986561683,342.932421847184
738336.46278286504093557596,1.14474929044465,0.898566647338277,342.920112715028
738336.46278295549564063549,1.19398581906593,0.947803175959553,342.858567054252
738336.46278304595034569502,1.08320362966806,0.837020986561683,342.957040111494
738336.46278313628863543272,1.00934883673615,0.76316619362977,342.96934924365
738336.46278322674334049225,0.997039704580828,0.750857061474451,342.907803582873
738336.46278331719804555178,0.984730572425509,0.750857061474451,342.96934924365
738336.46278340765275061131,1.02165796889147,0.787784457940408,342.99396750796
738336.46278349799104034901,1.0462762332021,0.800093590095726,342.944730979339
738336.46278358844574540854,1.05858536535742,0.824711854406364,342.932421847184
738336.46278367890045046806,1.16936755475529,0.947803175959553,342.99396750796
738336.46278376935515552759,1.20629495122125,0.984730572425509,342.957040111494
738336.46278385969344526529,1.08320362966806,0.849330118717002,342.907803582873
738336.46278395014815032482,0.984730572425509,0.750857061474451,342.944730979339
738336.46278404060285538435,1.0462762332021,0.824711854406364,342.99396750796
738336.46278413094114512205,1.09551276182338,0.861639250872321,342.99396750796
738336.46278422139585018158,1.03396710104678,0.812402722251045,342.920112715028
738336.46278431185055524111,1.08320362966806,0.87394838302764,342.895494450718
738336.46278440230526030064,1.08320362966806,0.87394838302764,342.846257922096
738336.46278449264355003834,0.997039704580828,0.775475325785089,342.883185318562
738336.46278458309825509787,0.997039704580828,0.787784457940408,342.957040111494
738336.46278467355296015739,1.05858536535742,0.861639250872321,343.006276640116
738336.46278476400766521692,1.00934883673615,0.824711854406364,342.920112715028
738336.46278485434595495462,0.923184911648915,0.738547929319132,342.920112715028
738336.46278494480066001415,0.972421440270191,0.787784457940408,342.883185318562
738336.46278503525536507368,0.984730572425509,0.800093590095726,342.895494450718
738336.46278512571007013321,1.07089449751274,0.898566647338277,342.870876186407
738336.46278521604835987091,1.07089449751274,0.87394838302764,342.932421847184
738336.46278530650306493044,1.18167668691061,0.984730572425509,342.957040111494
738336.46278539695776998997,1.05858536535742,0.886257515182958,342.981658375805
738336.46278548741247504950,0.984730572425509,0.812402722251045,342.883185318562
738336.46278557775076478720,0.923184911648915,0.750857061474451,342.944730979339
738336.46278566820546984673,0.960112308114872,0.787784457940408,343.006276640116
738336.46278575866017490625,0.923184911648915,0.76316619362977,342.932421847184
738336.46278584899846464396,0.898566647338277,0.750857061474451,342.907803582873
738336.46278593945316970348,0.923184911648915,0.750857061474451,342.833948789941
738336.46278602990787476301,0.997039704580828,0.824711854406364,342.957040111494
738336.46278612036257982254,0.997039704580828,0.837020986561683,342.895494450718
738336.46278621070086956024,0.984730572425509,0.849330118717002,342.957040111494
738336.46278630115557461977,0.960112308114872,0.812402722251045,342.895494450718
738336.46278639161027967930,0.947803175959553,0.800093590095726,342.895494450718
738336.46278648206498473883,1.13244015828934,1.00934883673615,342.883185318562
738336.46278657240327447653,1.08320362966806,0.935494043804234,342.907803582873
738336.46278666285797953606,0.960112308114872,0.800093590095726,342.895494450718
738336.46278675331268459558,1.13244015828934,0.997039704580828,342.920112715028
738336.46278684376738965511,1.0462762332021,0.898566647338277,342.920112715028
738336.46278693410567939281,0.898566647338277,0.750857061474451,342.932421847184
738336.46278702456038445234,0.849330118717002,0.701620532853175,342.981658375805
738336.46278711501508951187,0.849330118717002,0.726238797163813,342.944730979339
738336.46278720535337924957,0.910875779493596,0.76316619362977,342.920112715028
738336.46278729580808430910,0.947803175959553,0.800093590095726,342.895494450718
738336.46278738626278936863,0.960112308114872,0.812402722251045,342.895494450718
738336.46278747671749442816,0.960112308114872,0.824711854406364,342.895494450718
738336.46278756705578416586,0.972421440270191,0.837020986561683,342.883185318562
738336.46278765751048922539,0.984730572425509,0.849330118717002,342.883185318562
738336.46278774796519428492,0.997039704580828,0.849330118717002,342.96934924365
738336.46278783841989934444,0.972421440270191,0.849330118717002,342.920112715028
738336.46278792875818908215,0.984730572425509,0.849330118717002,342.80933052563
738336.46278801921289414167,1.0462762332021,0.898566647338277,342.99396750796
738336.46278810966759920120,1.0462762332021,0.910875779493596,343.018585772271
738336.46278820012230426073,1.00934883673615,0.861639250872321,342.895494450718
738336.46278829046059399843,0.960112308114872,0.800093590095726,342.883185318562
738336.46278838091529905796,0.997039704580828,0.87394838302764,342.981658375805
738336.46278847137000411749,1.00934883673615,0.886257515182958,342.981658375805
738336.46278856182470917702,0.997039704580828,0.849330118717002,342.932421847184
738336.46278865216299891472,0.997039704580828,0.849330118717002,342.96934924365
738336.46278874261770397425,0.923184911648915,0.812402722251045,342.981658375805
738336.46278883307240903378,1.00934883673615,0.886257515182958,342.944730979339
738336.46278892341069877148,1.00934883673615,0.861639250872321,342.957040111494
738336.46278901386540383101,0.984730572425509,0.849330118717002,342.932421847184
738336.46278910432010889053,1.08320362966806,0.935494043804234,343.006276640116
738336.46278919477481395006,0.960112308114872,0.812402722251045,342.99396750796
738336.46278928511310368776,0.87394838302764,0.750857061474451,342.96934924365
738336.46278937556780874729,0.886257515182958,0.775475325785089,343.006276640116
738336.46278946602251380682,0.972421440270191,0.837020986561683,342.981658375805
738336.46278955647721886635,1.0462762332021,0.923184911648915,342.920112715028
738336.46278964681550860405,0.923184911648915,0.787784457940408,342.981658375805
738336.46278973727021366358,0.910875779493596,0.76316619362977,342.895494450718
738336.46278982772491872311,1.05858536535742,0.923184911648915,342.932421847184
738336.46278991817962378263,1.18167668691061,1.0462762332021,342.932421847184
738336.46279000851791352034,1.02165796889147,0.886257515182958,342.895494450718
738336.46279009897261857986,0.87394838302764,0.726238797163813,342.944730979339
738336.46279018942732363939,0.935494043804234,0.800093590095726,342.99396750796
738336.46279027976561337709,1.08320362966806,0.960112308114872,343.006276640116
738336.46279037022031843662,1.08320362966806,0.960112308114872,343.030894904426
738336.46279046067502349615,0.87394838302764,0.726238797163813,342.944730979339
738336.46279055112972855568,0.910875779493596,0.76316619362977,342.96934924365
738336.46279064146801829338,0.898566647338277,0.775475325785089,343.018585772271
738336.46279073192272335291,0.886257515182958,0.750857061474451,342.920112715028
738336.46279082237742841244,0.935494043804234,0.76316619362977,342.99396750796
738336.46279091283213347197,1.00934883673615,0.824711854406364,342.981658375805
738336.46279100317042320967,1.1078218939787,0.910875779493596,342.907803582873
738336.46279109362512826920,1.08320362966806,0.87394838302764,342.932421847184
738336.46279118407983332872,1.12013102613402,0.861639250872321,342.858567054252
738336.46279127453453838825,1.1078218939787,0.824711854406364,342.920112715028
738336.46279136487282812595,0.984730572425509,0.738547929319132,342.957040111494
738336.46279145532753318548,0.935494043804234,0.713929665008494,342.846257922096
738336.46279154578223824501,0.947803175959553,0.750857061474451,342.907803582873
738336.46279163612052798271,0.984730572425509,0.812402722251045,342.981658375805
738336.46279172657523304224,0.935494043804234,0.787784457940408,342.99396750796
738336.46279181702993810177,1.0462762332021,0.923184911648915,342.981658375805
738336.46279190748464316130,1.00934883673615,0.87394838302764,342.932421847184
738336.46279199782293289900,0.898566647338277,0.787784457940408,342.99396750796
738336.46279208827763795853,0.935494043804234,0.824711854406364,343.018585772271
738336.46279217873234301805,1.08320362966806,0.972421440270191,342.920112715028
738336.46279226918704807758,1.02165796889147,0.910875779493596,342.981658375805
738336.46279235952533781528,0.923184911648915,0.800093590095726,343.030894904426
738336.46279244998004287481,0.984730572425509,0.861639250872321,342.920112715028
738336.46279254043474793434,0.960112308114872,0.812402722251045,343.030894904426
738336.46279263088945299387,0.935494043804234,0.824711854406364,343.006276640116
738336.46279272122774273157,1.03396710104678,0.997039704580828,342.932421847184
738336.46279281168244779110,1.0462762332021,1.13244015828934,342.944730979339
738336.46279290213715285063,1.23091321553189,0.824711854406364,343.129367961669
738336.46279299259185791016,1.698660237434,0.406201361125523,343.190913622445
738336.46279308293014764786,1.88329721976379,0.307728303882972,343.289386679688
738336.46279317338485270739,1.79713329467655,0.258491775261696,343.326314076154
738336.46279326383955776691,1.3047680084638,0.640074872076581,343.203222754601
738336.46279335417784750462,1.05858536535742,0.689311400697857,342.981658375805
738336.46279344463255256414,1.18167668691061,0.861639250872321,343.043204036582
738336.46279353508725762367,1.03396710104678,0.812402722251045,342.957040111494
738336.46279362554196268320,0.935494043804234,0.738547929319132,342.99396750796
738336.46279371588025242090,0.947803175959553,0.775475325785089,342.99396750796
738336.46279380633495748043,1.0462762332021,0.886257515182958,342.944730979339
738336.46279389678966253996,1.05858536535742,0.910875779493596,342.96934924365
738336.46279398724436759949,0.997039704580828,0.837020986561683,342.981658375805
738336.46279407758265733719,1.03396710104678,0.87394838302764,342.981658375805
738336.46279416803736239672,1.12013102613402,0.972421440270191,342.957040111494
738336.46279425849206745625,1.05858536535742,0.910875779493596,342.981658375805
738336.46279434894677251577,1.03396710104678,0.87394838302764,342.99396750796
738336.46279443928506225348,1.0462762332021,0.886257515182958,342.920112715028
738336.46279452973976731300,1.05858536535742,0.898566647338277,342.96934924365
738336.46279462019447237253,1.07089449751274,0.910875779493596,342.932421847184
738336.46279471053276211023,1.00934883673615,0.849330118717002,343.006276640116
738336.46279480098746716976,1.05858536535742,0.886257515182958,343.018585772271
738336.46279489144217222929,1.08320362966806,0.898566647338277,342.981658375805
738336.46279498189687728882,1.05858536535742,0.87394838302764,342.78471226132
738336.46279507223516702652,1.07089449751274,0.87394838302764,343.006276640116
738336.46279516268987208605,1.14474929044465,0.947803175959553,343.018585772271
738336.46279525314457714558,1.0462762332021,0.849330118717002,342.957040111494
738336.46279534359928220510,1.05858536535742,0.849330118717002,343.043204036582
738336.46279543393757194281,1.15705842259997,0.947803175959553,343.030894904426
738336.46279552439227700233,1.26784061199784,1.02165796889147,343.055513168737
738336.46279561484698206186,1.24322234768721,0.984730572425509,343.006276640116
738336.46279570530168712139,1.14474929044465,0.861639250872321,343.067822300892
738336.46279579563997685909,1.24322234768721,0.947803175959553,343.092440565203
738336.46279588609468191862,1.23091321553189,0.923184911648915,343.080131433047
738336.46279597654938697815,1.24322234768721,0.898566647338277,343.117058829513
738336.46279606700409203768,1.37862280139571,1.02165796889147,343.141677093824
738336.46279615734238177538,1.48940499079358,1.08320362966806,343.141677093824
738336.46279624779708683491,1.45247759432763,1.03396710104678,343.092440565203
738336.46279633825179189444,1.34169540492976,0.898566647338277,343.17860449029
738336.46279642859008163214,1.41555019786167,0.923184911648915,343.203222754601
738336.46279651904478669167,1.36631366924039,0.861639250872321,343.141677093824
738336.46279660949949175119,1.34169540492976,0.861639250872321,343.17860449029
738336.46279669995419681072,1.36631366924039,0.910875779493596,343.17860449029
738336.46279679029248654842,1.41555019786167,0.972421440270191,343.129367961669
738336.46279688074719160795,1.42785933001699,1.03396710104678,343.080131433047
738336.46279697120189666748,1.44016846217231,1.05858536535742,343.067822300892
738336.46279706165660172701,1.18167668691061,0.837020986561683,343.043204036582
738336.46279715199489146471,0.997039704580828,0.677002268542538,343.018585772271
738336.46279724244959652424,0.997039704580828,0.713929665008494,342.96934924365
738336.46279733290430158377,0.997039704580828,0.738547929319132,343.006276640116
738336.46279742335900664330,1.07089449751274,0.812402722251045,342.99396750796
738336.46279751369729638100,1.19398581906593,0.947803175959553,342.907803582873
738336.46279760415200144053,1.26784061199784,1.00934883673615,342.981658375805
738336.46279769460670650005,1.19398581906593,0.923184911648915,342.944730979339
738336.46279778494499623775,0.87394838302764,0.615456607765943,342.907803582873
738336.46279787539970129728,0.923184911648915,0.677002268542538,342.957040111494
738336.46279796585440635681,0.984730572425509,0.738547929319132,342.932421847184
738336.46279805630911141634,1.03396710104678,0.787784457940408,342.944730979339
738336.46279814664740115404,1.03396710104678,0.800093590095726,342.96934924365
738336.46279823710210621357,1.13244015828934,0.886257515182958,342.895494450718
738336.46279832755681127310,1.18167668691061,0.923184911648915,342.920112715028
738336.46279841801151633263,0.972421440270191,0.726238797163813,342.747784864854
738336.46279850834980607033,1.16936755475529,0.923184911648915,342.833948789941
738336.46279859880451112986,1.16936755475529,0.935494043804234,342.883185318562
738336.46279868925921618938,1.07089449751274,0.824711854406364,342.883185318562
738336.46279877971392124891,0.960112308114872,0.713929665008494,342.870876186407
738336.46279887005221098661,0.923184911648915,0.701620532853175,342.870876186407
738336.46279896050691604614,1.02165796889147,0.787784457940408,342.883185318562
738336.46279905096162110567,1.1078218939787,0.886257515182958,342.883185318562
738336.46279914141632616520,1.07089449751274,0.837020986561683,342.907803582873
738336.46279923175461590290,1.09551276182338,0.861639250872321,342.920112715028
738336.46279932220932096243,1.16936755475529,0.935494043804234,342.944730979339
738336.46279941266402602196,1.08320362966806,0.849330118717002,342.870876186407
738336.46279950300231575966,0.947803175959553,0.713929665008494,342.907803582873
738336.46279959345702081919,1.00934883673615,0.800093590095726,342.932421847184
738336.46279968391172587872,1.03396710104678,0.812402722251045,342.907803582873
738336.46279977436643093824,1.1078218939787,0.886257515182958,342.957040111494
738336.46279986470472067595,1.05858536535742,0.837020986561683,342.96934924365
738336.46279995515942573547,0.960112308114872,0.750857061474451,342.96934924365
738336.46280004561413079500,0.984730572425509,0.775475325785089,342.99396750796
738336.46280013606883585453,1.03396710104678,0.837020986561683,342.99396750796
738336.46280022640712559223,1.08320362966806,0.87394838302764,342.957040111494
738336.46280031686183065176,0.984730572425509,0.775475325785089,343.018585772271
738336.46280040731653571129,1.02165796889147,0.824711854406364,343.030894904426
738336.46280049777124077082,1.0462762332021,0.861639250872321,343.018585772271
738336.46280058810953050852,0.960112308114872,0.76316619362977,342.96934924365
738336.46280067856423556805,0.960112308114872,0.76316619362977,342.99396750796
738336.46280076901894062757,1.07089449751274,0.87394838302764,342.99396750796
738336.46280085935723036528,1.02165796889147,0.849330118717002,342.883185318562
738336.46280094981193542480,1.05858536535742,0.898566647338277,342.99396750796
738336.46280104026664048433,0.972421440270191,0.787784457940408,343.043204036582
738336.46280113072134554386,1.08320362966806,0.910875779493596,342.99396750796
738336.46280122105963528156,0.972421440270191,0.787784457940408,342.932421847184
738336.46280131151434034109,0.910875779493596,0.738547929319132,342.981658375805
738336.46280140196904540062,0.910875779493596,0.738547929319132,342.944730979339
738336.46280149242375046015,0.923184911648915,0.750857061474451,342.907803582873
738336.46280158276204019785,1.00934883673615,0.849330118717002,342.920112715028
738336.46280167321674525738,1.07089449751274,0.898566647338277,342.981658375805
738336.46280176367145031691,0.972421440270191,0.812402722251045,342.99396750796
738336.46280185412615537643,0.923184911648915,0.775475325785089,342.883185318562
738336.46280194446444511414,0.997039704580828,0.849330118717002,342.78471226132
738336.46280203491915017366,0.984730572425509,0.824711854406364,342.883185318562
738336.46280212537385523319,0.935494043804234,0.787784457940408,342.920112715028
738336.46280221582856029272,1.00934883673615,0.87394838302764,342.932421847184
738336.46280230616685003042,1.12013102613402,0.972421440270191,342.907803582873
738336.46280239662155508995,0.972421440270191,0.824711854406364,342.895494450718
738336.46280248707626014948,0.861639250872321,0.726238797163813,342.858567054252
738336.46280257741454988718,0.910875779493596,0.76316619362977,342.895494450718
738336.46280266786925494671,1.00934883673615,0.886257515182958,342.895494450718
738336.46280275832396000624,0.960112308114872,0.837020986561683,342.846257922096
738336.46280284877866506577,0.972421440270191,0.837020986561683,342.883185318562
738336.46280293911695480347,1.00934883673615,0.886257515182958,342.907803582873
738336.46280302957165986300,0.972421440270191,0.849330118717002,342.895494450718
738336.46280312002636492252,0.910875779493596,0.787784457940408,342.895494450718
738336.46280321048106998205,0.935494043804234,0.800093590095726,342.981658375805
738336.46280330081935971975,1.0462762332021,0.923184911648915,342.944730979339
738336.46280339127406477928,1.00934883673615,0.886257515182958,342.883185318562
738336.46280348172876983881,0.935494043804234,0.800093590095726,342.846257922096
738336.46280357218347489834,0.972421440270191,0.849330118717002,342.96934924365
738336.46280366252176463604,0.972421440270191,0.849330118717002,342.932421847184
738336.46280375297646969557,0.898566647338277,0.775475325785089,342.932421847184
738336.46280384343117475510,0.861639250872321,0.750857061474451,342.96934924365
738336.46280393376946449280,0.935494043804234,0.812402722251045,342.96934924365
738336.46280402422416955233,0.972421440270191,0.849330118717002,342.920112715028
738336.46280411467887461185,1.0462762332021,0.935494043804234,342.944730979339
738336.46280420513357967138,1.09551276182338,0.972421440270191,342.932421847184
738336.46280429547186940908,0.947803175959553,0.812402722251045,342.96934924365
738336.46280438592657446861,1.00934883673615,0.886257515182958,342.99396750796
738336.46280447638127952814,0.935494043804234,0.800093590095726,342.944730979339
738336.46280456683598458767,0.87394838302764,0.750857061474451,342.981658375805
738336.46280465717427432537,0.960112308114872,0.824711854406364,343.018585772271
738336.46280474762897938490,0.910875779493596,0.787784457940408,342.96934924365
738336.46280483808368444443,0.861639250872321,0.750857061474451,342.96934924365
738336.46280492853838950396,0.898566647338277,0.775475325785089,342.981658375805
738336.46280501887667924166,0.997039704580828,0.861639250872321,342.981658375805
738336.46280510933138430119,1.08320362966806,0.960112308114872,343.006276640116
738336.46280519978608936071,1.02165796889147,0.886257515182958,342.96934924365
738336.46280529024079442024,0.947803175959553,0.800093590095726,342.981658375805
738336.46280538057908415794,0.923184911648915,0.787784457940408,342.96934924365
738336.46280547103378921747,0.87394838302764,0.750857061474451,342.747784864854
738336.46280556148849427700,0.923184911648915,0.787784457940408,342.870876186407
738336.46280565182678401470,0.947803175959553,0.812402722251045,343.006276640116
738336.46280574228148907423,0.947803175959553,0.824711854406364,342.944730979339
738336.46280583273619413376,1.02165796889147,0.886257515182958,342.957040111494
738336.46280592319089919329,1.00934883673615,0.886257515182958,342.981658375805
738336.46280601352918893099,0.972421440270191,0.837020986561683,342.99396750796
738336.46280610398389399052,0.935494043804234,0.775475325785089,342.883185318562
738336.46280619443859905005,0.984730572425509,0.787784457940408,342.957040111494
738336.46280628489330410957,1.03396710104678,0.849330118717002,342.981658375805
738336.46280637523159384727,1.09551276182338,0.87394838302764,342.907803582873
738336.46280646568629890680,1.16936755475529,0.898566647338277,342.870876186407
738336.46280655614100396633,1.0462762332021,0.800093590095726,342.957040111494
738336.46280664659570902586,1.03396710104678,0.812402722251045,342.99396750796
738336.46280673693399876356,1.00934883673615,0.824711854406364,342.96934924365
738336.46280682738870382309,0.997039704580828,0.837020986561683,342.957040111494
738336.46280691784340888262,0.910875779493596,0.76316619362977,343.018585772271
738336.46280700818169862032,0.935494043804234,0.800093590095726,342.99396750796
738336.46280709863640367985,0.947803175959553,0.824711854406364,342.932421847184
738336.46280718909110873938,1.05858536535742,0.947803175959553,342.99396750796
738336.46280727954581379890,1.0462762332021,0.935494043804234,343.018585772271
738336.46280736988410353661,0.960112308114872,0.837020986561683,342.870876186407
738336.46280746033880859613,0.960112308114872,0.837020986561683,342.895494450718
738336.46280755079351365566,0.935494043804234,0.812402722251045,342.895494450718
738336.46280764124821871519,0.960112308114872,0.861639250872321,342.870876186407
738336.46280773158650845289,0.960112308114872,0.837020986561683,342.895494450718
738336.46280782204121351242,0.923184911648915,0.800093590095726,342.895494450718
738336.46280791249591857195,0.923184911648915,0.824711854406364,342.870876186407
738336.46280800295062363148,0.947803175959553,0.984730572425509,342.883185318562
738336.46280809328891336918,1.13244015828934,1.16936755475529,342.981658375805
738336.46280818374361842871,1.52633238725954,0.726238797163813,343.17860449029
738336.46280827419832348824,1.88329721976379,0.320037436038291,343.338623208309
738336.46280836465302854776,1.698660237434,0.11078218939787,343.486332794173
738336.46280845499131828547,1.14474929044465,0.418510493280842,343.203222754601
738336.46280854544602334499,0.923184911648915,0.566220079144668,342.932421847184
738336.46280863590072840452,1.12013102613402,0.812402722251045,343.030894904426
738336.46280872623901814222,1.08320362966806,0.849330118717002,343.006276640116
738336.46280881669372320175,1.00934883673615,0.812402722251045,342.99396750796
738336.46280890714842826128,1.1078218939787,0.947803175959553,343.055513168737
738336.46280899760313332081,1.07089449751274,0.910875779493596,342.821639657786
738336.46280908794142305851,0.947803175959553,0.800093590095726,342.797021393475
738336.46280917839612811804,1.12013102613402,0.972421440270191,342.981658375805
738336.46280926885083317757,1.05858536535742,0.910875779493596,342.957040111494
738336.46280935930553823709,1.02165796889147,0.87394838302764,342.895494450718
738336.46280944964382797480,1.0462762332021,0.910875779493596,342.981658375805
738336.46280954009853303432,0.984730572425509,0.837020986561683,342.981658375805
738336.46280963055323809385,1.02165796889147,0.87394838302764,342.920112715028
738336.46280972100794315338,1.15705842259997,1.00934883673615,342.920112715028
738336.46280981134623289108,1.02165796889147,0.849330118717002,342.96934924365
738336.46280990180093795061,0.997039704580828,0.824711854406364,342.981658375805
738336.46280999225564301014,1.18167668691061,1.00934883673615,342.920112715028
738336.46281008259393274784,0.947803175959553,0.775475325785089,342.96934924365
738336.46281017304863780737,0.972421440270191,0.800093590095726,342.99396750796
738336.46281026350334286690,1.03396710104678,0.849330118717002,342.944730979339
738336.46281035395804792643,1.16936755475529,0.984730572425509,342.99396750796
738336.46281044429633766413,1.25553147984252,1.05858536535742,342.99396750796
738336.46281053475104272366,1.09551276182338,0.898566647338277,343.006276640116
738336.46281062520574778318,1.08320362966806,0.861639250872321,342.99396750796
738336.46281071566045284271,1.12013102613402,0.886257515182958,343.018585772271
738336.46281080599874258041,1.15705842259997,0.923184911648915,343.006276640116
738336.46281089645344763994,1.19398581906593,0.935494043804234,343.067822300892
738336.46281098690815269947,1.21860408337657,0.947803175959553,343.030894904426
738336.46281107736285775900,1.25553147984252,0.935494043804234,343.043204036582
738336.46281116770114749670,1.31707714061912,1.00934883673615,343.067822300892
738336.46281125815585255623,1.3047680084638,0.947803175959553,343.080131433047
738336.46281134861055761576,1.37862280139571,1.00934883673615,343.055513168737
738336.46281143906526267529,1.47709585863826,1.08320362966806,343.104749697358
738336.46281152940355241299,1.40324106570635,0.960112308114872,343.092440565203
738336.46281161985825747252,1.37862280139571,0.935494043804234,343.129367961669
738336.46281171031296253204,1.35400453708508,0.886257515182958,343.141677093824
738336.46281180065125226974,1.37862280139571,0.923184911648915,343.141677093824
738336.46281189110595732927,1.45247759432763,1.00934883673615,343.080131433047
738336.46281198156066238880,1.41555019786167,0.997039704580828,343.055513168737
738336.46281207201536744833,1.23091321553189,0.849330118717002,343.055513168737
738336.46281216235365718603,1.20629495122125,0.861639250872321,343.030894904426
738336.46281225280836224556,1.28014974415316,0.972421440270191,343.030894904426
738336.46281234326306730509,1.08320362966806,0.800093590095726,343.018585772271
738336.46281243371777236462,1.03396710104678,0.787784457940408,342.99396750796
738336.46281252405606210232,1.08320362966806,0.849330118717002,342.80933052563
738336.46281261451076716185,1.03396710104678,0.812402722251045,342.858567054252
738336.46281270496547222137,1.16936755475529,0.947803175959553,343.006276640116
738336.46281279542017728090,1.18167668691061,0.960112308114872,342.99396750796
738336.46281288575846701860,1.00934883673615,0.800093590095726,342.932421847184
738336.46281297621317207813,0.997039704580828,0.800093590095726,342.957040111494
738336.46281306666787713766,1.1078218939787,0.898566647338277,342.99396750796
738336.46281315700616687536,1.03396710104678,0.812402722251045,343.018585772271
738336.46281324746087193489,0.898566647338277,0.701620532853175,343.006276640116
738336.46281333791557699442,0.960112308114872,0.750857061474451,342.99396750796
738336.46281342837028205395,0.984730572425509,0.76316619362977,342.96934924365
738336.46281351870857179165,1.13244015828934,0.935494043804234,342.944730979339
738336.46281360916327685118,1.14474929044465,0.935494043804234,342.96934924365
738336.46281369961798191071,1.05858536535742,0.849330118717002,342.944730979339
738336.46281379007268697023,0.997039704580828,0.787784457940408,342.920112715028
738336.46281388041097670794,1.03396710104678,0.812402722251045,343.006276640116
738336.46281397086568176746,0.923184911648915,0.726238797163813,342.957040111494
738336.46281406132038682699,0.947803175959553,0.750857061474451,342.895494450718
738336.46281415177509188652,1.08320362966806,0.886257515182958,342.957040111494
738336.46281424211338162422,1.14474929044465,0.947803175959553,342.895494450718
738336.46281433256808668375,1.07089449751274,0.886257515182958,342.920112715028
738336.46281442302279174328,0.984730572425509,0.775475325785089,342.932421847184
738336.46281451347749680281,1.03396710104678,0.837020986561683,342.858567054252
738336.46281460381578654051,0.960112308114872,0.76316619362977,342.944730979339
738336.46281469427049160004,1.03396710104678,0.837020986561683,342.883185318562
738336.46281478472519665956,0.960112308114872,0.787784457940408,342.895494450718
738336.46281487506348639727,0.972421440270191,0.800093590095726,342.957040111494
738336.46281496551819145679,1.15705842259997,0.984730572425509,342.895494450718
738336.46281505597289651632,1.14474929044465,0.984730572425509,342.895494450718
738336.46281514642760157585,0.997039704580828,0.824711854406364,342.99396750796
738336.46281523676589131355,1.00934883673615,0.849330118717002,342.957040111494
738336.46281532722059637308,0.972421440270191,0.787784457940408,342.957040111494
738336.46281541767530143261,0.997039704580828,0.837020986561683,342.957040111494
738336.46281550813000649214,0.935494043804234,0.787784457940408,342.96934924365
738336.46281559846829622984,0.935494043804234,0.787784457940408,342.99396750796
738336.46281568892300128937,0.861639250872321,0.713929665008494,342.895494450718
738336.46281577937770634890,0.997039704580828,0.861639250872321,342.96934924365
738336.46281586983241140842,1.16936755475529,1.0462762332021,342.99396750796
738336.46281596017070114613,0.947803175959553,0.824711854406364,342.957040111494
738336.46281605062540620565,0.886257515182958,0.76316619362977,342.846257922096
738336.46281614108011126518,1.03396710104678,0.898566647338277,342.833948789941
738336.46281623141840100288,0.87394838302764,0.76316619362977,342.907803582873
738336.46281632187310606241,0.861639250872321,0.738547929319132,342.920112715028
738336.46281641232781112194,1.02165796889147,0.910875779493596,342.944730979339
738336.46281650278251618147,0.984730572425509,0.861639250872321,342.920112715028
738336.46281659312080591917,0.947803175959553,0.837020986561683,342.858567054252
738336.46281668357551097870,0.997039704580828,0.886257515182958,342.846257922096
738336.46281677403021603823,0.947803175959553,0.837020986561683,342.833948789941
738336.46281686448492109776,0.886257515182958,0.800093590095726,342.870876186407
738336.46281695482321083546,0.898566647338277,0.800093590095726,342.895494450718
738336.46281704527791589499,0.947803175959553,0.837020986561683,342.895494450718
738336.46281713573262095451,0.910875779493596,0.800093590095726,342.870876186407
738336.46281722618732601404,0.861639250872321,0.76316619362977,342.96934924365
738336.46281731652561575174,0.886257515182958,0.787784457940408,342.99396750796
738336.46281740698032081127,0.898566647338277,0.812402722251045,342.99396750796
738336.46281749743502587080,0.935494043804234,0.837020986561683,342.957040111494
738336.46281758788973093033,0.960112308114872,0.861639250872321,343.018585772271
738336.46281767822802066803,0.947803175959553,0.861639250872321,343.030894904426
738336.46281776868272572756,0.960112308114872,0.861639250872321,342.932421847184
738336.46281785913743078709,0.984730572425509,0.886257515182958,343.006276640116
738336.46281794947572052479,1.00934883673615,0.910875779493596,342.981658375805
738336.46281803993042558432,0.947803175959553,0.849330118717002,343.030894904426
738336.46281813038513064384,0.923184911648915,0.824711854406364,342.895494450718
738336.46281822083983570337,0.984730572425509,0.898566647338277,342.981658375805
738336.46281831117812544107,1.12013102613402,1.0462762332021,343.030894904426
738336.46281840163283050060,1.08320362966806,0.984730572425509,342.99396750796
738336.46281849208753556013,0.824711854406364,0.738547929319132,342.981658375805
738336.46281858254224061966,0.849330118717002,0.775475325785089,343.043204036582
738336.46281867288053035736,0.960112308114872,0.87394838302764,343.018585772271
738336.46281876333523541689,0.997039704580828,0.910875779493596,342.932421847184
738336.46281885378994047642,0.923184911648915,0.837020986561683,342.907803582873
738336.46281894424464553595,0.837020986561683,0.750857061474451,342.907803582873
738336.46281903458293527365,0.861639250872321,0.775475325785089,342.957040111494
738336.46281912503764033318,1.00934883673615,0.923184911648915,342.920112715028
738336.46281921549234539270,1.03396710104678,0.947803175959553,342.920112715028
738336.46281930583063513041,0.910875779493596,0.800093590095726,342.907803582873
738336.46281939628534018993,0.824711854406364,0.738547929319132,342.957040111494
738336.46281948674004524946,0.935494043804234,0.849330118717002,342.957040111494
738336.46281957719475030899,0.947803175959553,0.861639250872321,342.80933052563
738336.46281966753304004669,0.910875779493596,0.812402722251045,342.846257922096
738336.46281975798774510622,0.972421440270191,0.886257515182958,342.96934924365
738336.46281984844245016575,0.972421440270191,0.87394838302764,342.96934924365
738336.46281993889715522528,0.898566647338277,0.812402722251045,342.932421847184
738336.46282002923544496298,0.923184911648915,0.824711854406364,342.981658375805
738336.46282011969015002251,0.960112308114872,0.87394838302764,343.006276640116
738336.46282021014485508204,1.0462762332021,0.947803175959553,342.932421847184
738336.46282030059956014156,1.02165796889147,0.935494043804234,342.858567054252
738336.46282039093784987926,0.923184911648915,0.824711854406364,342.895494450718
738336.46282048139255493879,0.910875779493596,0.812402722251045,342.895494450718
738336.46282057184725999832,1.00934883673615,0.923184911648915,342.846257922096
738336.46282066218554973602,1.08320362966806,0.997039704580828,342.895494450718
738336.46282075264025479555,0.824711854406364,0.713929665008494,342.883185318562
738336.46282084309495985508,0.787784457940408,0.677002268542538,342.920112715028
738336.46282093354966491461,0.837020986561683,0.738547929319132,342.870876186407
738336.46282102388795465231,0.910875779493596,0.800093590095726,342.870876186407
738336.46282111434265971184,0.960112308114872,0.812402722251045,342.907803582873
738336.46282120479736477137,0.972421440270191,0.824711854406364,342.957040111494
738336.46282129525206983089,0.947803175959553,0.750857061474451,342.981658375805
738336.46282138559035956860,1.00934883673615,0.787784457940408,342.944730979339
738336.46282147604506462812,1.00934883673615,0.800093590095726,342.957040111494
738336.46282156649976968765,0.997039704580828,0.824711854406364,343.018585772271
738336.46282165695447474718,1.12013102613402,0.984730572425509,342.957040111494
738336.46282174729276448488,1.1078218939787,0.984730572425509,342.99396750796
738336.46282183774746954441,0.935494043804234,0.824711854406364,342.99396750796
738336.46282192820217460394,0.947803175959553,0.849330118717002,343.006276640116
738336.46282201865687966347,0.837020986561683,0.76316619362977,342.920112715028
738336.46282210899516940117,0.812402722251045,0.738547929319132,343.030894904426
738336.46282219944987446070,0.861639250872321,0.787784457940408,343.018585772271
738336.46282228990457952023,0.898566647338277,0.824711854406364,342.957040111494
738336.46282238024286925793,0.886257515182958,0.824711854406364,342.96934924365
738336.46282247069757431746,0.898566647338277,0.837020986561683,342.981658375805
738336.46282256115227937698,0.898566647338277,0.824711854406364,343.043204036582
738336.46282265160698443651,0.923184911648915,0.849330118717002,343.030894904426
738336.46282274194527417421,0.972421440270191,0.898566647338277,342.96934924365
738336.46282283239997923374,1.0462762332021,1.02165796889147,342.96934924365
738336.46282292285468429327,1.07089449751274,1.19398581906593,343.067822300892
738336.46282301330938935280,1.07089449751274,1.02165796889147,343.227841018911
738336.46282310364767909050,1.48940499079358,0.553910946989349,343.166295358135
738336.46282319410238415003,1.84636982329783,0.270800907417015,343.240150151067
738336.46282328455708920956,1.64942370881273,0.209255246640421,343.412478001241
738336.46282337501179426908,1.0462762332021,0.590838343455306,343.043204036582
738336.46282346535008400679,0.910875779493596,0.615456607765943,342.895494450718
738336.46282355580478906631,1.02165796889147,0.775475325785089,342.920112715028
738336.46282364625949412584,1.08320362966806,0.923184911648915,343.030894904426
738336.46282373659778386354,1.02165796889147,0.886257515182958,343.018585772271
738336.46282382705248892307,0.935494043804234,0.824711854406364,342.895494450718
738336.46282391750719398260,0.910875779493596,0.824711854406364,342.981658375805
738336.46282400796189904213,1.09551276182338,0.997039704580828,342.99396750796
738336.46282409830018877983,1.03396710104678,0.935494043804234,342.96934924365
738336.46282418875489383936,0.972421440270191,0.87394838302764,342.981658375805
738336.46282427920959889889,0.910875779493596,0.812402722251045,342.99396750796
738336.46282436966430395842,0.935494043804234,0.837020986561683,342.981658375805
738336.46282446000259369612,0.997039704580828,0.898566647338277,342.944730979339
738336.46282455045729875565,0.972421440270191,0.861639250872321,342.981658375805
738336.46282464091200381517,0.947803175959553,0.837020986561683,342.920112715028
738336.46282473136670887470,0.997039704580828,0.87394838302764,342.96934924365
738336.46282482170499861240,1.03396710104678,0.923184911648915,342.907803582873
738336.46282491215970367193,1.0462762332021,0.935494043804234,342.920112715028
738336.46282500261440873146,1.12013102613402,0.984730572425509,342.870876186407
738336.46282509306911379099,1.13244015828934,0.997039704580828,342.895494450718
738336.46282518340740352869,1.0462762332021,0.886257515182958,342.932421847184
738336.46282527386210858822,0.923184911648915,0.775475325785089,342.944730979339
738336.46282536431681364775,0.972421440270191,0.812402722251045,342.96934924365
738336.46282545465510338545,1.03396710104678,0.87394838302764,342.981658375805
738336.46282554510980844498,1.12013102613402,0.947803175959553,342.96934924365
738336.46282563556451350451,1.19398581906593,1.00934883673615,343.018585772271
738336.46282572601921856403,1.12013102613402,0.910875779493596,343.043204036582
738336.46282581635750830173,1.20629495122125,0.984730572425509,343.080131433047
738336.46282590681221336126,1.23091321553189,0.997039704580828,343.080131433047
738336.46282599726691842079,1.23091321553189,0.947803175959553,343.092440565203
738336.46282608772162348032,1.26784061199784,0.972421440270191,343.166295358135
738336.46282617805991321802,1.24322234768721,0.910875779493596,343.17860449029
738336.46282626851461827755,1.32938627277444,0.984730572425509,343.203222754601
738336.46282635896932333708,1.32938627277444,0.935494043804234,343.190913622445
738336.46282644942402839661,1.31707714061912,0.923184911648915,343.240150151067
738336.46282653976231813431,1.32938627277444,0.923184911648915,343.277077547533
738336.46282663021702319384,1.5017141229489,1.08320362966806,343.129367961669
738336.46282672067172825336,1.5017141229489,1.07089449751274,343.006276640116
738336.46282681101001799107,1.28014974415316,0.849330118717002,343.141677093824
738336.46282690146472305059,1.31707714061912,0.935494043804234,343.092440565203
738336.46282699191942811012,1.32938627277444,0.972421440270191,343.043204036582
738336.46282708237413316965,1.15705842259997,0.837020986561683,343.018585772271
738336.46282717271242290735,1.0462762332021,0.775475325785089,342.883185318562
738336.46282726316712796688,1.1078218939787,0.861639250872321,342.99396750796
738336.46282735362183302641,1.05858536535742,0.824711854406364,342.981658375805
738336.46282744407653808594,1.00934883673615,0.800093590095726,342.944730979339
738336.46282753441482782364,1.05858536535742,0.849330118717002,342.957040111494
738336.46282762486953288317,1.00934883673615,0.812402722251045,342.957040111494
738336.46282771532423794270,1.00934883673615,0.812402722251045,342.957040111494
738336.46282780577894300222,1.12013102613402,0.935494043804234,342.907803582873
738336.46282789611723273993,1.07089449751274,0.861639250872321,342.944730979339
738336.46282798657193779945,0.947803175959553,0.750857061474451,342.870876186407
738336.46282807702664285898,0.984730572425509,0.787784457940408,342.920112715028
738336.46282816748134791851,0.960112308114872,0.775475325785089,342.944730979339
738336.46282825781963765621,0.972421440270191,0.787784457940408,342.920112715028
738336.46282834827434271574,0.984730572425509,0.787784457940408,342.870876186407
738336.46282843872904777527,0.947803175959553,0.738547929319132,342.895494450718
738336.46282852906733751297,0.960112308114872,0.76316619362977,342.883185318562
738336.46282861952204257250,1.07089449751274,0.861639250872321,342.944730979339
738336.46282870997674763203,0.997039704580828,0.787784457940408,343.006276640116
738336.46282880043145269156,0.984730572425509,0.787784457940408,342.981658375805
738336.46282889076974242926,0.972421440270191,0.775475325785089,342.944730979339
738336.46282898122444748878,1.0462762332021,0.861639250872321,342.96934924365
738336.46282907167915254831,1.07089449751274,0.87394838302764,342.920112715028
738336.46282916213385760784,1.03396710104678,0.849330118717002,342.944730979339
738336.46282925247214734554,0.972421440270191,0.775475325785089,342.932421847184
738336.46282934292685240507,0.984730572425509,0.800093590095726,342.957040111494
738336.46282943338155746460,0.984730572425509,0.800093590095726,342.944730979339
738336.46282952383626252413,1.00934883673615,0.812402722251045,342.870876186407
738336.46282961417455226183,1.02165796889147,0.824711854406364,342.981658375805
738336.46282970462925732136,1.00934883673615,0.837020986561683,343.018585772271
738336.46282979508396238089,1.03396710104678,0.861639250872321,342.981658375805
738336.46282988542225211859,1.08320362966806,0.898566647338277,342.932421847184
738336.46282997587695717812,1.13244015828934,0.960112308114872,342.907803582873
738336.46283006633166223764,1.05858536535742,0.898566647338277,342.895494450718
738336.46283015678636729717,0.960112308114872,0.800093590095726,342.846257922096
738336.46283024712465703487,0.898566647338277,0.738547929319132,342.735475732699
738336.46283033757936209440,1.03396710104678,0.87394838302764,342.895494450718
738336.46283042803406715393,1.07089449751274,0.910875779493596,342.944730979339
738336.46283051848877221346,0.910875779493596,0.76316619362977,342.895494450718
738336.46283060882706195116,0.960112308114872,0.800093590095726,342.957040111494
738336.46283069928176701069,0.947803175959553,0.800093590095726,342.99396750796
738336.46283078973647207022,0.923184911648915,0.800093590095726,342.944730979339
738336.46283088019117712975,0.935494043804234,0.812402722251045,342.957040111494
738336.46283097052946686745,0.972421440270191,0.837020986561683,342.883185318562
738336.46283106098417192698,1.0462762332021,0.910875779493596,342.944730979339
738336.46283115143887698650,1.02165796889147,0.886257515182958,342.944730979339
738336.46283124189358204603,0.947803175959553,0.812402722251045,342.870876186407
738336.46283133223187178373,0.886257515182958,0.76316619362977,342.957040111494
738336.46283142268657684326,0.935494043804234,0.812402722251045,342.944730979339
738336.46283151314128190279,0.935494043804234,0.824711854406364,342.932421847184
738336.46283160347957164049,0.947803175959553,0.812402722251045,342.932421847184
738336.46283169393427670002,0.935494043804234,0.812402722251045,342.96934924365
738336.46283178438898175955,0.947803175959553,0.837020986561683,342.944730979339
738336.46283187484368681908,0.972421440270191,0.861639250872321,342.895494450718
738336.46283196518197655678,0.960112308114872,0.861639250872321,342.957040111494
738336.46283205563668161631,0.972421440270191,0.849330118717002,342.932421847184
738336.46283214609138667583,0.984730572425509,0.87394838302764,342.932421847184
738336.46283223654609173536,1.02165796889147,0.910875779493596,342.920112715028
738336.46283232688438147306,0.984730572425509,0.861639250872321,342.944730979339
738336.46283241733908653259,1.03396710104678,0.935494043804234,342.932421847184
738336.46283250779379159212,0.997039704580828,0.898566647338277,342.895494450718
738336.46283259824849665165,0.849330118717002,0.738547929319132,342.870876186407
738336.46283268858678638935,0.824711854406364,0.726238797163813,342.96934924365
738336.46283277904149144888,0.861639250872321,0.76316619362977,342.957040111494
738336.46283286949619650841,0.898566647338277,0.800093590095726,342.907803582873
738336.46283295983448624611,0.923184911648915,0.824711854406364,342.96934924365
738336.46283305028919130564,0.947803175959553,0.849330118717002,342.957040111494
738336.46283314074389636517,0.947803175959553,0.837020986561683,342.932421847184
738336.46283323119860142469,0.984730572425509,0.886257515182958,342.944730979339
738336.46283332153689116240,1.07089449751274,0.960112308114872,342.944730979339
738336.46283341199159622192,1.03396710104678,0.935494043804234,342.920112715028
738336.46283350244630128145,1.00934883673615,0.898566647338277,342.883185318562
738336.46283359290100634098,0.849330118717002,0.750857061474451,342.907803582873
738336.46283368323929607868,0.87394838302764,0.775475325785089,342.710857468388
738336.46283377369400113821,0.910875779493596,0.800093590095726,342.723166600543
738336.46283386414870619774,0.898566647338277,0.787784457940408,342.870876186407
738336.46283395460341125727,0.87394838302764,0.76316619362977,342.895494450718
738336.46283404494170099497,0.910875779493596,0.800093590095726,342.957040111494
738336.46283413539640605450,0.947803175959553,0.849330118717002,342.907803582873
738336.46283422585111111403,0.898566647338277,0.812402722251045,342.96934924365
738336.46283431630581617355,0.947803175959553,0.849330118717002,342.981658375805
738336.46283440664410591125,1.02165796889147,0.910875779493596,342.96934924365
738336.46283449709881097078,0.984730572425509,0.886257515182958,342.96934924365
738336.46283458755351603031,1.00934883673615,0.898566647338277,342.957040111494
738336.46283467789180576801,0.935494043804234,0.812402722251045,342.870876186407
738336.46283476834651082754,0.87394838302764,0.775475325785089,342.957040111494
738336.46283485880121588707,0.923184911648915,0.812402722251045,342.957040111494
738336.46283494925592094660,0.87394838302764,0.76316619362977,342.883185318562
738336.46283503959421068430,0.886257515182958,0.775475325785089,342.96934924365
738336.46283513004891574383,0.984730572425509,0.886257515182958,342.981658375805
738336.46283522050362080336,1.08320362966806,0.997039704580828,342.932421847184
738336.46283531095832586288,0.947803175959553,0.849330118717002,342.932421847184
738336.46283540129661560059,0.984730572425509,0.87394838302764,342.870876186407
738336.46283549175132066011,0.837020986561683,0.738547929319132,342.932421847184
738336.46283558220602571964,0.837020986561683,0.738547929319132,342.920112715028
738336.46283567266073077917,0.886257515182958,0.787784457940408,342.883185318562
738336.46283576299902051687,0.87394838302764,0.775475325785089,342.920112715028
738336.46283585345372557640,0.898566647338277,0.800093590095726,342.870876186407
738336.46283594390843063593,0.923184911648915,0.824711854406364,342.895494450718
738336.46283603424672037363,0.935494043804234,0.837020986561683,342.870876186407
738336.46283612470142543316,1.0462762332021,0.947803175959553,342.957040111494
738336.46283621515613049269,1.0462762332021,0.947803175959553,342.957040111494
738336.46283630561083555222,0.849330118717002,0.750857061474451,342.932421847184
738336.46283639594912528992,0.898566647338277,0.787784457940408,342.883185318562
738336.46283648640383034945,0.898566647338277,0.800093590095726,342.895494450718
738336.46283657685853540897,0.849330118717002,0.76316619362977,342.858567054252
738336.46283666731324046850,0.923184911648915,0.824711854406364,342.895494450718
738336.46283675765153020620,0.935494043804234,0.800093590095726,342.895494450718
738336.46283684810623526573,1.02165796889147,0.898566647338277,342.870876186407
738336.46283693856094032526,1.08320362966806,0.923184911648915,342.895494450718
738336.46283702901564538479,0.947803175959553,0.787784457940408,342.883185318562
738336.46283711935393512249,0.910875779493596,0.677002268542538,342.932421847184
738336.46283720980864018202,0.960112308114872,0.738547929319132,342.747784864854
738336.46283730026334524155,1.13244015828934,0.923184911648915,342.895494450718
738336.46283739071805030107,1.08320362966806,0.898566647338277,342.957040111494
738336.46283748105634003878,0.849330118717002,0.701620532853175,342.907803582873
738336.46283757151104509830,0.824711854406364,0.701620532853175,342.920112715028
738336.46283766196575015783,0.87394838302764,0.775475325785089,342.920112715028
738336.46283775230403989553,0.935494043804234,0.837020986561683,342.932421847184
738336.46283784275874495506,0.923184911648915,0.837020986561683,342.932421847184
738336.46283793321345001459,0.910875779493596,0.824711854406364,342.920112715028
738336.46283802366815507412,0.935494043804234,0.861639250872321,342.957040111494
738336.46283811400644481182,0.960112308114872,0.886257515182958,342.957040111494
738336.46283820446114987135,0.923184911648915,0.849330118717002,342.957040111494
738336.46283829491585493088,0.923184911648915,0.837020986561683,343.018585772271
738336.46283838537055999041,1.07089449751274,0.997039704580828,342.907803582873
738336.46283847570884972811,0.923184911648915,0.824711854406364,342.99396750796
738336.46283856616355478764,0.824711854406364,0.750857061474451,343.006276640116
738336.46283865661825984716,0.87394838302764,0.886257515182958,342.99396750796
738336.46283874707296490669,1.02165796889147,1.15705842259997,343.055513168737
738336.46283883741125464439,1.28014974415316,0.972421440270191,343.203222754601
738336.46283892786595970392,1.62480544450209,0.418510493280842,343.326314076154
738336.46283901832066476345,1.87098808760847,0.246182643106377,343.461714529862
738336.46283910865895450115,1.53864151941486,0.43081962543616,343.449405397707
738336.46283919911365956068,0.935494043804234,0.590838343455306,343.055513168737
738336.46283928956836462021,1.05858536535742,0.738547929319132,342.944730979339
738336.46283938002306967974,1.0462762332021,0.787784457940408,343.043204036582
738336.46283947036135941744,0.960112308114872,0.787784457940408,343.055513168737
738336.46283956081606447697,0.984730572425509,0.849330118717002,342.981658375805
738336.46283965127076953650,1.00934883673615,0.87394838302764,343.006276640116
738336.46283974172547459602,0.984730572425509,0.886257515182958,342.981658375805
738336.46283983206376433372,0.960112308114872,0.861639250872321,342.957040111494
738336.46283992251846939325,1.08320362966806,1.00934883673615,343.006276640116
738336.46284001297317445278,0.984730572425509,0.886257515182958,342.907803582873
738336.46284010342787951231,1.03396710104678,0.935494043804234,342.96934924365
738336.46284019376616925001,1.07089449751274,0.972421440270191,342.920112715028
738336.46284028422087430954,0.984730572425509,0.87394838302764,342.932421847184
738336.46284037467557936907,0.923184911648915,0.812402722251045,343.055513168737
738336.46284046513028442860,1.02165796889147,0.910875779493596,342.957040111494
738336.46284055546857416630,0.960112308114872,0.849330118717002,342.99396750796
738336.46284064592327922583,0.947803175959553,0.849330118717002,342.957040111494
738336.46284073637798428535,0.960112308114872,0.849330118717002,342.858567054252
738336.46284082671627402306,1.03396710104678,0.898566647338277,342.920112715028
738336.46284091717097908258,1.03396710104678,0.898566647338277,342.981658375805
738336.46284100762568414211,1.03396710104678,0.886257515182958,343.080131433047
738336.46284109808038920164,1.0462762332021,0.898566647338277,343.055513168737
738336.46284118841867893934,1.13244015828934,0.972421440270191,343.043204036582
738336.46284127887338399887,1.16936755475529,0.997039704580828,343.006276640116
738336.46284136932808905840,1.19398581906593,1.03396710104678,343.092440565203
738336.46284145978279411793,1.08320362966806,0.898566647338277,343.055513168737
738336.46284155012108385563,1.1078218939787,0.923184911648915,342.99396750796
738336.46284164057578891516,1.18167668691061,0.972421440270191,343.067822300892
738336.46284173103049397469,1.13244015828934,0.898566647338277,343.117058829513
738336.46284182148519903421,1.15705842259997,0.886257515182958,343.067822300892
738336.46284191182348877192,1.26784061199784,0.972421440270191,343.092440565203
738336.46284200227819383144,1.29245887630848,0.972421440270191,343.092440565203
738336.46284209273289889097,1.40324106570635,1.07089449751274,343.129367961669
738336.46284218307118862867,1.47709585863826,1.12013102613402,343.166295358135
738336.46284227352589368820,1.3047680084638,0.910875779493596,343.17860449029
738336.46284236398059874773,1.31707714061912,0.886257515182958,343.153986225979
738336.46284245443530380726,1.45247759432763,1.00934883673615,343.153986225979
738336.46284254477359354496,1.37862280139571,0.947803175959553,343.215531886756
738336.46284263522829860449,1.31707714061912,0.910875779493596,343.166295358135
738336.46284272568300366402,1.3047680084638,0.923184911648915,343.129367961669
738336.46284281613770872355,1.26784061199784,0.947803175959553,343.129367961669
738336.46284290647599846125,1.24322234768721,0.960112308114872,343.104749697358
738336.46284299693070352077,1.1078218939787,0.837020986561683,343.104749697358
738336.46284308738540858030,1.0462762332021,0.787784457940408,342.981658375805
738336.46284317784011363983,1.07089449751274,0.837020986561683,343.030894904426
738336.46284326817840337753,1.05858536535742,0.824711854406364,343.030894904426
738336.46284335863310843706,1.03396710104678,0.837020986561683,342.920112715028
738336.46284344908781349659,0.960112308114872,0.76316619362977,342.99396750796
738336.46284353954251855612,0.960112308114872,0.76316619362977,343.030894904426
738336.46284362988080829382,0.972421440270191,0.775475325785089,342.920112715028
738336.46284372033551335335,0.984730572425509,0.787784457940408,342.981658375805
738336.46284381079021841288,1.09551276182338,0.898566647338277,342.99396750796
738336.46284390112850815058,1.21860408337657,1.03396710104678,342.99396750796
738336.46284399158321321011,1.09551276182338,0.886257515182958,342.858567054252
738336.46284408203791826963,0.947803175959553,0.750857061474451,343.006276640116
738336.46284417249262332916,0.886257515182958,0.701620532853175,342.981658375805
738336.46284426283091306686,1.0462762332021,0.861639250872321,342.78471226132
738336.46284435328561812639,1.13244015828934,0.935494043804234,342.858567054252
738336.46284444374032318592,0.972421440270191,0.775475325785089,343.006276640116
738336.46284453419502824545,0.935494043804234,0.726238797163813,342.981658375805
738336.46284462453331798315,0.972421440270191,0.775475325785089,342.895494450718
738336.46284471498802304268,1.00934883673615,0.812402722251045,342.96934924365
738336.46284480544272810221,1.00934883673615,0.812402722251045,342.99396750796
738336.46284489589743316174,1.03396710104678,0.861639250872321,343.030894904426
738336.46284498623572289944,1.1078218939787,0.923184911648915,342.932421847184
738336.46284507669042795897,1.08320362966806,0.886257515182958,343.006276640116
738336.46284516714513301849,1.05858536535742,0.87394838302764,343.030894904426
738336.46284525748342275620,1.02165796889147,0.824711854406364,342.883185318562
738336.46284534793812781572,1.03396710104678,0.849330118717002,342.96934924365
738336.46284543839283287525,1.09551276182338,0.910875779493596,342.96934924365
738336.46284552884753793478,0.947803175959553,0.775475325785089,343.006276640116
738336.46284561918582767248,0.910875779493596,0.738547929319132,342.920112715028
738336.46284570964053273201,0.997039704580828,0.837020986561683,343.006276640116
738336.46284580009523779154,1.05858536535742,0.886257515182958,343.018585772271
738336.46284589054994285107,0.984730572425509,0.812402722251045,342.920112715028
738336.46284598088823258877,0.972421440270191,0.800093590095726,342.920112715028
738336.46284607134293764830,0.984730572425509,0.824711854406364,342.907803582873
738336.46284616179764270782,0.984730572425509,0.824711854406364,342.907803582873
738336.46284625225234776735,1.05858536535742,0.910875779493596,342.858567054252
738336.46284634259063750505,1.1078218939787,0.960112308114872,342.895494450718
738336.46284643304534256458,0.997039704580828,0.849330118717002,342.895494450718
738336.46284652350004762411,0.935494043804234,0.787784457940408,342.883185318562
738336.46284661395475268364,0.972421440270191,0.837020986561683,342.96934924365
738336.46284670429304242134,1.18167668691061,1.0462762332021,342.957040111494
738336.46284679474774748087,1.13244015828934,0.984730572425509,342.944730979339
738336.46284688520245254040,0.886257515182958,0.738547929319132,343.018585772271
738336.46284697554074227810,0.861639250872321,0.738547929319132,343.006276640116
738336.46284706599544733763,0.935494043804234,0.787784457940408,342.907803582873
738336.46284715645015239716,0.972421440270191,0.849330118717002,342.96934924365
738336.46284724690485745668,1.00934883673615,0.886257515182958,343.030894904426
738336.46284733724314719439,0.984730572425509,0.861639250872321,342.932421847184
738336.46284742769785225391,0.960112308114872,0.849330118717002,343.006276640116
738336.46284751815255731344,1.02165796889147,0.898566647338277,342.99396750796
738336.46284760860726237297,0.972421440270191,0.849330118717002,342.944730979339
738336.46284769894555211067,0.935494043804234,0.824711854406364,342.957040111494
738336.46284778940025717020,1.03396710104678,0.935494043804234,342.858567054252
738336.46284787985496222973,1.0462762332021,0.923184911648915,342.858567054252
738336.46284797030966728926,0.898566647338277,0.787784457940408,342.883185318562
738336.46284806064795702696,0.910875779493596,0.800093590095726,342.96934924365
738336.46284815110266208649,0.960112308114872,0.861639250872321,342.96934924365
738336.46284824155736714602,0.972421440270191,0.861639250872321,342.895494450718
738336.46284833189565688372,0.947803175959553,0.837020986561683,342.957040111494
738336.46284842235036194324,0.935494043804234,0.824711854406364,342.957040111494
738336.46284851280506700277,0.960112308114872,0.861639250872321,342.957040111494
738336.46284860325977206230,1.00934883673615,0.910875779493596,342.883185318562
738336.46284869359806180000,1.02165796889147,0.923184911648915,342.920112715028
738336.46284878405276685953,1.0462762332021,0.960112308114872,342.96934924365
738336.46284887450747191906,0.960112308114872,0.861639250872321,342.957040111494
738336.46284896496217697859,0.910875779493596,0.812402722251045,342.895494450718
738336.46284905530046671629,0.886257515182958,0.800093590095726,342.96934924365
738336.46284914575517177582,0.910875779493596,0.824711854406364,342.96934924365
738336.46284923620987683535,0.997039704580828,0.910875779493596,342.907803582873
738336.46284932666458189487,1.03396710104678,0.947803175959553,342.883185318562
738336.46284941700287163258,0.898566647338277,0.812402722251045,342.858567054252
738336.46284950745757669210,0.87394838302764,0.787784457940408,342.895494450718
738336.46284959791228175163,0.947803175959553,0.861639250872321,342.895494450718
738336.46284968825057148933,0.923184911648915,0.837020986561683,342.883185318562
738336.46284977870527654886,0.886257515182958,0.800093590095726,342.870876186407
738336.46284986915998160839,0.984730572425509,0.910875779493596,342.895494450718
738336.46284995961468666792,0.947803175959553,0.861639250872321,342.957040111494
738336.46285004995297640562,0.87394838302764,0.800093590095726,342.907803582873
738336.46285014040768146515,0.923184911648915,0.849330118717002,342.96934924365
738336.46285023086238652468,0.984730572425509,0.923184911648915,342.96934924365
738336.46285032131709158421,0.960112308114872,0.886257515182958,342.883185318562
738336.46285041165538132191,0.923184911648915,0.849330118717002,342.944730979339
738336.46285050211008638144,0.997039704580828,0.910875779493596,342.932421847184
738336.46285059256479144096,1.02165796889147,0.947803175959553,342.920112715028
738336.46285068301949650049,0.87394838302764,0.787784457940408,342.957040111494
738336.46285077335778623819,0.849330118717002,0.787784457940408,342.920112715028
738336.46285086381249129772,0.997039704580828,0.923184911648915,342.920112715028
738336.46285095426719635725,0.997039704580828,0.923184911648915,342.96934924365
738336.46285104472190141678,0.910875779493596,0.824711854406364,343.030894904426
738336.46285113506019115448,0.87394838302764,0.800093590095726,343.043204036582
738336.46285122551489621401,0.984730572425509,0.898566647338277,342.981658375805
738336.46285131596960127354,0.997039704580828,0.935494043804234,342.870876186407
738336.46285140630789101124,0.861639250872321,0.800093590095726,342.870876186407
738336.46285149676259607077,0.898566647338277,0.837020986561683,342.957040111494
738336.46285158721730113029,0.984730572425509,0.923184911648915,342.981658375805
738336.46285167767200618982,0.947803175959553,0.87394838302764,342.957040111494
738336.46285176801029592752,0.849330118717002,0.787784457940408,342.96934924365
738336.46285185846500098705,0.87394838302764,0.824711854406364,342.920112715028
738336.46285194891970604658,0.923184911648915,0.861639250872321,342.981658375805
738336.46285203937441110611,0.960112308114872,0.910875779493596,342.981658375805
738336.46285212971270084381,0.972421440270191,0.923184911648915,342.96934924365
738336.46285222016740590334,0.923184911648915,0.861639250872321,342.920112715028
738336.46285231062211096287,0.935494043804234,0.886257515182958,342.96934924365
738336.46285240107681602240,0.935494043804234,0.87394838302764,342.981658375805
738336.46285249141510576010,0.935494043804234,0.886257515182958,342.907803582873
738336.46285258186981081963,1.21860408337657,1.15705842259997,342.883185318562
738336.46285267232451587915,1.00934883673615,0.935494043804234,342.907803582873
738336.46285276266280561686,0.824711854406364,0.76316619362977,342.920112715028
738336.46285285311751067638,0.824711854406364,0.76316619362977,342.883185318562
738336.46285294357221573591,0.861639250872321,0.787784457940408,342.932421847184
738336.46285303402692079544,0.886257515182958,0.812402722251045,342.944730979339
738336.46285312436521053314,0.87394838302764,0.775475325785089,342.944730979339
738336.46285321481991559267,0.910875779493596,0.824711854406364,342.907803582873
738336.46285330527462065220,1.09551276182338,0.923184911648915,342.907803582873
738336.46285339572932571173,1.13244015828934,0.947803175959553,342.895494450718
738336.46285348606761544943,1.02165796889147,0.861639250872321,342.96934924365
738336.46285357652232050896,0.947803175959553,0.812402722251045,342.920112715028
738336.46285366697702556849,0.886257515182958,0.812402722251045,342.944730979339
738336.46285375743173062801,1.02165796889147,0.960112308114872,342.957040111494
738336.46285384777002036572,1.03396710104678,0.972421440270191,342.932421847184
738336.46285393822472542524,0.886257515182958,0.849330118717002,342.981658375805
738336.46285402867943048477,0.726238797163813,0.689311400697857,342.883185318562
738336.46285411913413554430,0.837020986561683,0.800093590095726,342.957040111494
738336.46285420947242528200,0.837020986561683,0.800093590095726,342.920112715028
738336.46285429992713034153,0.812402722251045,0.787784457940408,342.957040111494
738336.46285439038183540106,0.87394838302764,0.861639250872321,342.883185318562
738336.46285448072012513876,1.00934883673615,0.984730572425509,342.957040111494
738336.46285457117483019829,1.08320362966806,1.07089449751274,342.96934924365
738336.46285466162953525782,0.997039704580828,0.972421440270191,342.944730979339
738336.46285475208424031734,0.935494043804234,0.923184911648915,342.883185318562
738336.46285484242253005505,0.812402722251045,0.886257515182958,342.858567054252
738336.46285493287723511457,1.03396710104678,1.20629495122125,342.883185318562
738336.46285502333194017410,1.19398581906593,0.898566647338277,343.129367961669
738336.46285511378664523363,1.58787804803613,0.43081962543616,343.252459283222
738336.46285520412493497133,1.78482416252124,0.172327850174464,343.36324147262
738336.46285529457964003086,1.36631366924039,0.344655700348928,343.326314076154
738336.46285538503434509039,0.87394838302764,0.615456607765943,343.018585772271
738336.46285547548905014992,1.19398581906593,0.947803175959553,343.043204036582
738336.46285556582733988762,1.09551276182338,0.923184911648915,342.944730979339
738336.46285565628204494715,0.935494043804234,0.837020986561683,343.006276640116
738336.46285574673675000668,0.984730572425509,0.898566647338277,343.030894904426
738336.46285583707503974438,0.87394838302764,0.824711854406364,342.907803582873
738336.46285592752974480391,0.837020986561683,0.800093590095726,343.006276640116
738336.46285601798444986343,0.910875779493596,0.861639250872321,343.030894904426
738336.46285610843915492296,0.960112308114872,0.923184911648915,343.030894904426
738336.46285619877744466066,1.02165796889147,0.984730572425509,342.920112715028
738336.46285628923214972019,0.947803175959553,0.886257515182958,343.030894904426
738336.46285637968685477972,0.923184911648915,0.886257515182958,343.018585772271
738336.46285647014155983925,0.960112308114872,0.923184911648915,342.944730979339
738336.46285656047984957695,1.0462762332021,1.00934883673615,343.030894904426
738336.46285665093455463648,1.18167668691061,1.13244015828934,343.030894904426
738336.46285674138925969601,0.984730572425509,0.923184911648915,342.981658375805
738336.46285683184396475554,0.849330118717002,0.787784457940408,342.981658375805
738336.46285692218225449324,0.935494043804234,0.861639250872321,342.981658375805
738336.46285701263695955276,0.997039704580828,0.923184911648915,342.981658375805
738336.46285710309166461229,1.15705842259997,1.08320362966806,342.957040111494
738336.46285719354636967182,1.1078218939787,0.997039704580828,342.957040111494
738336.46285728388465940952,0.947803175959553,0.861639250872321,342.895494450718
738336.46285737433936446905,0.947803175959553,0.837020986561683,342.957040111494
738336.46285746479406952858,1.0462762332021,0.923184911648915,343.006276640116
738336.46285755513235926628,1.08320362966806,0.947803175959553,343.018585772271
738336.46285764558706432581,1.21860408337657,1.07089449751274,342.981658375805
738336.46285773604176938534,1.23091321553189,1.07089449751274,342.96934924365
738336.46285782649647444487,1.23091321553189,1.05858536535742,342.99396750796
738336.46285791683476418257,1.23091321553189,1.0462762332021,342.96934924365
738336.46285800728946924210,1.13244015828934,0.923184911648915,343.092440565203
738336.46285809774417430162,1.23091321553189,0.997039704580828,343.129367961669
738336.46285818819887936115,1.31707714061912,1.05858536535742,343.043204036582
738336.46285827853716909885,1.31707714061912,1.02165796889147,343.104749697358
738336.46285836899187415838,1.28014974415316,0.972421440270191,343.141677093824
738336.46285845944657921791,1.26784061199784,0.910875779493596,343.055513168737
738336.46285854990128427744,1.34169540492976,0.960112308114872,343.129367961669
738336.46285864023957401514,1.36631366924039,0.984730572425509,343.17860449029
738336.46285873069427907467,1.41555019786167,1.0462762332021,343.17860449029
738336.46285882114898413420,1.40324106570635,1.05858536535742,343.166295358135
738336.46285891148727387190,1.35400453708508,1.03396710104678,343.129367961669
738336.46285900194197893143,1.23091321553189,0.935494043804234,343.104749697358
738336.46285909239668399096,1.12013102613402,0.886257515182958,343.067822300892
738336.46285918285138905048,1.1078218939787,0.898566647338277,343.006276640116
738336.46285927318967878819,1.09551276182338,0.923184911648915,342.957040111494
738336.46285936364438384771,1.15705842259997,0.997039704580828,342.895494450718
738336.46285945409908890724,1.02165796889147,0.87394838302764,342.944730979339
738336.46285954455379396677,1.16936755475529,1.03396710104678,342.99396750796
738336.46285963489208370447,0.935494043804234,0.787784457940408,342.99396750796
738336.46285972534678876400,0.849330118717002,0.713929665008494,342.957040111494
738336.46285981580149382353,0.886257515182958,0.738547929319132,342.96934924365
738336.46285990625619888306,0.923184911648915,0.800093590095726,342.99396750796
738336.46285999659448862076,1.07089449751274,0.947803175959553,343.018585772271
738336.46286008704919368029,1.15705842259997,1.00934883673615,342.944730979339
738336.46286017750389873981,1.12013102613402,0.997039704580828,342.96934924365
738336.46286026795860379934,1.1078218939787,0.984730572425509,342.96934924365
738336.46286035829689353704,1.02165796889147,0.87394838302764,342.907803582873
738336.46286044875159859657,0.898566647338277,0.750857061474451,342.96934924365
738336.46286053920630365610,0.87394838302764,0.713929665008494,343.006276640116
738336.46286062954459339380,0.923184911648915,0.787784457940408,343.030894904426
738336.46286071999929845333,0.947803175959553,0.812402722251045,342.895494450718
738336.46286081045400351286,0.960112308114872,0.824711854406364,342.99396750796
738336.46286090090870857239,1.05858536535742,0.923184911648915,343.018585772271
738336.46286099124699831009,1.19398581906593,1.0462762332021,342.920112715028
738336.46286108170170336962,1.09551276182338,0.947803175959553,342.96934924365
738336.46286117215640842915,0.923184911648915,0.76316619362977,342.981658375805
738336.46286126261111348867,0.935494043804234,0.787784457940408,342.99396750796
738336.46286135294940322638,1.1078218939787,0.960112308114872,342.920112715028
738336.46286144340410828590,1.08320362966806,0.947803175959553,342.883185318562
738336.46286153385881334543,1.00934883673615,0.87394838302764,342.870876186407
738336.46286162431351840496,0.960112308114872,0.824711854406364,342.920112715028
738336.46286171465180814266,0.923184911648915,0.787784457940408,342.957040111494
738336.46286180510651320219,0.935494043804234,0.824711854406364,342.944730979339
738336.46286189556121826172,0.984730572425509,0.861639250872321,342.932421847184
738336.46286198589950799942,1.02165796889147,0.910875779493596,342.78471226132
738336.46286207635421305895,1.05858536535742,0.947803175959553,343.030894904426
738336.46286216680891811848,0.997039704580828,0.898566647338277,342.981658375805
738336.46286225726362317801,0.972421440270191,0.861639250872321,342.895494450718
738336.46286234760191291571,0.972421440270191,0.87394838302764,342.99396750796
738336.46286243805661797523,1.00934883673615,0.910875779493596,343.006276640116
738336.46286252851132303476,1.12013102613402,1.03396710104678,342.932421847184
738336.46286261896602809429,0.984730572425509,0.898566647338277,342.907803582873
738336.46286270930431783199,0.972421440270191,0.886257515182958,342.920112715028
738336.46286279975902289152,0.898566647338277,0.812402722251045,342.895494450718
738336.46286289021372795105,0.910875779493596,0.837020986561683,342.920112715028
738336.46286298066843301058,0.984730572425509,0.910875779493596,342.883185318562
738336.46286307100672274828,0.935494043804234,0.861639250872321,342.932421847184
738336.46286316146142780781,0.886257515182958,0.824711854406364,342.870876186407
738336.46286325191613286734,0.947803175959553,0.886257515182958,342.96934924365
738336.46286334237083792686,0.984730572425509,0.923184911648915,343.006276640116
738336.46286343270912766457,0.947803175959553,0.886257515182958,343.006276640116
738336.46286352316383272409,0.898566647338277,0.837020986561683,342.920112715028
738336.46286361361853778362,0.972421440270191,0.923184911648915,343.006276640116
738336.46286370395682752132,1.0462762332021,0.997039704580828,342.99396750796
738336.46286379441153258085,0.923184911648915,0.87394838302764,342.932421847184
738336.46286388486623764038,0.923184911648915,0.886257515182958,343.018585772271
738336.46286397532094269991,0.861639250872321,0.812402722251045,343.006276640116
738336.46286406565923243761,0.849330118717002,0.824711854406364,342.981658375805
738336.46286415611393749714,0.923184911648915,0.898566647338277,342.99396750796
738336.46286424656864255667,0.935494043804234,0.898566647338277,343.018585772271
738336.46286433702334761620,0.923184911648915,0.87394838302764,343.055513168737
738336.46286442736163735390,0.898566647338277,0.87394838302764,342.981658375805
738336.46286451781634241343,0.886257515182958,0.87394838302764,343.006276640116
738336.46286460827104747295,0.910875779493596,0.886257515182958,343.043204036582
738336.46286469872575253248,0.935494043804234,0.910875779493596,342.920112715028
738336.46286478906404227018,0.923184911648915,0.886257515182958,343.030894904426
738336.46286487951874732971,0.947803175959553,0.923184911648915,343.018585772271
738336.46286496997345238924,1.03396710104678,0.997039704580828,342.957040111494
738336.46286506031174212694,0.923184911648915,0.898566647338277,343.006276640116
738336.46286515076644718647,0.861639250872321,0.837020986561683,343.055513168737
738336.46286524122115224600,0.849330118717002,0.812402722251045,343.018585772271
738336.46286533167585730553,0.849330118717002,0.824711854406364,342.932421847184
738336.46286542201414704323,0.87394838302764,0.849330118717002,343.030894904426
738336.46286551246885210276,0.910875779493596,0.898566647338277,343.043204036582
738336.46286560292355716228,0.947803175959553,0.923184911648915,342.932421847184
738336.46286569337826222181,0.947803175959553,0.923184911648915,343.030894904426
738336.46286578371655195951,0.960112308114872,0.935494043804234,343.018585772271
738336.46286587417125701904,0.910875779493596,0.886257515182958,342.932421847184
738336.46286596462596207857,0.935494043804234,0.910875779493596,342.99396750796
738336.46286605508066713810,0.898566647338277,0.87394838302764,343.030894904426
738336.46286614541895687580,0.849330118717002,0.824711854406364,342.981658375805
738336.46286623587366193533,0.886257515182958,0.861639250872321,342.99396750796
738336.46286632632836699486,0.935494043804234,0.898566647338277,343.018585772271
738336.46286641678307205439,0.898566647338277,0.87394838302764,343.030894904426
738336.46286650712136179209,0.886257515182958,0.861639250872321,342.944730979339
738336.46286659757606685162,0.947803175959553,0.923184911648915,342.99396750796
738336.46286668803077191114,0.947803175959553,0.923184911648915,343.018585772271
738336.46286677836906164885,0.923184911648915,0.886257515182958,342.920112715028
738336.46286686882376670837,0.947803175959553,0.923184911648915,342.981658375805
738336.46286695927847176790,0.898566647338277,0.87394838302764,342.96934924365
738336.46286704973317682743,0.861639250872321,0.824711854406364,342.895494450718
738336.46286714007146656513,0.898566647338277,0.861639250872321,342.957040111494
738336.46286723052617162466,0.87394838302764,0.837020986561683,343.043204036582
738336.46286732098087668419,0.898566647338277,0.861639250872321,343.018585772271
738336.46286741143558174372,1.0462762332021,1.00934883673615,342.932421847184
738336.46286750177387148142,1.03396710104678,0.997039704580828,342.981658375805
738336.46286759222857654095,0.898566647338277,0.861639250872321,343.030894904426
738336.46286768268328160048,0.87394838302764,0.849330118717002,342.920112715028
738336.46286777313798666000,0.898566647338277,0.861639250872321,342.981658375805
738336.46286786347627639771,0.898566647338277,0.861639250872321,342.870876186407
738336.46286795393098145723,0.923184911648915,0.886257515182958,342.957040111494
738336.46286804438568651676,0.935494043804234,0.898566647338277,342.99396750796
738336.46286813472397625446,0.960112308114872,0.923184911648915,343.006276640116
738336.46286822517868131399,0.87394838302764,0.837020986561683,342.883185318562
738336.46286831563338637352,0.947803175959553,0.898566647338277,342.907803582873
738336.46286840608809143305,0.935494043804234,0.87394838302764,342.907803582873
738336.46286849642638117075,0.886257515182958,0.800093590095726,342.907803582873
738336.46286858688108623028,0.935494043804234,0.837020986561683,342.883185318562
738336.46286867733579128981,0.87394838302764,0.713929665008494,342.981658375805
738336.46286876779049634933,0.997039704580828,0.824711854406364,343.006276640116
738336.46286885812878608704,0.984730572425509,0.837020986561683,342.932421847184
738336.46286894858349114656,0.947803175959553,0.824711854406364,342.895494450718
738336.46286903903819620609,0.935494043804234,0.824711854406364,342.821639657786
738336.46286912949290126562,0.935494043804234,0.886257515182958,342.981658375805
738336.46286921983119100332,0.972421440270191,0.935494043804234,342.944730979339
738336.46286931028589606285,0.947803175959553,0.923184911648915,342.981658375805
738336.46286940074060112238,0.800093590095726,0.775475325785089,342.981658375805
738336.46286949119530618191,0.849330118717002,0.849330118717002,342.981658375805
738336.46286958153359591961,0.972421440270191,0.960112308114872,342.96934924365
738336.46286967198830097914,0.972421440270191,0.960112308114872,342.99396750796
738336.46286976244300603867,0.910875779493596,0.898566647338277,342.96934924365
738336.46286985278129577637,0.812402722251045,0.812402722251045,342.907803582873
738336.46286994323600083590,0.812402722251045,0.812402722251045,342.981658375805
738336.46287003369070589542,0.800093590095726,0.787784457940408,342.957040111494
738336.46287012414541095495,0.861639250872321,0.849330118717002,342.944730979339
738336.46287021448370069265,0.910875779493596,0.972421440270191,342.96934924365
738336.46287030493840575218,0.997039704580828,1.20629495122125,342.858567054252
738336.46287039539311081171,1.18167668691061,1.07089449751274,343.129367961669
738336.46287048584781587124,1.5632597837255,0.529292682678711,343.264768415377
738336.46287057618610560894,1.85867895545315,0.320037436038291,343.400168869086
738336.46287066664081066847,1.53864151941486,0.369273964659566,343.301695811843
738336.46287075709551572800,0.898566647338277,0.566220079144668,343.030894904426
738336.46287084755022078753,0.824711854406364,0.578529211299987,342.883185318562
738336.46287093788851052523,1.08320362966806,0.87394838302764,342.957040111494
738336.46287102834321558475,1.02165796889147,0.886257515182958,342.944730979339
738336.46287111879792064428,0.898566647338277,0.812402722251045,342.96934924365
738336.46287120913621038198,0.960112308114872,0.910875779493596,342.957040111494
738336.46287129959091544151,1.07089449751274,1.02165796889147,342.96934924365
738336.46287139004562050104,0.972421440270191,0.935494043804234,342.99396750796
738336.46287148050032556057,1.03396710104678,1.00934883673615,342.957040111494
738336.46287157083861529827,0.935494043804234,0.910875779493596,342.957040111494
738336.46287166129332035780,0.898566647338277,0.861639250872321,342.920112715028
738336.46287175174802541733,0.997039704580828,0.960112308114872,342.957040111494
738336.46287184220273047686,0.898566647338277,0.861639250872321,342.932421847184
738336.46287193254102021456,0.87394838302764,0.837020986561683,343.006276640116
738336.46287202299572527409,0.861639250872321,0.837020986561683,343.030894904426
738336.46287211345043033361,0.984730572425509,0.935494043804234,343.030894904426
738336.46287220390513539314,1.07089449751274,1.02165796889147,343.055513168737
738336.46287229424342513084,1.0462762332021,0.984730572425509,343.043204036582
738336.46287238469813019037,1.05858536535742,0.997039704580828,342.957040111494
738336.46287247515283524990,0.997039704580828,0.935494043804234,342.821639657786
738336.46287256560754030943,0.923184911648915,0.837020986561683,342.957040111494
738336.46287265594583004713,0.886257515182958,0.812402722251045,343.018585772271
738336.46287274640053510666,0.898566647338277,0.812402722251045,343.043204036582
738336.46287283685524016619,0.935494043804234,0.849330118717002,343.104749697358
738336.46287292719352990389,1.14474929044465,1.03396710104678,343.080131433047
738336.46287301764823496342,1.21860408337657,1.1078218939787,342.99396750796
738336.46287310810294002295,1.12013102613402,0.997039704580828,343.080131433047
738336.46287319855764508247,1.19398581906593,1.03396710104678,343.092440565203
738336.46287328889593482018,1.0462762332021,0.886257515182958,343.055513168737
738336.46287337935063987970,1.03396710104678,0.849330118717002,343.117058829513
738336.46287346980534493923,1.13244015828934,0.923184911648915,343.129367961669
738336.46287356026004999876,1.20629495122125,0.972421440270191,343.141677093824
738336.46287365059833973646,1.24322234768721,0.972421440270191,343.117058829513
738336.46287374105304479599,1.3047680084638,0.997039704580828,343.153986225979
738336.46287383150774985552,1.41555019786167,1.08320362966806,343.17860449029
738336.46287392196245491505,1.35400453708508,1.00934883673615,343.104749697358
738336.46287401230074465275,1.39093193355103,1.02165796889147,343.190913622445
738336.46287410275544971228,1.34169540492976,0.960112308114872,343.166295358135
738336.46287419321015477180,1.42785933001699,1.07089449751274,343.129367961669
738336.46287428354844450951,1.24322234768721,0.910875779493596,343.117058829513
738336.46287437400314956903,1.12013102613402,0.837020986561683,343.092440565203
738336.46287446445785462856,1.07089449751274,0.849330118717002,342.96934924365
738336.46287455491255968809,1.1078218939787,0.886257515182958,342.981658375805
738336.46287464525084942579,1.09551276182338,0.898566647338277,342.957040111494
738336.46287473570555448532,0.960112308114872,0.787784457940408,342.957040111494
738336.46287482616025954485,1.0462762332021,0.898566647338277,342.932421847184
738336.46287491661496460438,1.08320362966806,0.947803175959553,342.895494450718
738336.46287500695325434208,0.984730572425509,0.849330118717002,342.944730979339
738336.46287509740795940161,0.960112308114872,0.824711854406364,342.981658375805
738336.46287518786266446114,1.00934883673615,0.87394838302764,342.981658375805
738336.46287527831736952066,0.960112308114872,0.837020986561683,342.907803582873
738336.46287536865565925837,0.886257515182958,0.76316619362977,342.99396750796
738336.46287545911036431789,0.910875779493596,0.800093590095726,342.99396750796
738336.46287554956506937742,0.960112308114872,0.837020986561683,342.895494450718
738336.46287564001977443695,0.960112308114872,0.837020986561683,342.981658375805
738336.46287573035806417465,1.00934883673615,0.886257515182958,342.99396750796
738336.46287582081276923418,1.00934883673615,0.910875779493596,342.907803582873
738336.46287591126747429371,0.960112308114872,0.837020986561683,342.96934924365
738336.46287600160576403141,1.09551276182338,0.984730572425509,342.78471226132
738336.46287609206046909094,1.05858536535742,0.935494043804234,342.723166600543
738336.46287618251517415047,0.984730572425509,0.87394838302764,342.932421847184
738336.46287627296987921000,0.898566647338277,0.76316619362977,342.932421847184
738336.46287636330816894770,0.837020986561683,0.713929665008494,342.944730979339
738336.46287645376287400723,0.861639250872321,0.738547929319132,342.96934924365
738336.46287654421757906675,0.947803175959553,0.824711854406364,343.018585772271
738336.46287663467228412628,0.910875779493596,0.812402722251045,342.99396750796
738336.46287672501057386398,0.923184911648915,0.812402722251045,342.920112715028
738336.46287681546527892351,0.997039704580828,0.886257515182958,342.96934924365
738336.46287690591998398304,1.05858536535742,0.935494043804234,342.99396750796
738336.46287699637468904257,0.972421440270191,0.861639250872321,343.006276640116
738336.46287708671297878027,0.960112308114872,0.849330118717002,342.957040111494
738336.46287717716768383980,0.984730572425509,0.861639250872321,343.018585772271
738336.46287726762238889933,1.02165796889147,0.910875779493596,343.006276640116
738336.46287735796067863703,1.00934883673615,0.898566647338277,342.981658375805
738336.46287744841538369656,0.886257515182958,0.775475325785089,342.944730979339
738336.46287753887008875608,0.87394838302764,0.76316619362977,342.957040111494
738336.46287762932479381561,0.923184911648915,0.812402722251045,342.981658375805
738336.46287771966308355331,0.935494043804234,0.837020986561683,342.920112715028
738336.46287781011778861284,0.947803175959553,0.837020986561683,342.846257922096
738336.46287790057249367237,0.972421440270191,0.886257515182958,342.907803582873
738336.46287799102719873190,1.0462762332021,0.960112308114872,342.932421847184
738336.46287808136548846960,0.935494043804234,0.861639250872321,342.895494450718
738336.46287817182019352913,0.824711854406364,0.750857061474451,342.895494450718
738336.46287826227489858866,0.812402722251045,0.738547929319132,342.932421847184
738336.46287835272960364819,0.886257515182958,0.800093590095726,342.907803582873
738336.46287844306789338589,1.1078218939787,1.03396710104678,342.957040111494
738336.46287853352259844542,1.05858536535742,0.984730572425509,342.944730979339
738336.46287862397730350494,0.800093590095726,0.726238797163813,342.944730979339
738336.46287871431559324265,0.800093590095726,0.726238797163813,342.920112715028
738336.46287880477029830217,0.824711854406364,0.750857061474451,342.920112715028
738336.46287889522500336170,0.972421440270191,0.898566647338277,342.932421847184
738336.46287898567970842123,1.05858536535742,0.984730572425509,342.858567054252
738336.46287907601799815893,0.849330118717002,0.775475325785089,342.870876186407
738336.46287916647270321846,0.812402722251045,0.738547929319132,342.883185318562
738336.46287925692740827799,0.849330118717002,0.787784457940408,342.895494450718
738336.46287934738211333752,0.910875779493596,0.861639250872321,342.883185318562
738336.46287943772040307522,1.13244015828934,1.08320362966806,342.870876186407
738336.46287952817510813475,1.1078218939787,1.0462762332021,342.723166600543
738336.46287961862981319427,0.775475325785089,0.713929665008494,342.821639657786
738336.46287970908451825380,0.738547929319132,0.677002268542538,342.932421847184
738336.46287979942280799150,0.837020986561683,0.775475325785089,342.944730979339
738336.46287988987751305103,1.03396710104678,0.984730572425509,342.944730979339
738336.46287998033221811056,0.947803175959553,0.898566647338277,342.920112715028
738336.46288007078692317009,0.800093590095726,0.738547929319132,342.944730979339
738336.46288016112521290779,0.800093590095726,0.738547929319132,342.944730979339
738336.46288025157991796732,0.861639250872321,0.824711854406364,342.883185318562
738336.46288034203462302685,0.984730572425509,0.947803175959553,342.981658375805
738336.46288043237291276455,1.00934883673615,0.960112308114872,342.797021393475
738336.46288052282761782408,0.849330118717002,0.800093590095726,342.944730979339
738336.46288061328232288361,0.800093590095726,0.76316619362977,342.957040111494
738336.46288070373702794313,0.886257515182958,0.837020986561683,342.846257922096
738336.46288079407531768084,0.923184911648915,0.87394838302764,342.957040111494
738336.46288088453002274036,0.923184911648915,0.87394838302764,342.981658375805
738336.46288097498472779989,0.837020986561683,0.800093590095726,342.981658375805
738336.46288106543943285942,0.910875779493596,0.87394838302764,342.920112715028
738336.46288115577772259712,0.849330118717002,0.787784457940408,342.96934924365
738336.46288124623242765665,0.886257515182958,0.837020986561683,343.006276640116
738336.46288133668713271618,0.960112308114872,0.923184911648915,342.99396750796
738336.46288142714183777571,0.960112308114872,0.923184911648915,342.96934924365
738336.46288151748012751341,0.824711854406364,0.775475325785089,342.99396750796
738336.46288160793483257294,0.87394838302764,0.849330118717002,342.907803582873
738336.46288169838953763247,0.87394838302764,0.837020986561683,342.895494450718
738336.46288178872782737017,0.824711854406364,0.800093590095726,342.895494450718
738336.46288187918253242970,0.861639250872321,0.824711854406364,342.932421847184
738336.46288196963723748922,0.898566647338277,0.861639250872321,342.920112715028
738336.46288206009194254875,0.87394838302764,0.824711854406364,342.895494450718
