time_dn,ecg_projection_ll_ra_mV,ecg_projection_la_ra_mV,ecg_projection_vx_rl_mV
738336.40624603291507810354,-1.90791548407442,-4.34512365082756,344.249498987803
738336.40624612336978316307,-1.92022461622974,-4.34512365082756,344.274117252113
738336.40624621370807290077,-1.92022461622974,-4.33281451867224,344.286426384269
738336.40624630416277796030,-1.93253374838506,-4.34512365082756,344.200262459181
738336.40624639461748301983,-1.92022461622974,-4.34512365082756,344.298735516424
738336.40624648507218807936,-1.92022461622974,-4.33281451867224,344.286426384269
738336.40624657552689313889,-1.93253374838506,-4.34512365082756,344.200262459181
738336.40624666598159819841,-1.92022461622974,-4.33281451867224,344.261808119958
738336.40624675631988793612,-1.92022461622974,-4.34512365082756,344.261808119958
738336.40624684677459299564,-1.92022461622974,-4.33281451867224,344.298735516424
738336.40624693722929805517,-1.92022461622974,-4.29588712220628,344.261808119958
738336.40624702768400311470,-1.89560635191911,-4.12355927203182,344.298735516424
738336.40624711813870817423,-1.82175155898719,-4.04970447909991,344.421826837977
738336.40624720859341323376,-1.53864151941486,-4.35743278298288,344.52029989522
738336.40624729904811829329,-1.16936755475529,-4.80056154057436,344.557227291686
738336.40624738938640803099,-1.08320362966806,-4.92365286212755,344.643391216773
738336.40624747984111309052,-1.47709585863826,-4.65285195471053,344.557227291686
738336.40624757029581815004,-1.90791548407442,-4.5666880296233,344.15102593056
738336.40624766075052320957,-1.83406069114251,-4.45590584022543,344.274117252113
738336.40624775120522826910,-1.82175155898719,-4.3697419151382,344.261808119958
738336.40624784165993332863,-1.84636982329783,-4.34512365082756,344.212571591337
738336.40624793199822306633,-1.85867895545315,-4.34512365082756,344.237189855647
738336.40624802245292812586,-1.85867895545315,-4.32050538651692,344.224880723492
738336.40624811290763318539,-1.87098808760847,-4.32050538651692,344.101789401939
738336.40624820336233824492,-1.85867895545315,-4.32050538651692,344.138716798405
738336.40624829381704330444,-1.85867895545315,-4.32050538651692,344.249498987803
738336.40624838427174836397,-1.85867895545315,-4.3081962543616,344.212571591337
738336.40624847461003810167,-1.85867895545315,-4.32050538651692,344.237189855647
738336.40624856506474316120,-1.85867895545315,-4.32050538651692,344.298735516424
738336.40624865551944822073,-1.84636982329783,-4.3081962543616,344.224880723492
738336.40624874597415328026,-1.84636982329783,-4.3081962543616,344.261808119958
738336.40624883642885833979,-1.83406069114251,-4.32050538651692,344.274117252113
738336.40624892688356339931,-1.83406069114251,-4.32050538651692,344.274117252113
738336.40624901733826845884,-1.83406069114251,-4.3081962543616,344.274117252113
738336.40624910767655819654,-1.82175155898719,-4.3081962543616,344.249498987803
738336.40624919813126325607,-1.80944242683187,-4.3081962543616,344.249498987803
738336.40624928858596831560,-1.80944242683187,-4.3081962543616,344.298735516424
738336.40624937904067337513,-1.79713329467655,-4.29588712220628,344.261808119958
738336.40624946949537843466,-1.77251503036592,-4.29588712220628,344.33566291289
738336.40624955995008349419,-1.7602058982106,-4.27126885789565,344.347972045045
738336.40624965028837323189,-1.73558763389996,-4.27126885789565,344.249498987803
738336.40624974074307829142,-1.72327850174464,-4.25895972574033,344.323353780735
738336.40624983119778335094,-1.698660237434,-4.24665059358501,344.286426384269
738336.40624992165248841047,-1.66173284096805,-4.23434146142969,344.33566291289
738336.40625001210719347000,-1.63711457665741,-4.23434146142969,344.372590309356
738336.40625010256189852953,-1.61249631234677,-4.22203232927437,344.347972045045
738336.40625019301660358906,-1.58787804803613,-4.22203232927437,344.434135970133
738336.40625028335489332676,-1.5632597837255,-4.22203232927437,344.446445102288
738336.40625037380959838629,-1.53864151941486,-4.22203232927437,344.446445102288
738336.40625046426430344582,-1.52633238725954,-4.22203232927437,344.384899441511
738336.40625055471900850534,-1.53864151941486,-4.23434146142969,344.372590309356
738336.40625064517371356487,-1.5632597837255,-4.24665059358501,344.33566291289
738336.40625073562841862440,-1.60018718019145,-4.27126885789565,344.261808119958
738336.40625082596670836210,-1.63711457665741,-4.28357799005097,344.261808119958
738336.40625091642141342163,-1.68635110527868,-4.29588712220628,344.249498987803
738336.40625100687611848116,-1.72327850174464,-4.3081962543616,344.261808119958
738336.40625109733082354069,-1.77251503036592,-4.33281451867224,344.187953327026
738336.40625118778552860022,-1.79713329467655,-4.33281451867224,344.261808119958
738336.40625127824023365974,-1.82175155898719,-4.35743278298288,344.311044648579
738336.40625136857852339745,-1.84636982329783,-4.34512365082756,344.187953327026
738336.40625145903322845697,-1.84636982329783,-4.34512365082756,344.261808119958
738336.40625154948793351650,-1.85867895545315,-4.35743278298288,344.249498987803
738336.40625163994263857603,-1.85867895545315,-4.3697419151382,344.200262459181
738336.40625173039734363556,-1.85867895545315,-4.35743278298288,344.077171137628
738336.40625182085204869509,-1.87098808760847,-4.35743278298288,344.237189855647
738336.40625191130675375462,-1.85867895545315,-4.35743278298288,344.249498987803
738336.40625200164504349232,-1.87098808760847,-4.35743278298288,344.200262459181
738336.40625209209974855185,-1.85867895545315,-4.35743278298288,344.212571591337
738336.40625218255445361137,-1.87098808760847,-4.35743278298288,344.224880723492
738336.40625227300915867090,-1.87098808760847,-4.35743278298288,344.175644194871
738336.40625236346386373043,-1.87098808760847,-4.3697419151382,344.187953327026
738336.40625245391856878996,-1.85867895545315,-4.34512365082756,344.175644194871
738336.40625254425685852766,-1.87098808760847,-4.3697419151382,344.187953327026
738336.40625263471156358719,-1.87098808760847,-4.35743278298288,344.212571591337
738336.40625272516626864672,-1.85867895545315,-4.35743278298288,344.163335062716
738336.40625281562097370625,-1.85867895545315,-4.35743278298288,344.200262459181
738336.40625290607567876577,-1.85867895545315,-4.35743278298288,344.175644194871
738336.40625299653038382530,-1.85867895545315,-4.3697419151382,344.138716798405
738336.40625308698508888483,-1.85867895545315,-4.3697419151382,344.187953327026
738336.40625317732337862253,-1.85867895545315,-4.35743278298288,344.175644194871
738336.40625326777808368206,-1.85867895545315,-4.3697419151382,344.200262459181
738336.40625335823278874159,-1.85867895545315,-4.3697419151382,344.224880723492
738336.40625344868749380112,-1.85867895545315,-4.35743278298288,344.187953327026
738336.40625353914219886065,-1.85867895545315,-4.3697419151382,344.187953327026
738336.40625362959690392017,-1.85867895545315,-4.35743278298288,344.212571591337
738336.40625371993519365788,-1.85867895545315,-4.35743278298288,344.187953327026
738336.40625381038989871740,-1.85867895545315,-4.35743278298288,344.237189855647
738336.40625390084460377693,-1.87098808760847,-4.35743278298288,344.200262459181
738336.40625399129930883646,-1.87098808760847,-4.35743278298288,344.138716798405
738336.40625408175401389599,-1.87098808760847,-4.35743278298288,344.212571591337
738336.40625417220871895552,-1.88329721976379,-4.35743278298288,344.212571591337
738336.40625426254700869322,-1.88329721976379,-4.35743278298288,344.224880723492
738336.40625435300171375275,-1.88329721976379,-4.35743278298288,344.187953327026
738336.40625444345641881227,-1.88329721976379,-4.35743278298288,344.212571591337
738336.40625453391112387180,-1.88329721976379,-4.35743278298288,344.187953327026
738336.40625462436582893133,-1.88329721976379,-4.35743278298288,344.224880723492
738336.40625471482053399086,-1.88329721976379,-4.35743278298288,344.261808119958
738336.40625480527523905039,-1.89560635191911,-4.35743278298288,344.200262459181
738336.40625489561352878809,-1.89560635191911,-4.35743278298288,344.249498987803
738336.40625498606823384762,-1.89560635191911,-4.35743278298288,344.286426384269
738336.40625507652293890715,-1.89560635191911,-4.35743278298288,344.274117252113
738336.40625516697764396667,-1.89560635191911,-4.35743278298288,344.175644194871
738336.40625525743234902620,-1.89560635191911,-4.3697419151382,344.138716798405
738336.40625534788705408573,-1.89560635191911,-4.34512365082756,344.274117252113
738336.40625543822534382343,-1.90791548407442,-4.35743278298288,344.187953327026
738336.40625552868004888296,-1.89560635191911,-4.35743278298288,344.261808119958
738336.40625561913475394249,-1.90791548407442,-4.3697419151382,344.237189855647
738336.40625570958945900202,-1.89560635191911,-4.35743278298288,344.15102593056
738336.40625580004416406155,-1.89560635191911,-4.35743278298288,344.224880723492
738336.40625589049886912107,-1.88329721976379,-4.35743278298288,344.12640766625
738336.40625598095357418060,-1.87098808760847,-4.38205104729352,344.114098534094
738336.40625607129186391830,-1.85867895545315,-4.39436017944884,344.114098534094
738336.40625616174656897783,-1.84636982329783,-4.43128757591479,344.101789401939
738336.40625625220127403736,-1.83406069114251,-4.44359670807011,344.101789401939
738336.40625634265597909689,-1.80944242683187,-4.39436017944884,344.12640766625
738336.40625643311068415642,-1.83406069114251,-4.3697419151382,344.175644194871
738336.40625652356538921595,-1.85867895545315,-4.3697419151382,344.163335062716
738336.40625661390367895365,-1.88329721976379,-4.3697419151382,344.163335062716
738336.40625670435838401318,-1.89560635191911,-4.35743278298288,344.200262459181
738336.40625679481308907270,-1.89560635191911,-4.35743278298288,344.15102593056
738336.40625688526779413223,-1.90791548407442,-4.35743278298288,344.175644194871
738336.40625697572249919176,-1.92022461622974,-4.34512365082756,344.212571591337
738336.40625706617720425129,-1.92022461622974,-4.34512365082756,344.187953327026
738336.40625715651549398899,-1.92022461622974,-4.35743278298288,344.212571591337
738336.40625724697019904852,-1.93253374838506,-4.35743278298288,344.200262459181
738336.40625733742490410805,-1.92022461622974,-4.34512365082756,344.224880723492
738336.40625742787960916758,-1.93253374838506,-4.34512365082756,344.249498987803
738336.40625751833431422710,-1.92022461622974,-4.34512365082756,344.187953327026
738336.40625760878901928663,-1.92022461622974,-4.35743278298288,344.274117252113
738336.40625769924372434616,-1.92022461622974,-4.34512365082756,344.261808119958
738336.40625778958201408386,-1.92022461622974,-4.25895972574033,344.15102593056
738336.40625788003671914339,-1.84636982329783,-4.08663187556586,344.249498987803
738336.40625797049142420292,-1.60018718019145,-4.27126885789565,344.421826837977
738336.40625806094612926245,-1.23091321553189,-4.7636341441084,344.471063366599
738336.40625815140083432198,-1.05858536535742,-4.92365286212755,344.581845555996
738336.40625824185553938150,-1.37862280139571,-4.71439761548713,344.557227291686
738336.40625833219382911921,-1.64942370881273,-4.60361542608926,344.446445102288
738336.40625842264853417873,-1.90791548407442,-4.5666880296233,344.114098534094
738336.40625851310323923826,-1.82175155898719,-4.41897844375947,344.249498987803
738336.40625860355794429779,-1.82175155898719,-4.35743278298288,344.261808119958
738336.40625869401264935732,-1.84636982329783,-4.34512365082756,344.200262459181
738336.40625878446735441685,-1.85867895545315,-4.34512365082756,344.015625476852
738336.40625887492205947638,-1.85867895545315,-4.33281451867224,344.200262459181
738336.40625896526034921408,-1.85867895545315,-4.32050538651692,344.237189855647
738336.40625905571505427361,-1.85867895545315,-4.32050538651692,344.237189855647
738336.40625914616975933313,-1.85867895545315,-4.32050538651692,344.163335062716
738336.40625923662446439266,-1.84636982329783,-4.32050538651692,344.261808119958
738336.40625932707916945219,-1.84636982329783,-4.32050538651692,344.187953327026
738336.40625941753387451172,-1.84636982329783,-4.3081962543616,344.12640766625
738336.40625950787216424942,-1.84636982329783,-4.32050538651692,344.175644194871
738336.40625959832686930895,-1.83406069114251,-4.3081962543616,344.175644194871
738336.40625968878157436848,-1.83406069114251,-4.32050538651692,344.163335062716
738336.40625977923627942801,-1.82175155898719,-4.29588712220628,344.212571591337
738336.40625986969098448753,-1.82175155898719,-4.3081962543616,344.249498987803
738336.40625996014568954706,-1.80944242683187,-4.3081962543616,344.274117252113
738336.40626005048397928476,-1.80944242683187,-4.29588712220628,344.237189855647
738336.40626014093868434429,-1.78482416252124,-4.28357799005097,344.224880723492
738336.40626023139338940382,-1.78482416252124,-4.28357799005097,344.187953327026
738336.40626032184809446335,-1.77251503036592,-4.28357799005097,344.224880723492
738336.40626041230279952288,-1.74789676605528,-4.27126885789565,344.224880723492
738336.40626050275750458241,-1.73558763389996,-4.27126885789565,344.200262459181
738336.40626059321220964193,-1.71096936958932,-4.25895972574033,344.274117252113
738336.40626068355049937963,-1.67404197312337,-4.24665059358501,344.311044648579
738336.40626077400520443916,-1.64942370881273,-4.22203232927437,344.286426384269
738336.40626086445990949869,-1.62480544450209,-4.22203232927437,344.33566291289
738336.40626095491461455822,-1.60018718019145,-4.22203232927437,344.347972045045
738336.40626104536931961775,-1.57556891588082,-4.20972319711905,344.33566291289
738336.40626113582402467728,-1.55095065157018,-4.19741406496373,344.347972045045
738336.40626122616231441498,-1.53864151941486,-4.20972319711905,344.372590309356
738336.40626131661701947451,-1.51402325510422,-4.22203232927437,344.434135970133
738336.40626140707172453403,-1.53864151941486,-4.23434146142969,344.409517705822
738336.40626149752642959356,-1.58787804803613,-4.24665059358501,344.33566291289
738336.40626158798113465309,-1.63711457665741,-4.27126885789565,344.311044648579
738336.40626167843583971262,-1.68635110527868,-4.28357799005097,344.298735516424
738336.40626176889054477215,-1.73558763389996,-4.32050538651692,344.187953327026
738336.40626185922883450985,-1.77251503036592,-4.33281451867224,344.175644194871
738336.40626194968353956938,-1.80944242683187,-4.33281451867224,344.212571591337
738336.40626204013824462891,-1.83406069114251,-4.34512365082756,344.249498987803
738336.40626213059294968843,-1.84636982329783,-4.34512365082756,344.15102593056
738336.40626222104765474796,-1.85867895545315,-4.34512365082756,344.163335062716
738336.40626231150235980749,-1.87098808760847,-4.34512365082756,344.015625476852
738336.40626240184064954519,-1.88329721976379,-4.35743278298288,344.237189855647
738336.40626249229535460472,-1.88329721976379,-4.34512365082756,344.212571591337
738336.40626258275005966425,-1.88329721976379,-4.34512365082756,344.212571591337
738336.40626267320476472378,-1.88329721976379,-4.34512365082756,344.212571591337
738336.40626276365946978331,-1.89560635191911,-4.34512365082756,344.224880723492
738336.40626285411417484283,-1.89560635191911,-4.34512365082756,344.224880723492
738336.40626294445246458054,-1.90791548407442,-4.34512365082756,344.200262459181
738336.40626303490716964006,-1.89560635191911,-4.34512365082756,344.224880723492
738336.40626312536187469959,-1.89560635191911,-4.34512365082756,344.212571591337
738336.40626321581657975912,-1.89560635191911,-4.34512365082756,344.175644194871
738336.40626330627128481865,-1.89560635191911,-4.34512365082756,344.224880723492
738336.40626339672598987818,-1.89560635191911,-4.34512365082756,344.224880723492
738336.40626348718069493771,-1.90791548407442,-4.35743278298288,344.200262459181
738336.40626357751898467541,-1.89560635191911,-4.34512365082756,344.200262459181
738336.40626366797368973494,-1.89560635191911,-4.34512365082756,344.237189855647
738336.40626375842839479446,-1.89560635191911,-4.34512365082756,344.274117252113
738336.40626384888309985399,-1.89560635191911,-4.34512365082756,344.138716798405
738336.40626393933780491352,-1.90791548407442,-4.35743278298288,344.224880723492
738336.40626402979250997305,-1.90791548407442,-4.34512365082756,344.237189855647
738336.40626412013079971075,-1.90791548407442,-4.34512365082756,344.249498987803
738336.40626421058550477028,-1.90791548407442,-4.34512365082756,344.138716798405
738336.40626430104020982981,-1.89560635191911,-4.34512365082756,344.224880723492
738336.40626439149491488934,-1.92022461622974,-4.33281451867224,344.249498987803
738336.40626448194961994886,-1.92022461622974,-4.34512365082756,344.187953327026
738336.40626457240432500839,-1.92022461622974,-4.34512365082756,344.224880723492
738336.40626466285903006792,-1.92022461622974,-4.34512365082756,344.200262459181
738336.40626475319731980562,-1.93253374838506,-4.34512365082756,344.15102593056
738336.40626484365202486515,-1.92022461622974,-4.34512365082756,344.138716798405
738336.40626493410672992468,-1.92022461622974,-4.34512365082756,344.138716798405
738336.40626502456143498421,-1.93253374838506,-4.33281451867224,344.138716798405
738336.40626511501614004374,-1.93253374838506,-4.34512365082756,344.114098534094
738336.40626520547084510326,-1.93253374838506,-4.33281451867224,344.12640766625
738336.40626529580913484097,-1.94484288054038,-4.34512365082756,344.089480269784
738336.40626538626383990049,-1.94484288054038,-4.34512365082756,344.200262459181
738336.40626547671854496002,-1.94484288054038,-4.33281451867224,344.15102593056
738336.40626556717325001955,-1.9571520126957,-4.34512365082756,344.138716798405
738336.40626565762795507908,-1.9571520126957,-4.34512365082756,344.175644194871
738336.40626574808266013861,-1.9571520126957,-4.33281451867224,343.954079816075
738336.40626583842094987631,-1.94484288054038,-4.33281451867224,344.027934609007
738336.40626592887565493584,-1.94484288054038,-4.33281451867224,344.12640766625
738336.40626601933035999537,-1.9571520126957,-4.33281451867224,344.187953327026
738336.40626610978506505489,-1.9571520126957,-4.33281451867224,344.175644194871
738336.40626620023977011442,-1.9571520126957,-4.33281451867224,344.237189855647
738336.40626629069447517395,-1.9571520126957,-4.33281451867224,344.249498987803
738336.40626638114918023348,-1.9571520126957,-4.33281451867224,344.175644194871
738336.40626647148746997118,-1.96946114485102,-4.33281451867224,344.15102593056
738336.40626656194217503071,-1.96946114485102,-4.33281451867224,344.187953327026
738336.40626665239688009024,-1.96946114485102,-4.34512365082756,344.249498987803
738336.40626674285158514977,-1.96946114485102,-4.33281451867224,344.224880723492
738336.40626683330629020929,-1.98177027700634,-4.33281451867224,344.138716798405
738336.40626692376099526882,-1.98177027700634,-4.33281451867224,344.163335062716
738336.40626701409928500652,-1.98177027700634,-4.34512365082756,344.187953327026
738336.40626710455399006605,-1.98177027700634,-4.33281451867224,344.175644194871
738336.40626719500869512558,-1.96946114485102,-4.33281451867224,344.200262459181
738336.40626728546340018511,-1.98177027700634,-4.33281451867224,344.175644194871
738336.40626737591810524464,-1.99407940916166,-4.33281451867224,344.237189855647
738336.40626746637281030416,-1.99407940916166,-4.34512365082756,344.224880723492
738336.40626755682751536369,-1.96946114485102,-4.33281451867224,344.237189855647
738336.40626764716580510139,-1.96946114485102,-4.32050538651692,344.200262459181
738336.40626773762051016092,-1.96946114485102,-4.34512365082756,344.212571591337
738336.40626782807521522045,-1.9571520126957,-4.35743278298288,344.261808119958
738336.40626791852992027998,-1.96946114485102,-4.35743278298288,344.249498987803
738336.40626800898462533951,-1.94484288054038,-4.40666931160415,344.200262459181
738336.40626809943933039904,-1.92022461622974,-4.41897844375947,344.261808119958
738336.40626818977762013674,-1.92022461622974,-4.3697419151382,344.286426384269
738336.40626828023232519627,-1.9571520126957,-4.34512365082756,344.237189855647
738336.40626837068703025579,-1.98177027700634,-4.34512365082756,344.224880723492
738336.40626846114173531532,-1.99407940916166,-4.34512365082756,344.224880723492
738336.40626855159644037485,-2.00638854131698,-4.34512365082756,344.224880723492
738336.40626864205114543438,-2.01869767347229,-4.33281451867224,344.212571591337
738336.40626873238943517208,-2.03100680562761,-4.32050538651692,344.237189855647
738336.40626882284414023161,-2.04331593778293,-4.32050538651692,344.249498987803
738336.40626891329884529114,-2.03100680562761,-4.32050538651692,344.187953327026
738336.40626900375355035067,-2.03100680562761,-4.32050538651692,344.163335062716
738336.40626909420825541019,-2.04331593778293,-4.32050538651692,344.138716798405
738336.40626918466296046972,-2.03100680562761,-4.33281451867224,344.249498987803
738336.40626927511766552925,-2.05562506993825,-4.32050538651692,344.052552873318
738336.40626936545595526695,-2.04331593778293,-4.32050538651692,344.15102593056
738336.40626945591066032648,-2.03100680562761,-4.32050538651692,344.224880723492
738336.40626954636536538601,-2.04331593778293,-4.25895972574033,344.237189855647
738336.40626963682007044554,-2.05562506993825,-4.18510493280842,344.286426384269
738336.40626972727477550507,-1.93253374838506,-4.04970447909991,344.33566291289
738336.40626981772948056459,-1.61249631234677,-4.39436017944884,344.471063366599
738336.40626990806777030230,-1.26784061199784,-4.825179804885,344.483372498754
738336.40626999852247536182,-1.20629495122125,-4.98519852290414,344.434135970133
738336.40627008897718042135,-1.67404197312337,-4.66516108686585,344.311044648579
738336.40627017943188548088,-2.04331593778293,-4.54206976531266,344.064862005473
738336.40627026988659054041,-1.96946114485102,-4.43128757591479,344.163335062716
738336.40627036034129559994,-1.9571520126957,-4.35743278298288,344.15102593056
738336.40627045079600065947,-1.98177027700634,-4.33281451867224,344.163335062716
738336.40627054113429039717,-2.00638854131698,-4.33281451867224,344.187953327026
738336.40627063158899545670,-2.00638854131698,-4.3081962543616,344.163335062716
738336.40627072204370051622,-2.00638854131698,-4.3081962543616,344.237189855647
738336.40627081249840557575,-2.00638854131698,-4.3081962543616,344.187953327026
738336.40627090295311063528,-2.01869767347229,-4.3081962543616,344.212571591337
738336.40627099340781569481,-2.00638854131698,-4.3081962543616,344.212571591337
738336.40627108374610543251,-2.00638854131698,-4.3081962543616,344.237189855647
738336.40627117420081049204,-2.00638854131698,-4.29588712220628,344.200262459181
738336.40627126465551555157,-2.00638854131698,-4.29588712220628,344.200262459181
738336.40627135511022061110,-2.00638854131698,-4.29588712220628,344.237189855647
738336.40627144556492567062,-1.99407940916166,-4.29588712220628,344.249498987803
738336.40627153601963073015,-1.99407940916166,-4.29588712220628,344.224880723492
738336.40627162635792046785,-1.98177027700634,-4.29588712220628,344.286426384269
738336.40627171681262552738,-1.98177027700634,-4.29588712220628,344.298735516424
738336.40627180726733058691,-1.98177027700634,-4.28357799005097,344.311044648579
738336.40627189772203564644,-1.9571520126957,-4.28357799005097,344.274117252113
738336.40627198817674070597,-1.9571520126957,-4.28357799005097,344.33566291289
738336.40627207863144576550,-1.94484288054038,-4.28357799005097,344.323353780735
738336.40627216908615082502,-1.93253374838506,-4.27126885789565,344.274117252113
738336.40627225942444056273,-1.90791548407442,-4.25895972574033,344.323353780735
738336.40627234987914562225,-1.89560635191911,-4.24665059358501,344.384899441511
738336.40627244033385068178,-1.87098808760847,-4.23434146142969,344.360281177201
738336.40627253078855574131,-1.85867895545315,-4.23434146142969,344.360281177201
738336.40627262124326080084,-1.82175155898719,-4.22203232927437,344.397208573667
738336.40627271169796586037,-1.79713329467655,-4.20972319711905,344.421826837977
738336.40627280203625559807,-1.77251503036592,-4.19741406496373,344.249498987803
738336.40627289249096065760,-1.74789676605528,-4.19741406496373,344.212571591337
738336.40627298294566571712,-1.74789676605528,-4.20972319711905,344.446445102288
738336.40627307340037077665,-1.72327850174464,-4.20972319711905,344.434135970133
738336.40627316385507583618,-1.72327850174464,-4.22203232927437,344.360281177201
738336.40627325430978089571,-1.74789676605528,-4.22203232927437,344.33566291289
738336.40627334464807063341,-1.80944242683187,-4.25895972574033,344.323353780735
738336.40627343510277569294,-1.83406069114251,-4.27126885789565,344.286426384269
738336.40627352555748075247,-1.88329721976379,-4.28357799005097,344.286426384269
738336.40627361601218581200,-1.92022461622974,-4.29588712220628,344.286426384269
738336.40627370646689087152,-1.96946114485102,-4.3081962543616,344.261808119958
738336.40627379692159593105,-1.99407940916166,-4.32050538651692,344.237189855647
738336.40627388737630099058,-2.01869767347229,-4.33281451867224,344.187953327026
738336.40627397771459072828,-2.03100680562761,-4.33281451867224,344.15102593056
738336.40627406816929578781,-2.04331593778293,-4.33281451867224,344.12640766625
738336.40627415862400084734,-2.05562506993825,-4.33281451867224,344.12640766625
738336.40627424907870590687,-2.06793420209357,-4.34512365082756,344.163335062716
738336.40627433953341096640,-2.05562506993825,-4.34512365082756,344.12640766625
738336.40627442998811602592,-2.05562506993825,-4.34512365082756,344.138716798405
738336.40627452032640576363,-2.06793420209357,-4.34512365082756,344.101789401939
738336.40627461078111082315,-2.06793420209357,-4.33281451867224,344.12640766625
738336.40627470123581588268,-2.06793420209357,-4.34512365082756,344.187953327026
738336.40627479169052094221,-2.05562506993825,-4.33281451867224,344.212571591337
738336.40627488214522600174,-2.06793420209357,-4.33281451867224,344.101789401939
738336.40627497259993106127,-2.06793420209357,-4.34512365082756,344.249498987803
738336.40627506305463612080,-2.06793420209357,-4.34512365082756,344.237189855647
738336.40627515339292585850,-2.06793420209357,-4.34512365082756,344.212571591337
738336.40627524384763091803,-2.06793420209357,-4.34512365082756,344.138716798405
738336.40627533430233597755,-2.06793420209357,-4.34512365082756,344.224880723492
738336.40627542475704103708,-2.06793420209357,-4.34512365082756,344.224880723492
738336.40627551521174609661,-2.05562506993825,-4.34512365082756,344.200262459181
738336.40627560566645115614,-2.05562506993825,-4.34512365082756,344.212571591337
738336.40627569600474089384,-2.05562506993825,-4.34512365082756,344.249498987803
738336.40627578645944595337,-2.06793420209357,-4.34512365082756,344.224880723492
738336.40627587691415101290,-2.05562506993825,-4.34512365082756,344.200262459181
738336.40627596736885607243,-2.05562506993825,-4.34512365082756,344.274117252113
738336.40627605782356113195,-2.05562506993825,-4.34512365082756,344.274117252113
738336.40627614827826619148,-2.06793420209357,-4.33281451867224,344.15102593056
738336.40627623861655592918,-2.05562506993825,-4.34512365082756,344.249498987803
738336.40627632907126098871,-2.06793420209357,-4.34512365082756,344.101789401939
738336.40627641952596604824,-2.06793420209357,-4.34512365082756,344.077171137628
738336.40627650998067110777,-2.06793420209357,-4.33281451867224,344.237189855647
738336.40627660043537616730,-2.06793420209357,-4.33281451867224,344.274117252113
738336.40627669089008122683,-2.08024333424889,-4.33281451867224,344.224880723492
738336.40627678134478628635,-2.08024333424889,-4.33281451867224,344.212571591337
738336.40627687168307602406,-2.08024333424889,-4.34512365082756,344.237189855647
738336.40627696213778108358,-2.06793420209357,-4.33281451867224,344.224880723492
738336.40627705259248614311,-2.08024333424889,-4.33281451867224,344.200262459181
738336.40627714304719120264,-2.08024333424889,-4.34512365082756,344.224880723492
738336.40627723350189626217,-2.09255246640421,-4.33281451867224,344.224880723492
738336.40627732395660132170,-2.09255246640421,-4.33281451867224,344.261808119958
738336.40627741429489105940,-2.09255246640421,-4.33281451867224,344.163335062716
738336.40627750474959611893,-2.09255246640421,-4.33281451867224,344.237189855647
738336.40627759520430117846,-2.08024333424889,-4.33281451867224,344.224880723492
738336.40627768565900623798,-2.08024333424889,-4.33281451867224,344.15102593056
738336.40627777611371129751,-2.06793420209357,-4.34512365082756,344.212571591337
738336.40627786656841635704,-2.05562506993825,-4.34512365082756,344.261808119958
738336.40627795702312141657,-2.05562506993825,-4.35743278298288,344.15102593056
738336.40627804736141115427,-2.03100680562761,-4.40666931160415,344.175644194871
738336.40627813781611621380,-2.01869767347229,-4.40666931160415,344.224880723492
738336.40627822827082127333,-2.00638854131698,-4.3697419151382,344.212571591337
738336.40627831872552633286,-2.03100680562761,-4.34512365082756,344.175644194871
738336.40627840918023139238,-2.06793420209357,-4.34512365082756,344.237189855647
738336.40627849963493645191,-2.08024333424889,-4.34512365082756,344.15102593056
738336.40627858997322618961,-2.09255246640421,-4.33281451867224,344.175644194871
738336.40627868042793124914,-2.09255246640421,-4.33281451867224,344.200262459181
738336.40627877088263630867,-2.10486159855953,-4.33281451867224,344.212571591337
738336.40627886133734136820,-2.10486159855953,-4.32050538651692,344.138716798405
738336.40627895179204642773,-2.10486159855953,-4.32050538651692,344.187953327026
738336.40627904224675148726,-2.10486159855953,-4.32050538651692,344.261808119958
738336.40627913258504122496,-2.10486159855953,-4.32050538651692,344.200262459181
738336.40627922303974628448,-2.11717073071485,-4.32050538651692,344.052552873318
738336.40627931349445134401,-2.10486159855953,-4.33281451867224,344.200262459181
738336.40627940394915640354,-2.10486159855953,-4.32050538651692,344.200262459181
738336.40627949440386146307,-2.10486159855953,-4.33281451867224,344.200262459181
738336.40627958485856652260,-2.10486159855953,-4.32050538651692,344.15102593056
738336.40627967531327158213,-2.10486159855953,-4.25895972574033,344.212571591337
738336.40627976565156131983,-2.05562506993825,-4.09894100772118,344.274117252113
738336.40627985610626637936,-1.82175155898719,-4.18510493280842,344.298735516424
738336.40627994656097143888,-1.44016846217231,-4.68977935117649,344.298735516424
738336.40628003701567649841,-1.20629495122125,-4.94827112643818,344.458754234443
738336.40628012747038155794,-1.48940499079358,-4.78825240841904,344.434135970133
738336.40628021792508661747,-2.04331593778293,-4.54206976531266,344.175644194871
738336.40628030826337635517,-2.03100680562761,-4.46821497238075,344.163335062716
738336.40628039871808141470,-1.99407940916166,-4.3697419151382,344.224880723492
738336.40628048917278647423,-2.01869767347229,-4.34512365082756,344.212571591337
738336.40628057962749153376,-2.03100680562761,-4.32050538651692,344.224880723492
738336.40628067008219659328,-2.04331593778293,-4.32050538651692,344.187953327026
738336.40628076053690165281,-2.05562506993825,-4.3081962543616,344.224880723492
738336.40628085099160671234,-2.04331593778293,-4.3081962543616,344.224880723492
738336.40628094132989645004,-2.04331593778293,-4.3081962543616,344.212571591337
738336.40628103178460150957,-2.04331593778293,-4.3081962543616,344.200262459181
738336.40628112223930656910,-2.03100680562761,-4.3081962543616,344.212571591337
738336.40628121269401162863,-2.03100680562761,-4.29588712220628,344.224880723492
738336.40628130314871668816,-2.01869767347229,-4.3081962543616,344.212571591337
738336.40628139360342174768,-2.03100680562761,-4.3081962543616,344.200262459181
738336.40628148394171148539,-2.01869767347229,-4.29588712220628,344.224880723492
738336.40628157439641654491,-2.00638854131698,-4.29588712220628,344.15102593056
738336.40628166485112160444,-1.99407940916166,-4.29588712220628,344.212571591337
738336.40628175530582666397,-1.99407940916166,-4.29588712220628,344.224880723492
738336.40628184576053172350,-1.98177027700634,-4.29588712220628,344.224880723492
738336.40628193621523678303,-1.96946114485102,-4.28357799005097,344.175644194871
738336.40628202655352652073,-1.9571520126957,-4.28357799005097,344.200262459181
738336.40628211700823158026,-1.9571520126957,-4.28357799005097,344.237189855647
738336.40628220746293663979,-1.93253374838506,-4.27126885789565,344.200262459181
738336.40628229791764169931,-1.92022461622974,-4.25895972574033,344.249498987803
738336.40628238837234675884,-1.89560635191911,-4.25895972574033,344.261808119958
738336.40628247882705181837,-1.87098808760847,-4.24665059358501,344.261808119958
738336.40628256928175687790,-1.84636982329783,-4.23434146142969,344.274117252113
738336.40628265962004661560,-1.82175155898719,-4.22203232927437,344.372590309356
738336.40628275007475167513,-1.80944242683187,-4.22203232927437,344.384899441511
738336.40628284052945673466,-1.78482416252124,-4.20972319711905,344.33566291289
738336.40628293098416179419,-1.74789676605528,-4.19741406496373,344.347972045045
738336.40628302143886685371,-1.72327850174464,-4.19741406496373,344.33566291289
738336.40628311189357191324,-1.698660237434,-4.19741406496373,344.311044648579
738336.40628320223186165094,-1.698660237434,-4.19741406496373,344.298735516424
738336.40628329268656671047,-1.71096936958932,-4.22203232927437,344.286426384269
738336.40628338314127177000,-1.74789676605528,-4.23434146142969,344.187953327026
738336.40628347359597682953,-1.79713329467655,-4.27126885789565,344.101789401939
738336.40628356405068188906,-1.84636982329783,-4.28357799005097,344.224880723492
738336.40628365450538694859,-1.90791548407442,-4.28357799005097,344.175644194871
738336.40628374496009200811,-1.93253374838506,-4.3081962543616,344.187953327026
738336.40628383529838174582,-1.96946114485102,-4.3081962543616,344.15102593056
738336.40628392575308680534,-1.99407940916166,-4.32050538651692,344.12640766625
738336.40628401620779186487,-2.00638854131698,-4.32050538651692,344.138716798405
738336.40628410666249692440,-2.00638854131698,-4.32050538651692,344.187953327026
738336.40628419711720198393,-2.01869767347229,-4.33281451867224,344.163335062716
738336.40628428757190704346,-2.03100680562761,-4.32050538651692,344.200262459181
738336.40628437791019678116,-2.03100680562761,-4.32050538651692,344.187953327026
738336.40628446836490184069,-2.03100680562761,-4.32050538651692,344.237189855647
738336.40628455881960690022,-2.03100680562761,-4.32050538651692,344.200262459181
738336.40628464927431195974,-2.03100680562761,-4.33281451867224,344.212571591337
738336.40628473972901701927,-2.03100680562761,-4.32050538651692,344.249498987803
738336.40628483018372207880,-2.03100680562761,-4.32050538651692,344.224880723492
738336.40628492052201181650,-2.03100680562761,-4.32050538651692,344.175644194871
738336.40628501097671687603,-2.03100680562761,-4.32050538651692,344.212571591337
738336.40628510143142193556,-2.01869767347229,-4.32050538651692,344.224880723492
738336.40628519188612699509,-2.01869767347229,-4.32050538651692,344.224880723492
738336.40628528234083205462,-2.01869767347229,-4.32050538651692,344.212571591337
738336.40628537279553711414,-2.01869767347229,-4.33281451867224,344.12640766625
738336.40628546325024217367,-2.00638854131698,-4.32050538651692,344.101789401939
738336.40628555358853191137,-2.00638854131698,-4.33281451867224,344.15102593056
738336.40628564404323697090,-2.00638854131698,-4.33281451867224,344.163335062716
738336.40628573449794203043,-2.00638854131698,-4.33281451867224,344.187953327026
738336.40628582495264708996,-2.00638854131698,-4.33281451867224,344.163335062716
738336.40628591540735214949,-2.00638854131698,-4.34512365082756,344.212571591337
738336.40628600586205720901,-2.00638854131698,-4.32050538651692,344.163335062716
738336.40628609620034694672,-2.00638854131698,-4.33281451867224,344.15102593056
738336.40628618665505200624,-2.00638854131698,-4.33281451867224,344.12640766625
738336.40628627710975706577,-2.00638854131698,-4.32050538651692,344.200262459181
738336.40628636756446212530,-2.00638854131698,-4.32050538651692,344.249498987803
738336.40628645801916718483,-2.01869767347229,-4.33281451867224,344.187953327026
738336.40628654847387224436,-2.01869767347229,-4.34512365082756,344.114098534094
738336.40628663892857730389,-2.01869767347229,-4.33281451867224,344.187953327026
738336.40628672926686704159,-2.01869767347229,-4.33281451867224,344.187953327026
738336.40628681972157210112,-2.01869767347229,-4.33281451867224,344.212571591337
738336.40628691017627716064,-2.01869767347229,-4.33281451867224,344.138716798405
738336.40628700063098222017,-2.01869767347229,-4.33281451867224,344.040243741162
738336.40628709108568727970,-2.03100680562761,-4.33281451867224,344.163335062716
738336.40628718154039233923,-2.01869767347229,-4.33281451867224,344.224880723492
738336.40628727187868207693,-2.03100680562761,-4.33281451867224,344.200262459181
738336.40628736233338713646,-2.03100680562761,-4.33281451867224,344.12640766625
738336.40628745278809219599,-2.03100680562761,-4.33281451867224,344.138716798405
738336.40628754324279725552,-2.03100680562761,-4.33281451867224,344.187953327026
738336.40628763369750231504,-2.03100680562761,-4.34512365082756,344.15102593056
738336.40628772415220737457,-2.03100680562761,-4.33281451867224,344.187953327026
738336.40628781449049711227,-2.03100680562761,-4.34512365082756,344.237189855647
738336.40628790494520217180,-2.03100680562761,-4.33281451867224,344.138716798405
738336.40628799539990723133,-2.03100680562761,-4.33281451867224,344.15102593056
738336.40628808585461229086,-2.03100680562761,-4.33281451867224,344.138716798405
738336.40628817630931735039,-2.03100680562761,-4.33281451867224,344.101789401939
738336.40628826676402240992,-2.01869767347229,-4.33281451867224,344.163335062716
738336.40628835721872746944,-2.00638854131698,-4.34512365082756,344.163335062716
738336.40628844755701720715,-1.99407940916166,-4.35743278298288,344.212571591337
738336.40628853801172226667,-1.99407940916166,-4.35743278298288,344.187953327026
738336.40628862846642732620,-1.98177027700634,-4.3697419151382,344.114098534094
738336.40628871892113238573,-1.96946114485102,-4.41897844375947,344.200262459181
738336.40628880937583744526,-1.9571520126957,-4.40666931160415,344.212571591337
738336.40628889983054250479,-1.94484288054038,-4.3697419151382,344.101789401939
738336.40628899016883224249,-1.96946114485102,-4.35743278298288,344.12640766625
738336.40628908062353730202,-1.99407940916166,-4.34512365082756,344.12640766625
738336.40628917107824236155,-2.00638854131698,-4.34512365082756,344.12640766625
738336.40628926153294742107,-2.01869767347229,-4.34512365082756,344.114098534094
738336.40628935198765248060,-2.03100680562761,-4.34512365082756,344.187953327026
738336.40628944244235754013,-2.03100680562761,-4.33281451867224,344.212571591337
738336.40628953289706259966,-2.03100680562761,-4.32050538651692,344.175644194871
738336.40628962323535233736,-2.03100680562761,-4.33281451867224,344.200262459181
738336.40628971369005739689,-2.03100680562761,-4.33281451867224,344.237189855647
738336.40628980414476245642,-2.03100680562761,-4.33281451867224,344.163335062716
738336.40628989459946751595,-2.03100680562761,-4.33281451867224,344.12640766625
738336.40628998505417257547,-2.03100680562761,-4.33281451867224,344.138716798405
738336.40629007550887763500,-2.01869767347229,-4.33281451867224,344.114098534094
738336.40629016584716737270,-2.01869767347229,-4.34512365082756,344.138716798405
738336.40629025630187243223,-2.01869767347229,-4.33281451867224,344.138716798405
738336.40629034675657749176,-2.01869767347229,-4.22203232927437,344.163335062716
738336.40629043721128255129,-1.92022461622974,-4.06201361125523,344.261808119958
738336.40629052766598761082,-1.64942370881273,-4.3697419151382,344.175644194871
738336.40629061812069267035,-1.26784061199784,-4.80056154057436,344.409517705822
738336.40629070845898240805,-1.16936755475529,-4.91134372997223,344.532609027375
738336.40629079891368746758,-1.55095065157018,-4.64054282255521,344.458754234443
738336.40629088936839252710,-1.99407940916166,-4.55437889746798,344.114098534094
738336.40629097982309758663,-1.92022461622974,-4.46821497238075,344.237189855647
738336.40629107027780264616,-1.90791548407442,-4.3697419151382,344.224880723492
738336.40629116073250770569,-1.93253374838506,-4.34512365082756,344.212571591337
738336.40629125118721276522,-1.94484288054038,-4.33281451867224,344.187953327026
738336.40629134152550250292,-1.94484288054038,-4.32050538651692,344.212571591337
738336.40629143198020756245,-1.9571520126957,-4.32050538651692,344.200262459181
738336.40629152243491262197,-1.94484288054038,-4.3081962543616,344.224880723492
738336.40629161288961768150,-1.94484288054038,-4.3081962543616,344.224880723492
738336.40629170334432274103,-1.94484288054038,-4.3081962543616,344.224880723492
738336.40629179379902780056,-1.93253374838506,-4.3081962543616,344.15102593056
738336.40629188413731753826,-1.93253374838506,-4.32050538651692,344.237189855647
738336.40629197459202259779,-1.92022461622974,-4.3081962543616,344.237189855647
738336.40629206504672765732,-1.92022461622974,-4.3081962543616,344.163335062716
738336.40629215550143271685,-1.92022461622974,-4.3081962543616,344.212571591337
738336.40629224595613777637,-1.90791548407442,-4.29588712220628,344.237189855647
738336.40629233641084283590,-1.90791548407442,-4.29588712220628,344.237189855647
738336.40629242686554789543,-1.89560635191911,-4.29588712220628,344.175644194871
738336.40629251720383763313,-1.89560635191911,-4.29588712220628,344.175644194871
738336.40629260765854269266,-1.87098808760847,-4.29588712220628,344.286426384269
738336.40629269811324775219,-1.85867895545315,-4.28357799005097,344.286426384269
738336.40629278856795281172,-1.85867895545315,-4.28357799005097,344.175644194871
738336.40629287902265787125,-1.83406069114251,-4.28357799005097,344.274117252113
738336.40629296947736293077,-1.80944242683187,-4.27126885789565,344.323353780735
738336.40629305981565266848,-1.79713329467655,-4.25895972574033,344.311044648579
738336.40629315027035772800,-1.7602058982106,-4.24665059358501,344.33566291289
738336.40629324072506278753,-1.73558763389996,-4.24665059358501,344.311044648579
738336.40629333117976784706,-1.71096936958932,-4.23434146142969,344.33566291289
738336.40629342163447290659,-1.68635110527868,-4.22203232927437,344.372590309356
738336.40629351208917796612,-1.64942370881273,-4.22203232927437,344.323353780735
738336.40629360242746770382,-1.62480544450209,-4.22203232927437,344.397208573667
738336.40629369288217276335,-1.61249631234677,-4.22203232927437,344.421826837977
738336.40629378333687782288,-1.60018718019145,-4.22203232927437,344.347972045045
738336.40629387379158288240,-1.60018718019145,-4.24665059358501,344.397208573667
738336.40629396424628794193,-1.63711457665741,-4.24665059358501,344.384899441511
738336.40629405470099300146,-1.64942370881273,-4.27126885789565,344.15102593056
738336.40629414515569806099,-1.71096936958932,-4.28357799005097,344.261808119958
738336.40629423549398779869,-1.7602058982106,-4.29588712220628,344.212571591337
738336.40629432594869285822,-1.80944242683187,-4.3081962543616,344.12640766625
738336.40629441640339791775,-1.84636982329783,-4.32050538651692,344.138716798405
738336.40629450685810297728,-1.87098808760847,-4.32050538651692,344.114098534094
738336.40629459731280803680,-1.88329721976379,-4.33281451867224,344.114098534094
738336.40629468776751309633,-1.89560635191911,-4.33281451867224,344.114098534094
738336.40629477810580283403,-1.90791548407442,-4.33281451867224,344.15102593056
738336.40629486856050789356,-1.90791548407442,-4.33281451867224,344.12640766625
738336.40629495901521295309,-1.90791548407442,-4.33281451867224,344.138716798405
738336.40629504946991801262,-1.90791548407442,-4.33281451867224,344.114098534094
738336.40629513992462307215,-1.92022461622974,-4.32050538651692,344.175644194871
738336.40629523037932813168,-1.92022461622974,-4.33281451867224,344.089480269784
738336.40629532083403319120,-1.92022461622974,-4.33281451867224,344.163335062716
738336.40629541117232292891,-1.92022461622974,-4.33281451867224,344.138716798405
738336.40629550162702798843,-1.92022461622974,-4.33281451867224,344.15102593056
738336.40629559208173304796,-1.92022461622974,-4.33281451867224,344.163335062716
738336.40629568253643810749,-1.90791548407442,-4.34512365082756,344.163335062716
738336.40629577299114316702,-1.90791548407442,-4.33281451867224,344.187953327026
738336.40629586344584822655,-1.90791548407442,-4.34512365082756,344.224880723492
738336.40629595378413796425,-1.90791548407442,-4.33281451867224,344.175644194871
738336.40629604423884302378,-1.90791548407442,-4.34512365082756,344.138716798405
738336.40629613469354808331,-1.90791548407442,-4.34512365082756,344.163335062716
738336.40629622514825314283,-1.90791548407442,-4.34512365082756,344.138716798405
738336.40629631560295820236,-1.90791548407442,-4.34512365082756,344.138716798405
738336.40629640605766326189,-1.90791548407442,-4.34512365082756,344.138716798405
738336.40629649639595299959,-1.90791548407442,-4.34512365082756,344.163335062716
738336.40629658685065805912,-1.90791548407442,-4.34512365082756,344.187953327026
738336.40629667730536311865,-1.90791548407442,-4.34512365082756,344.200262459181
738336.40629676776006817818,-1.90791548407442,-4.34512365082756,344.200262459181
738336.40629685821477323771,-1.90791548407442,-4.33281451867224,344.187953327026
738336.40629694866947829723,-1.90791548407442,-4.34512365082756,344.15102593056
738336.40629703912418335676,-1.90791548407442,-4.33281451867224,344.15102593056
738336.40629712946247309446,-1.90791548407442,-4.33281451867224,344.114098534094
738336.40629721991717815399,-1.90791548407442,-4.34512365082756,344.12640766625
738336.40629731037188321352,-1.92022461622974,-4.33281451867224,344.138716798405
738336.40629740082658827305,-1.92022461622974,-4.33281451867224,344.101789401939
738336.40629749128129333258,-1.93253374838506,-4.34512365082756,343.954079816075
738336.40629758173599839211,-1.92022461622974,-4.33281451867224,344.114098534094
738336.40629767207428812981,-1.93253374838506,-4.33281451867224,344.187953327026
738336.40629776252899318933,-1.92022461622974,-4.33281451867224,344.200262459181
738336.40629785298369824886,-1.93253374838506,-4.33281451867224,344.200262459181
738336.40629794343840330839,-1.93253374838506,-4.33281451867224,344.237189855647
738336.40629803389310836792,-1.93253374838506,-4.33281451867224,344.187953327026
738336.40629812434781342745,-1.93253374838506,-4.34512365082756,344.237189855647
738336.40629821480251848698,-1.93253374838506,-4.33281451867224,344.212571591337
738336.40629830514080822468,-1.93253374838506,-4.33281451867224,344.200262459181
738336.40629839559551328421,-1.94484288054038,-4.33281451867224,344.175644194871
738336.40629848605021834373,-1.93253374838506,-4.33281451867224,344.101789401939
738336.40629857650492340326,-1.93253374838506,-4.33281451867224,344.163335062716
738336.40629866695962846279,-1.93253374838506,-4.33281451867224,344.101789401939
738336.40629875741433352232,-1.93253374838506,-4.33281451867224,344.212571591337
738336.40629884775262326002,-1.94484288054038,-4.33281451867224,344.187953327026
738336.40629893820732831955,-1.94484288054038,-4.34512365082756,344.224880723492
738336.40629902866203337908,-1.93253374838506,-4.33281451867224,344.187953327026
738336.40629911911673843861,-1.94484288054038,-4.33281451867224,344.187953327026
738336.40629920957144349813,-1.94484288054038,-4.33281451867224,344.237189855647
738336.40629930002614855766,-1.94484288054038,-4.33281451867224,344.138716798405
738336.40629939036443829536,-1.94484288054038,-4.33281451867224,344.212571591337
738336.40629948081914335489,-1.93253374838506,-4.33281451867224,344.212571591337
738336.40629957127384841442,-1.94484288054038,-4.33281451867224,344.101789401939
738336.40629966172855347395,-1.93253374838506,-4.33281451867224,344.163335062716
738336.40629975218325853348,-1.93253374838506,-4.33281451867224,344.200262459181
738336.40629984263796359301,-1.94484288054038,-4.33281451867224,344.200262459181
738336.40629993309266865253,-1.93253374838506,-4.33281451867224,344.12640766625
738336.40630002343095839024,-1.93253374838506,-4.33281451867224,344.224880723492
738336.40630011388566344976,-1.93253374838506,-4.33281451867224,344.15102593056
738336.40630020434036850929,-1.93253374838506,-4.33281451867224,344.15102593056
738336.40630029479507356882,-1.92022461622974,-4.33281451867224,344.15102593056
738336.40630038524977862835,-1.90791548407442,-4.35743278298288,344.12640766625
738336.40630047570448368788,-1.89560635191911,-4.35743278298288,344.114098534094
738336.40630056604277342558,-1.89560635191911,-4.3697419151382,344.089480269784
738336.40630065649747848511,-1.88329721976379,-4.41897844375947,344.175644194871
738336.40630074695218354464,-1.87098808760847,-4.39436017944884,344.114098534094
738336.40630083740688860416,-1.85867895545315,-4.35743278298288,344.163335062716
738336.40630092786159366369,-1.89560635191911,-4.35743278298288,344.187953327026
738336.40630101831629872322,-1.92022461622974,-4.33281451867224,344.064862005473
738336.40630110877100378275,-1.93253374838506,-4.34512365082756,344.077171137628
738336.40630119910929352045,-1.93253374838506,-4.33281451867224,344.163335062716
738336.40630128956399857998,-1.94484288054038,-4.33281451867224,344.163335062716
738336.40630138001870363951,-1.94484288054038,-4.32050538651692,344.224880723492
738336.40630147047340869904,-1.9571520126957,-4.32050538651692,344.200262459181
738336.40630156092811375856,-1.9571520126957,-4.32050538651692,344.212571591337
738336.40630165138281881809,-1.9571520126957,-4.32050538651692,344.15102593056
738336.40630174172110855579,-1.9571520126957,-4.33281451867224,344.12640766625
738336.40630183217581361532,-1.9571520126957,-4.33281451867224,344.101789401939
738336.40630192263051867485,-1.9571520126957,-4.33281451867224,344.089480269784
738336.40630201308522373438,-1.9571520126957,-4.33281451867224,344.12640766625
738336.40630210353992879391,-1.94484288054038,-4.33281451867224,344.12640766625
738336.40630219399463385344,-1.9571520126957,-4.3081962543616,344.200262459181
738336.40630228433292359114,-1.93253374838506,-4.14817753634246,344.224880723492
738336.40630237478762865067,-1.77251503036592,-4.06201361125523,344.33566291289
738336.40630246524233371019,-1.46478672648295,-4.5666880296233,344.446445102288
738336.40630255569703876972,-1.1078218939787,-4.88672546566159,344.557227291686
738336.40630264615174382925,-1.16936755475529,-4.84979806919563,344.618772952462
738336.40630273660644888878,-1.66173284096805,-4.5666880296233,344.384899441511
738336.40630282706115394831,-1.90791548407442,-4.52976063315734,344.015625476852
738336.40630291739944368601,-1.84636982329783,-4.40666931160415,344.15102593056
738336.40630300785414874554,-1.85867895545315,-4.33281451867224,344.163335062716
738336.40630309830885380507,-1.87098808760847,-4.33281451867224,344.175644194871
738336.40630318876355886459,-1.88329721976379,-4.3081962543616,344.175644194871
738336.40630327921826392412,-1.88329721976379,-4.3081962543616,344.187953327026
738336.40630336967296898365,-1.88329721976379,-4.29588712220628,344.163335062716
738336.40630346001125872135,-1.89560635191911,-4.29588712220628,344.187953327026
738336.40630355046596378088,-1.88329721976379,-4.29588712220628,344.212571591337
738336.40630364092066884041,-1.88329721976379,-4.29588712220628,344.237189855647
738336.40630373137537389994,-1.88329721976379,-4.29588712220628,344.249498987803
738336.40630382183007895947,-1.88329721976379,-4.29588712220628,344.15102593056
738336.40630391228478401899,-1.87098808760847,-4.29588712220628,344.249498987803
738336.40630400273948907852,-1.87098808760847,-4.28357799005097,344.200262459181
738336.40630409307777881622,-1.87098808760847,-4.29588712220628,344.15102593056
738336.40630418353248387575,-1.85867895545315,-4.28357799005097,344.175644194871
738336.40630427398718893528,-1.85867895545315,-4.28357799005097,344.200262459181
738336.40630436444189399481,-1.84636982329783,-4.28357799005097,344.212571591337
738336.40630445489659905434,-1.83406069114251,-4.28357799005097,344.237189855647
738336.40630454535130411386,-1.83406069114251,-4.27126885789565,344.064862005473
738336.40630463568959385157,-1.82175155898719,-4.27126885789565,344.12640766625
738336.40630472614429891109,-1.79713329467655,-4.25895972574033,344.274117252113
738336.40630481659900397062,-1.78482416252124,-4.25895972574033,344.175644194871
738336.40630490705370903015,-1.7602058982106,-4.24665059358501,344.249498987803
738336.40630499750841408968,-1.74789676605528,-4.24665059358501,344.249498987803
738336.40630508796311914921,-1.72327850174464,-4.23434146142969,344.200262459181
738336.40630517830140888691,-1.68635110527868,-4.22203232927437,344.224880723492
738336.40630526875611394644,-1.67404197312337,-4.22203232927437,344.249498987803
738336.40630535921081900597,-1.64942370881273,-4.20972319711905,344.249498987803
738336.40630544966552406549,-1.62480544450209,-4.20972319711905,344.224880723492
738336.40630554012022912502,-1.58787804803613,-4.19741406496373,344.33566291289
738336.40630563057493418455,-1.57556891588082,-4.20972319711905,344.286426384269
738336.40630572102963924408,-1.5632597837255,-4.20972319711905,344.33566291289
738336.40630581136792898178,-1.5632597837255,-4.22203232927437,344.384899441511
738336.40630590182263404131,-1.58787804803613,-4.23434146142969,344.347972045045
738336.40630599227733910084,-1.61249631234677,-4.24665059358501,344.33566291289
738336.40630608273204416037,-1.66173284096805,-4.27126885789565,344.33566291289
738336.40630617318674921989,-1.72327850174464,-4.28357799005097,344.298735516424
738336.40630626364145427942,-1.7602058982106,-4.29588712220628,344.286426384269
738336.40630635397974401712,-1.79713329467655,-4.3081962543616,344.224880723492
738336.40630644443444907665,-1.83406069114251,-4.3081962543616,344.237189855647
738336.40630653488915413618,-1.84636982329783,-4.32050538651692,344.224880723492
738336.40630662534385919571,-1.85867895545315,-4.32050538651692,344.175644194871
738336.40630671579856425524,-1.87098808760847,-4.32050538651692,344.15102593056
738336.40630680625326931477,-1.87098808760847,-4.32050538651692,344.163335062716
738336.40630689670797437429,-1.87098808760847,-4.32050538651692,344.138716798405
738336.40630698704626411200,-1.88329721976379,-4.32050538651692,344.175644194871
738336.40630707750096917152,-1.88329721976379,-4.32050538651692,344.15102593056
738336.40630716795567423105,-1.87098808760847,-4.32050538651692,344.15102593056
738336.40630725841037929058,-1.87098808760847,-4.32050538651692,344.175644194871
738336.40630734886508435011,-1.88329721976379,-4.32050538651692,344.15102593056
738336.40630743931978940964,-1.88329721976379,-4.32050538651692,344.15102593056
738336.40630752965807914734,-1.88329721976379,-4.32050538651692,344.200262459181
738336.40630762011278420687,-1.88329721976379,-4.32050538651692,344.200262459181
738336.40630771056748926640,-1.88329721976379,-4.32050538651692,344.212571591337
738336.40630780102219432592,-1.88329721976379,-4.33281451867224,344.212571591337
738336.40630789147689938545,-1.87098808760847,-4.32050538651692,344.12640766625
738336.40630798193160444498,-1.87098808760847,-4.33281451867224,344.212571591337
738336.40630807226989418268,-1.88329721976379,-4.32050538651692,343.991007212541
738336.40630816272459924221,-1.87098808760847,-4.32050538651692,344.040243741162
738336.40630825317930430174,-1.87098808760847,-4.33281451867224,344.187953327026
738336.40630834363400936127,-1.88329721976379,-4.33281451867224,344.212571591337
738336.40630843408871442080,-1.87098808760847,-4.33281451867224,344.15102593056
738336.40630852454341948032,-1.87098808760847,-4.33281451867224,344.212571591337
738336.40630861499812453985,-1.87098808760847,-4.33281451867224,344.200262459181
738336.40630870533641427755,-1.88329721976379,-4.33281451867224,344.138716798405
738336.40630879579111933708,-1.87098808760847,-4.33281451867224,344.187953327026
738336.40630888624582439661,-1.88329721976379,-4.33281451867224,344.187953327026
738336.40630897670052945614,-1.88329721976379,-4.32050538651692,344.187953327026
738336.40630906715523451567,-1.88329721976379,-4.32050538651692,344.114098534094
738336.40630915760993957520,-1.88329721976379,-4.32050538651692,344.237189855647
738336.40630924794822931290,-1.89560635191911,-4.32050538651692,344.187953327026
738336.40630933840293437243,-1.89560635191911,-4.33281451867224,344.101789401939
738336.40630942885763943195,-1.90791548407442,-4.32050538651692,344.12640766625
738336.40630951931234449148,-1.90791548407442,-4.33281451867224,344.175644194871
738336.40630960976704955101,-1.90791548407442,-4.32050538651692,344.114098534094
738336.40630970022175461054,-1.90791548407442,-4.32050538651692,344.200262459181
738336.40630979067645967007,-1.90791548407442,-4.3081962543616,344.212571591337
738336.40630988101474940777,-1.92022461622974,-4.32050538651692,344.224880723492
738336.40630997146945446730,-1.92022461622974,-4.32050538651692,344.15102593056
738336.40631006192415952682,-1.92022461622974,-4.32050538651692,344.212571591337
738336.40631015237886458635,-1.93253374838506,-4.33281451867224,344.212571591337
738336.40631024283356964588,-1.93253374838506,-4.33281451867224,344.138716798405
738336.40631033328827470541,-1.93253374838506,-4.32050538651692,344.224880723492
738336.40631042362656444311,-1.93253374838506,-4.33281451867224,344.212571591337
738336.40631051408126950264,-1.93253374838506,-4.3081962543616,344.15102593056
738336.40631060453597456217,-1.93253374838506,-4.32050538651692,344.187953327026
738336.40631069499067962170,-1.94484288054038,-4.32050538651692,344.212571591337
738336.40631078544538468122,-1.94484288054038,-4.32050538651692,344.212571591337
738336.40631087590008974075,-1.94484288054038,-4.3081962543616,344.12640766625
738336.40631096623837947845,-1.94484288054038,-4.32050538651692,344.237189855647
738336.40631105669308453798,-1.9571520126957,-4.32050538651692,344.212571591337
738336.40631114714778959751,-1.9571520126957,-4.32050538651692,344.163335062716
738336.40631123760249465704,-1.94484288054038,-4.32050538651692,344.200262459181
738336.40631132805719971657,-1.9571520126957,-4.32050538651692,344.224880723492
738336.40631141851190477610,-1.9571520126957,-4.32050538651692,344.200262459181
738336.40631150896660983562,-1.96946114485102,-4.32050538651692,344.175644194871
738336.40631159930489957333,-1.96946114485102,-4.32050538651692,344.138716798405
738336.40631168975960463285,-1.9571520126957,-4.3081962543616,344.077171137628
738336.40631178021430969238,-1.9571520126957,-4.32050538651692,344.12640766625
738336.40631187066901475191,-1.96946114485102,-4.32050538651692,344.187953327026
738336.40631196112371981144,-1.96946114485102,-4.32050538651692,344.212571591337
738336.40631205157842487097,-1.98177027700634,-4.3081962543616,344.15102593056
738336.40631214191671460867,-1.96946114485102,-4.32050538651692,344.187953327026
738336.40631223237141966820,-1.98177027700634,-4.32050538651692,344.12640766625
738336.40631232282612472773,-1.98177027700634,-4.32050538651692,344.12640766625
738336.40631241328082978725,-1.98177027700634,-4.3081962543616,344.101789401939
738336.40631250373553484678,-1.98177027700634,-4.3081962543616,344.114098534094
738336.40631259419023990631,-1.99407940916166,-4.32050538651692,344.12640766625
738336.40631268464494496584,-1.98177027700634,-4.3081962543616,344.064862005473
738336.40631277498323470354,-1.98177027700634,-4.3081962543616,344.114098534094
738336.40631286543793976307,-1.98177027700634,-4.3081962543616,344.15102593056
738336.40631295589264482260,-1.98177027700634,-4.3081962543616,344.101789401939
738336.40631304634734988213,-1.98177027700634,-4.3081962543616,344.101789401939
738336.40631313680205494165,-1.98177027700634,-4.3081962543616,344.101789401939
738336.40631322725676000118,-1.98177027700634,-4.3081962543616,344.12640766625
738336.40631331759504973888,-1.96946114485102,-4.32050538651692,344.12640766625
738336.40631340804975479841,-1.9571520126957,-4.32050538651692,344.101789401939
738336.40631349850445985794,-1.9571520126957,-4.34512365082756,344.175644194871
738336.40631358895916491747,-1.94484288054038,-4.38205104729352,344.200262459181
738336.40631367941386997700,-1.93253374838506,-4.3697419151382,344.175644194871
738336.40631376986857503653,-1.92022461622974,-4.33281451867224,344.175644194871
738336.40631386020686477423,-1.9571520126957,-4.32050538651692,344.237189855647
738336.40631395066156983376,-1.98177027700634,-4.32050538651692,344.200262459181
738336.40631404111627489328,-1.99407940916166,-4.32050538651692,344.15102593056
738336.40631413157097995281,-2.00638854131698,-4.3081962543616,344.212571591337
738336.40631422202568501234,-2.01869767347229,-4.3081962543616,344.249498987803
738336.40631431248039007187,-2.01869767347229,-4.29588712220628,344.101789401939
738336.40631440293509513140,-2.01869767347229,-4.29588712220628,344.212571591337
738336.40631449327338486910,-2.01869767347229,-4.29588712220628,344.237189855647
738336.40631458372808992863,-2.01869767347229,-4.29588712220628,344.163335062716
738336.40631467418279498816,-2.01869767347229,-4.29588712220628,344.15102593056
738336.40631476463750004768,-2.01869767347229,-4.29588712220628,344.212571591337
738336.40631485509220510721,-2.01869767347229,-4.29588712220628,344.224880723492
738336.40631494554691016674,-2.01869767347229,-4.28357799005097,344.15102593056
738336.40631503588519990444,-2.00638854131698,-4.28357799005097,344.224880723492
738336.40631512633990496397,-2.03100680562761,-4.24665059358501,344.15102593056
738336.40631521679461002350,-1.99407940916166,-4.08663187556586,344.077171137628
738336.40631530724931508303,-1.79713329467655,-4.06201361125523,344.409517705822
738336.40631539770402014256,-1.45247759432763,-4.59130629393394,344.495681630909
738336.40631548815872520208,-1.15705842259997,-4.91134372997223,344.557227291686
738336.40631557861343026161,-1.3047680084638,-4.86210720135095,344.458754234443
738336.40631566895171999931,-1.85867895545315,-4.52976063315734,344.323353780735
738336.40631575940642505884,-1.96946114485102,-4.46821497238075,344.175644194871
738336.40631584986113011837,-1.92022461622974,-4.35743278298288,344.175644194871
738336.40631594031583517790,-1.93253374838506,-4.29588712220628,344.212571591337
738336.40631603077054023743,-1.9571520126957,-4.29588712220628,344.175644194871
738336.40631612122524529696,-1.96946114485102,-4.28357799005097,344.212571591337
738336.40631621156353503466,-1.96946114485102,-4.28357799005097,344.163335062716
738336.40631630201824009418,-1.96946114485102,-4.27126885789565,344.200262459181
738336.40631639247294515371,-1.96946114485102,-4.27126885789565,344.200262459181
738336.40631648292765021324,-1.96946114485102,-4.25895972574033,344.15102593056
738336.40631657338235527277,-1.96946114485102,-4.25895972574033,344.12640766625
738336.40631666383706033230,-1.96946114485102,-4.27126885789565,344.15102593056
738336.40631675417535007000,-1.9571520126957,-4.27126885789565,344.15102593056
738336.40631684463005512953,-1.9571520126957,-4.24665059358501,344.175644194871
738336.40631693508476018906,-1.9571520126957,-4.24665059358501,344.138716798405
738336.40631702553946524858,-1.94484288054038,-4.24665059358501,344.163335062716
738336.40631711599417030811,-1.94484288054038,-4.25895972574033,344.163335062716
738336.40631720644887536764,-1.93253374838506,-4.25895972574033,344.163335062716
738336.40631729690358042717,-1.93253374838506,-4.24665059358501,344.175644194871
738336.40631738724187016487,-1.92022461622974,-4.24665059358501,344.224880723492
738336.40631747769657522440,-1.92022461622974,-4.24665059358501,344.163335062716
738336.40631756815128028393,-1.89560635191911,-4.23434146142969,344.200262459181
738336.40631765860598534346,-1.88329721976379,-4.23434146142969,344.224880723492
738336.40631774906069040298,-1.88329721976379,-4.22203232927437,344.200262459181
738336.40631783951539546251,-1.84636982329783,-4.20972319711905,344.274117252113
738336.40631792985368520021,-1.83406069114251,-4.20972319711905,344.347972045045
738336.40631802030839025974,-1.80944242683187,-4.19741406496373,344.286426384269
738336.40631811076309531927,-1.78482416252124,-4.18510493280842,344.323353780735
738336.40631820121780037880,-1.7602058982106,-4.18510493280842,344.372590309356
738336.40631829167250543833,-1.73558763389996,-4.1727958006531,344.360281177201
738336.40631838212721049786,-1.698660237434,-4.1727958006531,344.298735516424
738336.40631847258191555738,-1.68635110527868,-4.1727958006531,344.409517705822
738336.40631856292020529509,-1.67404197312337,-4.1727958006531,344.421826837977
738336.40631865337491035461,-1.66173284096805,-4.1727958006531,344.372590309356
738336.40631874382961541414,-1.64942370881273,-4.18510493280842,344.212571591337
738336.40631883428432047367,-1.67404197312337,-4.20972319711905,344.384899441511
738336.40631892473902553320,-1.71096936958932,-4.22203232927437,344.384899441511
738336.40631901519373059273,-1.77251503036592,-4.23434146142969,344.33566291289
738336.40631910553202033043,-1.82175155898719,-4.24665059358501,344.323353780735
738336.40631919598672538996,-1.85867895545315,-4.25895972574033,344.274117252113
738336.40631928644143044949,-1.89560635191911,-4.27126885789565,344.212571591337
738336.40631937689613550901,-1.93253374838506,-4.28357799005097,344.237189855647
738336.40631946735084056854,-1.9571520126957,-4.28357799005097,344.274117252113
738336.40631955780554562807,-1.96946114485102,-4.28357799005097,344.224880723492
738336.40631964814383536577,-1.96946114485102,-4.28357799005097,344.286426384269
738336.40631973859854042530,-1.98177027700634,-4.29588712220628,344.237189855647
738336.40631982905324548483,-1.98177027700634,-4.29588712220628,344.163335062716
738336.40631991950795054436,-1.98177027700634,-4.29588712220628,344.163335062716
738336.40632000996265560389,-1.98177027700634,-4.28357799005097,344.12640766625
738336.40632010041736066341,-1.99407940916166,-4.28357799005097,344.138716798405
738336.40632019087206572294,-1.99407940916166,-4.28357799005097,344.15102593056
738336.40632028121035546064,-1.99407940916166,-4.28357799005097,344.212571591337
738336.40632037166506052017,-1.99407940916166,-4.28357799005097,344.163335062716
738336.40632046211976557970,-1.99407940916166,-4.28357799005097,344.138716798405
738336.40632055257447063923,-1.99407940916166,-4.28357799005097,344.12640766625
738336.40632064302917569876,-1.98177027700634,-4.28357799005097,344.15102593056
738336.40632073348388075829,-1.99407940916166,-4.29588712220628,344.15102593056
738336.40632082382217049599,-1.99407940916166,-4.29588712220628,344.163335062716
738336.40632091427687555552,-1.99407940916166,-4.28357799005097,344.175644194871
738336.40632100473158061504,-1.96946114485102,-4.27126885789565,344.187953327026
738336.40632109518628567457,-1.98177027700634,-4.28357799005097,344.175644194871
738336.40632118564099073410,-1.98177027700634,-4.28357799005097,344.224880723492
738336.40632127609569579363,-1.98177027700634,-4.29588712220628,344.249498987803
738336.40632136655040085316,-1.98177027700634,-4.28357799005097,344.200262459181
738336.40632145688869059086,-1.98177027700634,-4.28357799005097,344.200262459181
738336.40632154734339565039,-1.98177027700634,-4.28357799005097,344.163335062716
738336.40632163779810070992,-1.98177027700634,-4.28357799005097,344.187953327026
738336.40632172825280576944,-1.96946114485102,-4.28357799005097,344.187953327026
738336.40632181870751082897,-1.98177027700634,-4.28357799005097,344.212571591337
738336.40632190916221588850,-1.98177027700634,-4.28357799005097,344.237189855647
738336.40632199950050562620,-1.98177027700634,-4.28357799005097,344.212571591337
738336.40632208995521068573,-1.98177027700634,-4.28357799005097,344.175644194871
738336.40632218040991574526,-1.98177027700634,-4.28357799005097,344.175644194871
738336.40632227086462080479,-1.98177027700634,-4.28357799005097,343.978698080386
738336.40632236131932586432,-1.98177027700634,-4.27126885789565,344.15102593056
738336.40632245177403092384,-1.99407940916166,-4.28357799005097,344.12640766625
738336.40632254211232066154,-1.99407940916166,-4.27126885789565,344.138716798405
738336.40632263256702572107,-1.99407940916166,-4.28357799005097,344.15102593056
738336.40632272302173078060,-1.99407940916166,-4.27126885789565,344.114098534094
738336.40632281347643584013,-1.99407940916166,-4.28357799005097,344.15102593056
738336.40632290393114089966,-1.99407940916166,-4.27126885789565,344.187953327026
738336.40632299438584595919,-1.99407940916166,-4.27126885789565,344.200262459181
738336.40632308484055101871,-1.99407940916166,-4.28357799005097,344.187953327026
738336.40632317517884075642,-1.99407940916166,-4.28357799005097,344.261808119958
738336.40632326563354581594,-2.00638854131698,-4.27126885789565,344.224880723492
738336.40632335608825087547,-2.00638854131698,-4.28357799005097,344.114098534094
738336.40632344654295593500,-1.99407940916166,-4.27126885789565,344.237189855647
738336.40632353699766099453,-2.00638854131698,-4.28357799005097,344.224880723492
738336.40632362745236605406,-2.00638854131698,-4.28357799005097,344.237189855647
738336.40632371779065579176,-1.99407940916166,-4.28357799005097,344.212571591337
738336.40632380824536085129,-1.99407940916166,-4.28357799005097,344.249498987803
738336.40632389870006591082,-1.99407940916166,-4.28357799005097,344.249498987803
738336.40632398915477097034,-1.99407940916166,-4.28357799005097,344.224880723492
738336.40632407960947602987,-1.99407940916166,-4.28357799005097,344.212571591337
738336.40632417006418108940,-2.00638854131698,-4.28357799005097,344.224880723492
738336.40632426051888614893,-2.00638854131698,-4.28357799005097,344.212571591337
738336.40632435085717588663,-1.99407940916166,-4.28357799005097,344.187953327026
738336.40632444131188094616,-1.99407940916166,-4.28357799005097,344.261808119958
738336.40632453176658600569,-2.00638854131698,-4.28357799005097,344.15102593056
738336.40632462222129106522,-2.00638854131698,-4.28357799005097,344.163335062716
738336.40632471267599612474,-2.00638854131698,-4.27126885789565,344.15102593056
738336.40632480313070118427,-2.00638854131698,-4.28357799005097,344.163335062716
738336.40632489346899092197,-1.99407940916166,-4.28357799005097,344.200262459181
738336.40632498392369598150,-1.98177027700634,-4.28357799005097,344.175644194871
738336.40632507437840104103,-1.96946114485102,-4.29588712220628,344.138716798405
738336.40632516483310610056,-1.9571520126957,-4.3081962543616,344.15102593056
738336.40632525528781116009,-1.94484288054038,-4.34512365082756,344.138716798405
738336.40632534574251621962,-1.93253374838506,-4.3697419151382,344.163335062716
738336.40632543608080595732,-1.92022461622974,-4.32050538651692,344.237189855647
738336.40632552653551101685,-1.93253374838506,-4.29588712220628,344.249498987803
738336.40632561699021607637,-1.96946114485102,-4.29588712220628,344.224880723492
738336.40632570744492113590,-1.98177027700634,-4.28357799005097,343.991007212541
738336.40632579789962619543,-1.99407940916166,-4.29588712220628,344.15102593056
738336.40632588835433125496,-1.99407940916166,-4.28357799005097,344.200262459181
738336.40632597880903631449,-2.00638854131698,-4.28357799005097,344.163335062716
738336.40632606914732605219,-2.00638854131698,-4.27126885789565,344.138716798405
738336.40632615960203111172,-2.00638854131698,-4.27126885789565,344.175644194871
738336.40632625005673617125,-2.00638854131698,-4.27126885789565,344.175644194871
738336.40632634051144123077,-2.00638854131698,-4.28357799005097,344.200262459181
738336.40632643096614629030,-2.00638854131698,-4.28357799005097,344.237189855647
738336.40632652142085134983,-2.00638854131698,-4.28357799005097,344.212571591337
738336.40632661175914108753,-2.00638854131698,-4.28357799005097,344.15102593056
738336.40632670221384614706,-1.99407940916166,-4.28357799005097,344.224880723492
738336.40632679266855120659,-2.00638854131698,-4.27126885789565,344.224880723492
738336.40632688312325626612,-2.00638854131698,-4.1727958006531,344.175644194871
738336.40632697357796132565,-1.90791548407442,-4.01277708263395,344.33566291289
738336.40632706403266638517,-1.62480544450209,-4.27126885789565,344.458754234443
738336.40632715448737144470,-1.25553147984252,-4.72670674764244,344.471063366599
738336.40632724482566118240,-1.13244015828934,-4.92365286212755,344.471063366599
738336.40632733528036624193,-1.53864151941486,-4.62823369039989,344.397208573667
738336.40632742573507130146,-1.98177027700634,-4.49283323669139,344.089480269784
738336.40632751618977636099,-1.90791548407442,-4.40666931160415,344.114098534094
738336.40632760664448142052,-1.89560635191911,-4.32050538651692,344.212571591337
738336.40632769709918648005,-1.92022461622974,-4.29588712220628,344.249498987803
738336.40632778743747621775,-1.93253374838506,-4.27126885789565,344.224880723492
738336.40632787789218127728,-1.93253374838506,-4.27126885789565,344.224880723492
738336.40632796834688633680,-1.93253374838506,-4.25895972574033,344.237189855647
738336.40632805880159139633,-1.93253374838506,-4.25895972574033,344.237189855647
738336.40632814925629645586,-1.93253374838506,-4.25895972574033,344.187953327026
738336.40632823971100151539,-1.93253374838506,-4.25895972574033,344.261808119958
738336.40632833004929125309,-1.92022461622974,-4.24665059358501,344.237189855647
738336.40632842050399631262,-1.92022461622974,-4.24665059358501,344.138716798405
738336.40632851095870137215,-1.90791548407442,-4.24665059358501,344.187953327026
738336.40632860141340643167,-1.90791548407442,-4.24665059358501,344.261808119958
738336.40632869186811149120,-1.90791548407442,-4.24665059358501,344.261808119958
738336.40632878232281655073,-1.89560635191911,-4.24665059358501,344.163335062716
738336.40632887277752161026,-1.88329721976379,-4.24665059358501,344.249498987803
738336.40632896311581134796,-1.88329721976379,-4.24665059358501,344.274117252113
738336.40632905357051640749,-1.87098808760847,-4.23434146142969,344.212571591337
738336.40632914402522146702,-1.85867895545315,-4.23434146142969,344.274117252113
738336.40632923447992652655,-1.85867895545315,-4.23434146142969,344.089480269784
738336.40632932493463158607,-1.84636982329783,-4.22203232927437,344.175644194871
738336.40632941538933664560,-1.82175155898719,-4.20972319711905,344.249498987803
738336.40632950572762638330,-1.80944242683187,-4.20972319711905,344.286426384269
738336.40632959618233144283,-1.78482416252124,-4.19741406496373,344.323353780735
738336.40632968663703650236,-1.77251503036592,-4.19741406496373,344.274117252113
738336.40632977709174156189,-1.74789676605528,-4.18510493280842,344.311044648579
738336.40632986754644662142,-1.71096936958932,-4.18510493280842,344.360281177201
738336.40632995800115168095,-1.68635110527868,-4.1727958006531,344.286426384269
738336.40633004845585674047,-1.66173284096805,-4.16048666849778,344.298735516424
738336.40633013879414647818,-1.62480544450209,-4.16048666849778,344.360281177201
738336.40633022924885153770,-1.61249631234677,-4.1727958006531,344.434135970133
738336.40633031970355659723,-1.58787804803613,-4.1727958006531,344.33566291289
738336.40633041015826165676,-1.58787804803613,-4.1727958006531,344.360281177201
738336.40633050061296671629,-1.60018718019145,-4.18510493280842,344.323353780735
738336.40633059106767177582,-1.62480544450209,-4.19741406496373,344.311044648579
738336.40633068140596151352,-1.68635110527868,-4.22203232927437,344.224880723492
738336.40633077186066657305,-1.73558763389996,-4.23434146142969,344.212571591337
738336.40633086231537163258,-1.77251503036592,-4.24665059358501,344.175644194871
738336.40633095277007669210,-1.82175155898719,-4.25895972574033,344.175644194871
738336.40633104322478175163,-1.84636982329783,-4.27126885789565,344.163335062716
738336.40633113367948681116,-1.87098808760847,-4.27126885789565,344.200262459181
738336.40633122401777654886,-1.88329721976379,-4.28357799005097,344.15102593056
738336.40633131447248160839,-1.89560635191911,-4.27126885789565,344.175644194871
738336.40633140492718666792,-1.89560635191911,-4.28357799005097,344.212571591337
738336.40633149538189172745,-1.89560635191911,-4.28357799005097,344.249498987803
738336.40633158583659678698,-1.89560635191911,-4.27126885789565,344.261808119958
738336.40633167629130184650,-1.90791548407442,-4.28357799005097,344.200262459181
738336.40633176674600690603,-1.90791548407442,-4.28357799005097,344.274117252113
738336.40633185708429664373,-1.89560635191911,-4.27126885789565,344.286426384269
738336.40633194753900170326,-1.90791548407442,-4.28357799005097,344.175644194871
738336.40633203799370676279,-1.89560635191911,-4.28357799005097,344.224880723492
738336.40633212844841182232,-1.89560635191911,-4.27126885789565,344.224880723492
738336.40633221890311688185,-1.88329721976379,-4.27126885789565,344.187953327026
738336.40633230935782194138,-1.88329721976379,-4.27126885789565,344.15102593056
738336.40633239969611167908,-1.88329721976379,-4.27126885789565,344.175644194871
738336.40633249015081673861,-1.88329721976379,-4.27126885789565,344.15102593056
738336.40633258060552179813,-1.87098808760847,-4.27126885789565,344.200262459181
738336.40633267106022685766,-1.87098808760847,-4.27126885789565,344.200262459181
738336.40633276151493191719,-1.87098808760847,-4.27126885789565,344.027934609007
738336.40633285196963697672,-1.87098808760847,-4.28357799005097,344.077171137628
738336.40633294242434203625,-1.87098808760847,-4.28357799005097,344.175644194871
738336.40633303276263177395,-1.87098808760847,-4.28357799005097,344.200262459181
738336.40633312321733683348,-1.87098808760847,-4.28357799005097,344.187953327026
738336.40633321367204189301,-1.87098808760847,-4.28357799005097,344.175644194871
738336.40633330412674695253,-1.87098808760847,-4.28357799005097,344.200262459181
738336.40633339458145201206,-1.87098808760847,-4.28357799005097,344.200262459181
738336.40633348503615707159,-1.87098808760847,-4.28357799005097,344.175644194871
738336.40633357537444680929,-1.87098808760847,-4.29588712220628,344.212571591337
738336.40633366582915186882,-1.87098808760847,-4.28357799005097,344.261808119958
738336.40633375628385692835,-1.87098808760847,-4.27126885789565,344.237189855647
738336.40633384673856198788,-1.88329721976379,-4.28357799005097,344.187953327026
738336.40633393719326704741,-1.88329721976379,-4.28357799005097,344.12640766625
738336.40633402764797210693,-1.88329721976379,-4.28357799005097,344.15102593056
738336.40633411798626184464,-1.88329721976379,-4.27126885789565,344.15102593056
738336.40633420844096690416,-1.88329721976379,-4.27126885789565,344.114098534094
738336.40633429889567196369,-1.89560635191911,-4.27126885789565,344.15102593056
738336.40633438935037702322,-1.89560635191911,-4.28357799005097,344.175644194871
738336.40633447980508208275,-1.89560635191911,-4.27126885789565,344.175644194871
738336.40633457025978714228,-1.89560635191911,-4.27126885789565,344.200262459181
738336.40633466071449220181,-1.89560635191911,-4.27126885789565,344.187953327026
738336.40633475105278193951,-1.89560635191911,-4.28357799005097,344.12640766625
738336.40633484150748699903,-1.89560635191911,-4.27126885789565,344.15102593056
738336.40633493196219205856,-1.89560635191911,-4.27126885789565,344.237189855647
738336.40633502241689711809,-1.89560635191911,-4.27126885789565,344.15102593056
738336.40633511287160217762,-1.89560635191911,-4.27126885789565,344.224880723492
738336.40633520332630723715,-1.89560635191911,-4.27126885789565,344.212571591337
738336.40633529366459697485,-1.89560635191911,-4.27126885789565,344.138716798405
738336.40633538411930203438,-1.89560635191911,-4.27126885789565,344.200262459181
738336.40633547457400709391,-1.90791548407442,-4.27126885789565,344.249498987803
738336.40633556502871215343,-1.89560635191911,-4.28357799005097,344.249498987803
738336.40633565548341721296,-1.90791548407442,-4.27126885789565,344.237189855647
738336.40633574593812227249,-1.89560635191911,-4.27126885789565,344.212571591337
738336.40633583639282733202,-1.89560635191911,-4.27126885789565,344.237189855647
738336.40633592673111706972,-1.90791548407442,-4.27126885789565,344.249498987803
738336.40633601718582212925,-1.90791548407442,-4.27126885789565,344.212571591337
738336.40633610764052718878,-1.90791548407442,-4.28357799005097,344.261808119958
738336.40633619809523224831,-1.90791548407442,-4.27126885789565,344.237189855647
738336.40633628854993730783,-1.90791548407442,-4.27126885789565,344.089480269784
738336.40633637900464236736,-1.89560635191911,-4.25895972574033,344.101789401939
738336.40633646934293210506,-1.89560635191911,-4.27126885789565,344.249498987803
738336.40633655979763716459,-1.90791548407442,-4.27126885789565,344.200262459181
738336.40633665025234222412,-1.89560635191911,-4.27126885789565,344.212571591337
738336.40633674070704728365,-1.89560635191911,-4.27126885789565,344.163335062716
738336.40633683116175234318,-1.88329721976379,-4.27126885789565,344.175644194871
738336.40633692161645740271,-1.87098808760847,-4.28357799005097,344.163335062716
738336.40633701195474714041,-1.85867895545315,-4.29588712220628,344.224880723492
738336.40633710240945219994,-1.85867895545315,-4.29588712220628,344.15102593056
738336.40633719286415725946,-1.84636982329783,-4.32050538651692,344.114098534094
738336.40633728331886231899,-1.83406069114251,-4.35743278298288,344.138716798405
738336.40633737377356737852,-1.82175155898719,-4.32050538651692,344.175644194871
738336.40633746422827243805,-1.82175155898719,-4.29588712220628,344.200262459181
738336.40633755468297749758,-1.85867895545315,-4.28357799005097,344.163335062716
738336.40633764502126723528,-1.87098808760847,-4.27126885789565,344.237189855647
738336.40633773547597229481,-1.89560635191911,-4.28357799005097,344.249498987803
738336.40633782593067735434,-1.89560635191911,-4.27126885789565,344.261808119958
738336.40633791638538241386,-1.90791548407442,-4.25895972574033,344.15102593056
738336.40633800684008747339,-1.90791548407442,-4.25895972574033,344.187953327026
738336.40633809729479253292,-1.90791548407442,-4.25895972574033,344.200262459181
738336.40633818763308227062,-1.90791548407442,-4.25895972574033,344.212571591337
738336.40633827808778733015,-1.90791548407442,-4.25895972574033,344.175644194871
738336.40633836854249238968,-1.90791548407442,-4.25895972574033,344.200262459181
738336.40633845899719744921,-1.90791548407442,-4.24665059358501,344.175644194871
738336.40633854945190250874,-1.90791548407442,-4.25895972574033,344.212571591337
738336.40633863990660756826,-1.90791548407442,-4.25895972574033,344.261808119958
738336.40633873036131262779,-1.90791548407442,-4.22203232927437,344.212571591337
738336.40633882069960236549,-1.88329721976379,-4.07432274341055,344.200262459181
738336.40633891115430742502,-1.72327850174464,-3.97584968616799,344.360281177201
738336.40633900160901248455,-1.40324106570635,-4.50514236884671,344.483372498754
738336.40633909206371754408,-1.20629495122125,-4.68977935117649,344.507990763064
738336.40633918251842260361,-1.0462762332021,-4.86210720135095,344.581845555996
738336.40633927297312766314,-1.35400453708508,-4.61592455824458,344.471063366599
738336.40633936331141740084,-1.85867895545315,-4.48052410453607,344.200262459181
738336.40633945376612246037,-1.82175155898719,-4.39436017944884,344.175644194871
738336.40633954422082751989,-1.79713329467655,-4.28357799005097,344.224880723492
738336.40633963467553257942,-1.82175155898719,-4.25895972574033,344.224880723492
738336.40633972513023763895,-1.83406069114251,-4.24665059358501,344.274117252113
738336.40633981558494269848,-1.84636982329783,-4.23434146142969,344.12640766625
738336.40633990592323243618,-1.84636982329783,-4.23434146142969,344.077171137628
738336.40633999637793749571,-1.84636982329783,-4.23434146142969,344.224880723492
738336.40634008683264255524,-1.84636982329783,-4.23434146142969,344.249498987803
738336.40634017728734761477,-1.84636982329783,-4.23434146142969,344.261808119958
738336.40634026774205267429,-1.83406069114251,-4.22203232927437,344.237189855647
738336.40634035819675773382,-1.83406069114251,-4.22203232927437,344.261808119958
738336.40634044865146279335,-1.83406069114251,-4.22203232927437,344.237189855647
738336.40634053898975253105,-1.83406069114251,-4.22203232927437,344.237189855647
738336.40634062944445759058,-1.82175155898719,-4.20972319711905,344.249498987803
738336.40634071989916265011,-1.80944242683187,-4.20972319711905,344.311044648579
738336.40634081035386770964,-1.80944242683187,-4.20972319711905,344.237189855647
738336.40634090080857276917,-1.79713329467655,-4.19741406496373,344.286426384269
738336.40634099126327782869,-1.79713329467655,-4.20972319711905,344.323353780735
738336.40634108160156756639,-1.78482416252124,-4.19741406496373,344.261808119958
738336.40634117205627262592,-1.77251503036592,-4.20972319711905,344.249498987803
738336.40634126251097768545,-1.77251503036592,-4.19741406496373,344.237189855647
738336.40634135296568274498,-1.74789676605528,-4.18510493280842,344.261808119958
738336.40634144342038780451,-1.72327850174464,-4.18510493280842,344.274117252113
738336.40634153387509286404,-1.71096936958932,-4.1727958006531,344.237189855647
738336.40634162432979792356,-1.698660237434,-4.16048666849778,344.237189855647
738336.40634171466808766127,-1.66173284096805,-4.16048666849778,344.261808119958
738336.40634180512279272079,-1.63711457665741,-4.14817753634246,344.323353780735
738336.40634189557749778032,-1.60018718019145,-4.13586840418714,344.286426384269
738336.40634198603220283985,-1.57556891588082,-4.13586840418714,344.286426384269
738336.40634207648690789938,-1.55095065157018,-4.13586840418714,344.286426384269
738336.40634216694161295891,-1.53864151941486,-4.13586840418714,344.397208573667
738336.40634225727990269661,-1.51402325510422,-4.14817753634246,344.421826837977
738336.40634234773460775614,-1.51402325510422,-4.14817753634246,344.409517705822
738336.40634243818931281567,-1.52633238725954,-4.16048666849778,344.360281177201
738336.40634252864401787519,-1.57556891588082,-4.1727958006531,344.311044648579
738336.40634261909872293472,-1.62480544450209,-4.19741406496373,344.249498987803
738336.40634270955342799425,-1.67404197312337,-4.20972319711905,344.175644194871
738336.40634279989171773195,-1.71096936958932,-4.22203232927437,344.212571591337
738336.40634289034642279148,-1.73558763389996,-4.22203232927437,344.200262459181
738336.40634298080112785101,-1.77251503036592,-4.23434146142969,344.187953327026
738336.40634307125583291054,-1.78482416252124,-4.24665059358501,344.138716798405
738336.40634316171053797007,-1.80944242683187,-4.24665059358501,344.187953327026
738336.40634325216524302959,-1.82175155898719,-4.24665059358501,344.212571591337
738336.40634334261994808912,-1.82175155898719,-4.24665059358501,344.077171137628
738336.40634343295823782682,-1.82175155898719,-4.24665059358501,344.027934609007
738336.40634352341294288635,-1.83406069114251,-4.24665059358501,344.224880723492
738336.40634361386764794588,-1.84636982329783,-4.24665059358501,344.212571591337
738336.40634370432235300541,-1.84636982329783,-4.24665059358501,344.15102593056
738336.40634379477705806494,-1.84636982329783,-4.24665059358501,344.212571591337
738336.40634388523176312447,-1.84636982329783,-4.24665059358501,344.187953327026
738336.40634397557005286217,-1.84636982329783,-4.23434146142969,344.200262459181
738336.40634406602475792170,-1.84636982329783,-4.24665059358501,344.224880723492
738336.40634415647946298122,-1.83406069114251,-4.24665059358501,344.187953327026
738336.40634424693416804075,-1.83406069114251,-4.24665059358501,344.175644194871
738336.40634433738887310028,-1.84636982329783,-4.24665059358501,344.212571591337
738336.40634442784357815981,-1.84636982329783,-4.24665059358501,344.249498987803
738336.40634451829828321934,-1.84636982329783,-4.24665059358501,344.175644194871
738336.40634460863657295704,-1.84636982329783,-4.25895972574033,344.224880723492
738336.40634469909127801657,-1.84636982329783,-4.24665059358501,344.237189855647
738336.40634478954598307610,-1.84636982329783,-4.25895972574033,344.187953327026
738336.40634488000068813562,-1.84636982329783,-4.25895972574033,344.200262459181
738336.40634497045539319515,-1.84636982329783,-4.24665059358501,344.237189855647
738336.40634506091009825468,-1.84636982329783,-4.24665059358501,344.261808119958
738336.40634515124838799238,-1.84636982329783,-4.24665059358501,344.200262459181
738336.40634524170309305191,-1.84636982329783,-4.24665059358501,344.274117252113
738336.40634533215779811144,-1.84636982329783,-4.24665059358501,344.237189855647
738336.40634542261250317097,-1.85867895545315,-4.25895972574033,344.212571591337
738336.40634551306720823050,-1.85867895545315,-4.24665059358501,344.249498987803
738336.40634560352191329002,-1.87098808760847,-4.24665059358501,344.138716798405
738336.40634569386020302773,-1.87098808760847,-4.24665059358501,344.15102593056
738336.40634578431490808725,-1.87098808760847,-4.24665059358501,344.138716798405
738336.40634587476961314678,-1.87098808760847,-4.24665059358501,344.163335062716
738336.40634596522431820631,-1.87098808760847,-4.24665059358501,344.187953327026
738336.40634605567902326584,-1.88329721976379,-4.24665059358501,344.15102593056
738336.40634614613372832537,-1.88329721976379,-4.24665059358501,344.12640766625
738336.40634623658843338490,-1.88329721976379,-4.24665059358501,344.15102593056
738336.40634632692672312260,-1.88329721976379,-4.23434146142969,344.114098534094
738336.40634641738142818213,-1.88329721976379,-4.24665059358501,344.187953327026
738336.40634650783613324165,-1.89560635191911,-4.24665059358501,344.237189855647
738336.40634659829083830118,-1.89560635191911,-4.24665059358501,344.15102593056
738336.40634668874554336071,-1.90791548407442,-4.23434146142969,344.175644194871
738336.40634677920024842024,-1.89560635191911,-4.23434146142969,344.175644194871
738336.40634686953853815794,-1.90791548407442,-4.24665059358501,344.12640766625
738336.40634695999324321747,-1.90791548407442,-4.23434146142969,344.064862005473
738336.40634705044794827700,-1.90791548407442,-4.23434146142969,344.15102593056
738336.40634714090265333652,-1.92022461622974,-4.24665059358501,344.163335062716
738336.40634723135735839605,-1.92022461622974,-4.23434146142969,344.12640766625
738336.40634732181206345558,-1.92022461622974,-4.23434146142969,344.163335062716
738336.40634741226676851511,-1.92022461622974,-4.23434146142969,344.15102593056
738336.40634750260505825281,-1.92022461622974,-4.24665059358501,344.114098534094
738336.40634759305976331234,-1.92022461622974,-4.23434146142969,344.200262459181
738336.40634768351446837187,-1.92022461622974,-4.24665059358501,344.237189855647
738336.40634777396917343140,-1.92022461622974,-4.23434146142969,344.249498987803
738336.40634786442387849092,-1.92022461622974,-4.24665059358501,344.187953327026
738336.40634795487858355045,-1.93253374838506,-4.23434146142969,344.237189855647
738336.40634804521687328815,-1.93253374838506,-4.23434146142969,344.237189855647
738336.40634813567157834768,-1.93253374838506,-4.23434146142969,344.163335062716
738336.40634822612628340721,-1.93253374838506,-4.23434146142969,344.249498987803
738336.40634831658098846674,-1.93253374838506,-4.23434146142969,344.249498987803
738336.40634840703569352627,-1.94484288054038,-4.23434146142969,344.286426384269
738336.40634849749039858580,-1.94484288054038,-4.23434146142969,344.224880723492
738336.40634858782868832350,-1.94484288054038,-4.23434146142969,344.237189855647
738336.40634867828339338303,-1.94484288054038,-4.24665059358501,344.237189855647
738336.40634876873809844255,-1.94484288054038,-4.23434146142969,344.187953327026
738336.40634885919280350208,-1.94484288054038,-4.24665059358501,344.286426384269
738336.40634894964750856161,-1.93253374838506,-4.23434146142969,344.286426384269
738336.40634904010221362114,-1.94484288054038,-4.23434146142969,344.163335062716
738336.40634913055691868067,-1.94484288054038,-4.23434146142969,344.261808119958
738336.40634922089520841837,-1.94484288054038,-4.23434146142969,344.274117252113
738336.40634931134991347790,-1.94484288054038,-4.23434146142969,344.237189855647
738336.40634940180461853743,-1.93253374838506,-4.24665059358501,344.237189855647
738336.40634949225932359695,-1.90791548407442,-4.24665059358501,344.274117252113
738336.40634958271402865648,-1.90791548407442,-4.25895972574033,344.249498987803
738336.40634967316873371601,-1.89560635191911,-4.3081962543616,344.187953327026
738336.40634976350702345371,-1.88329721976379,-4.29588712220628,344.224880723492
738336.40634985396172851324,-1.87098808760847,-4.25895972574033,344.200262459181
738336.40634994441643357277,-1.89560635191911,-4.24665059358501,344.200262459181
738336.40635003487113863230,-1.92022461622974,-4.23434146142969,344.200262459181
738336.40635012532584369183,-1.94484288054038,-4.23434146142969,344.200262459181
738336.40635021578054875135,-1.9571520126957,-4.22203232927437,344.212571591337
738336.40635030623525381088,-1.9571520126957,-4.22203232927437,344.187953327026
738336.40635039657354354858,-1.96946114485102,-4.22203232927437,344.138716798405
738336.40635048702824860811,-1.96946114485102,-4.20972319711905,344.089480269784
738336.40635057748295366764,-1.96946114485102,-4.22203232927437,344.212571591337
738336.40635066793765872717,-1.96946114485102,-4.20972319711905,344.200262459181
738336.40635075839236378670,-1.98177027700634,-4.20972319711905,344.200262459181
738336.40635084884706884623,-1.98177027700634,-4.20972319711905,344.163335062716
738336.40635093918535858393,-1.96946114485102,-4.22203232927437,344.187953327026
738336.40635102964006364346,-1.96946114485102,-4.20972319711905,344.187953327026
738336.40635112009476870298,-1.98177027700634,-4.20972319711905,344.224880723492
738336.40635121054947376251,-1.98177027700634,-4.16048666849778,344.237189855647
738336.40635130100417882204,-1.93253374838506,-4.00046795047863,344.298735516424
738336.40635139145888388157,-1.73558763389996,-4.00046795047863,344.434135970133
738336.40635148179717361927,-1.37862280139571,-4.51745150100202,344.483372498754
738336.40635157225187867880,-1.08320362966806,-4.825179804885,344.54491815953
738336.40635166270658373833,-1.26784061199784,-4.77594327626372,344.483372498754
738336.40635175316128879786,-1.83406069114251,-4.45590584022543,344.347972045045
738336.40635184361599385738,-1.90791548407442,-4.38205104729352,344.286426384269
738336.40635193407069891691,-1.87098808760847,-4.28357799005097,344.274117252113
738336.40635202452540397644,-1.89560635191911,-4.23434146142969,344.261808119958
738336.40635211486369371414,-1.90791548407442,-4.22203232927437,344.224880723492
738336.40635220531839877367,-1.90791548407442,-4.20972319711905,344.212571591337
738336.40635229577310383320,-1.90791548407442,-4.20972319711905,344.175644194871
738336.40635238622780889273,-1.92022461622974,-4.20972319711905,344.224880723492
738336.40635247668251395226,-1.92022461622974,-4.19741406496373,344.224880723492
738336.40635256713721901178,-1.92022461622974,-4.19741406496373,344.224880723492
738336.40635265747550874949,-1.90791548407442,-4.19741406496373,344.261808119958
738336.40635274793021380901,-1.92022461622974,-4.18510493280842,344.261808119958
738336.40635283838491886854,-1.92022461622974,-4.18510493280842,344.298735516424
738336.40635292883962392807,-1.90791548407442,-4.18510493280842,344.311044648579
738336.40635301929432898760,-1.90791548407442,-4.18510493280842,344.224880723492
738336.40635310974903404713,-1.89560635191911,-4.18510493280842,344.347972045045
738336.40635320020373910666,-1.89560635191911,-4.1727958006531,344.33566291289
738336.40635329054202884436,-1.89560635191911,-4.18510493280842,344.237189855647
738336.40635338099673390388,-1.88329721976379,-4.1727958006531,344.311044648579
738336.40635347145143896341,-1.85867895545315,-4.1727958006531,344.347972045045
738336.40635356190614402294,-1.85867895545315,-4.16048666849778,344.261808119958
738336.40635365236084908247,-1.84636982329783,-4.16048666849778,344.274117252113
738336.40635374281555414200,-1.83406069114251,-4.14817753634246,344.298735516424
738336.40635383315384387970,-1.80944242683187,-4.14817753634246,344.274117252113
738336.40635392360854893923,-1.79713329467655,-4.13586840418714,344.114098534094
738336.40635401406325399876,-1.77251503036592,-4.13586840418714,344.274117252113
738336.40635410451795905828,-1.77251503036592,-4.12355927203182,344.298735516424
738336.40635419497266411781,-1.73558763389996,-4.09894100772118,344.360281177201
738336.40635428542736917734,-1.71096936958932,-4.1112501398765,344.384899441511
738336.40635437576565891504,-1.68635110527868,-4.09894100772118,344.372590309356
738336.40635446622036397457,-1.64942370881273,-4.09894100772118,344.409517705822
738336.40635455667506903410,-1.63711457665741,-4.08663187556586,344.421826837977
738336.40635464712977409363,-1.61249631234677,-4.09894100772118,344.458754234443
738336.40635473758447915316,-1.60018718019145,-4.09894100772118,344.483372498754
738336.40635482803918421268,-1.60018718019145,-4.1112501398765,344.409517705822
738336.40635491849388927221,-1.62480544450209,-4.13586840418714,344.421826837977
738336.40635500883217900991,-1.66173284096805,-4.14817753634246,344.409517705822
738336.40635509928688406944,-1.72327850174464,-4.16048666849778,344.347972045045
738336.40635518974158912897,-1.77251503036592,-4.1727958006531,344.33566291289
738336.40635528019629418850,-1.83406069114251,-4.18510493280842,344.286426384269
738336.40635537065099924803,-1.85867895545315,-4.19741406496373,344.298735516424
738336.40635546110570430756,-1.87098808760847,-4.19741406496373,344.274117252113
738336.40635555144399404526,-1.89560635191911,-4.20972319711905,344.323353780735
738336.40635564189869910479,-1.92022461622974,-4.20972319711905,344.311044648579
738336.40635573235340416431,-1.93253374838506,-4.20972319711905,344.200262459181
738336.40635582280810922384,-1.93253374838506,-4.22203232927437,344.274117252113
738336.40635591326281428337,-1.93253374838506,-4.20972319711905,344.286426384269
738336.40635600371751934290,-1.94484288054038,-4.22203232927437,344.286426384269
738336.40635609417222440243,-1.93253374838506,-4.20972319711905,344.187953327026
738336.40635618451051414013,-1.93253374838506,-4.20972319711905,344.237189855647
738336.40635627496521919966,-1.93253374838506,-4.20972319711905,344.237189855647
738336.40635636541992425919,-1.94484288054038,-4.22203232927437,344.224880723492
738336.40635645587462931871,-1.94484288054038,-4.22203232927437,344.224880723492
738336.40635654632933437824,-1.94484288054038,-4.22203232927437,344.274117252113
738336.40635663678403943777,-1.93253374838506,-4.20972319711905,344.323353780735
738336.40635672712232917547,-1.93253374838506,-4.20972319711905,344.249498987803
738336.40635681757703423500,-1.93253374838506,-4.20972319711905,344.286426384269
738336.40635690803173929453,-1.93253374838506,-4.22203232927437,344.274117252113
738336.40635699848644435406,-1.92022461622974,-4.22203232927437,344.286426384269
738336.40635708894114941359,-1.92022461622974,-4.22203232927437,344.261808119958
738336.40635717939585447311,-1.92022461622974,-4.22203232927437,344.298735516424
738336.40635726973414421082,-1.92022461622974,-4.22203232927437,344.323353780735
738336.40635736018884927034,-1.92022461622974,-4.22203232927437,344.224880723492
738336.40635745064355432987,-1.92022461622974,-4.20972319711905,344.101789401939
738336.40635754109825938940,-1.90791548407442,-4.20972319711905,344.212571591337
738336.40635763155296444893,-1.90791548407442,-4.20972319711905,344.298735516424
738336.40635772200766950846,-1.90791548407442,-4.20972319711905,344.187953327026
738336.40635781246237456799,-1.92022461622974,-4.20972319711905,344.200262459181
738336.40635790280066430569,-1.92022461622974,-4.20972319711905,344.212571591337
738336.40635799325536936522,-1.90791548407442,-4.22203232927437,344.175644194871
738336.40635808371007442474,-1.90791548407442,-4.20972319711905,344.200262459181
738336.40635817416477948427,-1.92022461622974,-4.20972319711905,344.249498987803
738336.40635826461948454380,-1.93253374838506,-4.20972319711905,344.249498987803
738336.40635835507418960333,-1.92022461622974,-4.20972319711905,344.298735516424
738336.40635844541247934103,-1.92022461622974,-4.20972319711905,344.311044648579
738336.40635853586718440056,-1.93253374838506,-4.20972319711905,344.212571591337
738336.40635862632188946009,-1.93253374838506,-4.22203232927437,344.237189855647
738336.40635871677659451962,-1.93253374838506,-4.22203232927437,344.212571591337
738336.40635880723129957914,-1.93253374838506,-4.20972319711905,344.224880723492
738336.40635889768600463867,-1.93253374838506,-4.20972319711905,344.274117252113
738336.40635898814070969820,-1.93253374838506,-4.20972319711905,344.212571591337
738336.40635907847899943590,-1.93253374838506,-4.20972319711905,344.261808119958
738336.40635916893370449543,-1.93253374838506,-4.20972319711905,344.212571591337
738336.40635925938840955496,-1.93253374838506,-4.20972319711905,344.187953327026
738336.40635934984311461449,-1.93253374838506,-4.20972319711905,344.224880723492
738336.40635944029781967402,-1.93253374838506,-4.20972319711905,344.237189855647
738336.40635953075252473354,-1.93253374838506,-4.20972319711905,344.249498987803
738336.40635962109081447124,-1.93253374838506,-4.20972319711905,344.212571591337
738336.40635971154551953077,-1.93253374838506,-4.20972319711905,344.212571591337
738336.40635980200022459030,-1.93253374838506,-4.22203232927437,344.249498987803
738336.40635989245492964983,-1.93253374838506,-4.20972319711905,344.249498987803
738336.40635998290963470936,-1.92022461622974,-4.20972319711905,344.298735516424
738336.40636007336433976889,-1.90791548407442,-4.22203232927437,344.261808119958
738336.40636016370262950659,-1.88329721976379,-4.23434146142969,344.187953327026
738336.40636025415733456612,-1.88329721976379,-4.24665059358501,344.212571591337
738336.40636034461203962564,-1.87098808760847,-4.28357799005097,344.224880723492
738336.40636043506674468517,-1.84636982329783,-4.28357799005097,344.298735516424
738336.40636052552144974470,-1.83406069114251,-4.23434146142969,344.286426384269
738336.40636061597615480423,-1.88329721976379,-4.23434146142969,344.237189855647
738336.40636070643085986376,-1.89560635191911,-4.20972319711905,344.237189855647
738336.40636079676914960146,-1.90791548407442,-4.20972319711905,344.261808119958
738336.40636088722385466099,-1.92022461622974,-4.20972319711905,344.237189855647
738336.40636097767855972052,-1.93253374838506,-4.20972319711905,344.15102593056
738336.40636106813326478004,-1.93253374838506,-4.19741406496373,344.212571591337
738336.40636115858796983957,-1.93253374838506,-4.19741406496373,344.249498987803
738336.40636124904267489910,-1.93253374838506,-4.19741406496373,344.274117252113
738336.40636133938096463680,-1.93253374838506,-4.19741406496373,344.33566291289
738336.40636142983566969633,-1.94484288054038,-4.19741406496373,344.298735516424
738336.40636152029037475586,-1.94484288054038,-4.19741406496373,344.274117252113
738336.40636161074507981539,-1.93253374838506,-4.19741406496373,344.323353780735
738336.40636170119978487492,-1.93253374838506,-4.19741406496373,344.286426384269
738336.40636179165448993444,-1.92022461622974,-4.19741406496373,344.311044648579
738336.40636188210919499397,-1.93253374838506,-4.18510493280842,344.138716798405
738336.40636197244748473167,-1.92022461622974,-4.06201361125523,344.286426384269
738336.40636206290218979120,-1.80944242683187,-3.92661315754672,344.446445102288
738336.40636215335689485073,-1.5017141229489,-4.29588712220628,344.483372498754
738336.40636224381159991026,-1.13244015828934,-4.70208848333181,344.52029989522
738336.40636233426630496979,-1.07089449751274,-4.81287067272968,344.631082084618
738336.40636242472101002932,-1.52633238725954,-4.49283323669139,344.532609027375
738336.40636251505929976702,-1.90791548407442,-4.40666931160415,344.15102593056
738336.40636260551400482655,-1.82175155898719,-4.3081962543616,344.323353780735
738336.40636269596870988607,-1.80944242683187,-4.22203232927437,344.311044648579
738336.40636278642341494560,-1.83406069114251,-4.20972319711905,344.298735516424
738336.40636287687812000513,-1.84636982329783,-4.19741406496373,344.286426384269
738336.40636296733282506466,-1.85867895545315,-4.18510493280842,344.261808119958
738336.40636305767111480236,-1.85867895545315,-4.18510493280842,344.212571591337
738336.40636314812581986189,-1.85867895545315,-4.18510493280842,344.224880723492
738336.40636323858052492142,-1.84636982329783,-4.18510493280842,344.286426384269
738336.40636332903522998095,-1.83406069114251,-4.1727958006531,344.224880723492
738336.40636341948993504047,-1.84636982329783,-4.1727958006531,344.200262459181
738336.40636350994464010000,-1.83406069114251,-4.1727958006531,344.200262459181
738336.40636360039934515953,-1.83406069114251,-4.1727958006531,344.224880723492
738336.40636369073763489723,-1.82175155898719,-4.1727958006531,344.261808119958
738336.40636378119233995676,-1.82175155898719,-4.1727958006531,344.224880723492
738336.40636387164704501629,-1.80944242683187,-4.1727958006531,344.237189855647
738336.40636396210175007582,-1.80944242683187,-4.16048666849778,344.237189855647
738336.40636405255645513535,-1.79713329467655,-4.16048666849778,344.212571591337
738336.40636414301116019487,-1.78482416252124,-4.16048666849778,344.261808119958
738336.40636423334944993258,-1.77251503036592,-4.14817753634246,344.298735516424
738336.40636432380415499210,-1.7602058982106,-4.16048666849778,344.249498987803
738336.40636441425886005163,-1.74789676605528,-4.14817753634246,344.33566291289
738336.40636450471356511116,-1.73558763389996,-4.14817753634246,344.249498987803
738336.40636459516827017069,-1.71096936958932,-4.13586840418714,344.200262459181
738336.40636468562297523022,-1.68635110527868,-4.13586840418714,344.384899441511
738336.40636477607768028975,-1.66173284096805,-4.1112501398765,344.397208573667
738336.40636486641597002745,-1.63711457665741,-4.1112501398765,344.261808119958
738336.40636495687067508698,-1.60018718019145,-4.09894100772118,344.384899441511
738336.40636504732538014650,-1.57556891588082,-4.09894100772118,344.397208573667
738336.40636513778008520603,-1.53864151941486,-4.08663187556586,344.458754234443
738336.40636522823479026556,-1.51402325510422,-4.08663187556586,344.495681630909
738336.40636531868949532509,-1.5017141229489,-4.08663187556586,344.52029989522
738336.40636540902778506279,-1.48940499079358,-4.08663187556586,344.483372498754
738336.40636549948249012232,-1.48940499079358,-4.09894100772118,344.52029989522
738336.40636558993719518185,-1.51402325510422,-4.1112501398765,344.458754234443
738336.40636568039190024137,-1.55095065157018,-4.13586840418714,344.434135970133
738336.40636577084660530090,-1.60018718019145,-4.14817753634246,344.446445102288
738336.40636586130131036043,-1.64942370881273,-4.16048666849778,344.397208573667
738336.40636595163960009813,-1.698660237434,-4.1727958006531,344.311044648579
738336.40636604209430515766,-1.73558763389996,-4.19741406496373,344.347972045045
738336.40636613254901021719,-1.7602058982106,-4.19741406496373,344.323353780735
738336.40636622300371527672,-1.78482416252124,-4.19741406496373,344.249498987803
738336.40636631345842033625,-1.79713329467655,-4.20972319711905,344.347972045045
738336.40636640391312539577,-1.80944242683187,-4.20972319711905,344.323353780735
738336.40636649436783045530,-1.80944242683187,-4.20972319711905,344.261808119958
738336.40636658470612019300,-1.82175155898719,-4.20972319711905,344.311044648579
738336.40636667516082525253,-1.82175155898719,-4.20972319711905,344.298735516424
738336.40636676561553031206,-1.82175155898719,-4.20972319711905,344.200262459181
738336.40636685607023537159,-1.82175155898719,-4.20972319711905,344.212571591337
738336.40636694652494043112,-1.82175155898719,-4.20972319711905,344.200262459181
738336.40636703697964549065,-1.82175155898719,-4.20972319711905,344.212571591337
738336.40636712731793522835,-1.82175155898719,-4.20972319711905,344.212571591337
738336.40636721777264028788,-1.80944242683187,-4.19741406496373,344.187953327026
738336.40636730822734534740,-1.82175155898719,-4.19741406496373,344.286426384269
738336.40636739868205040693,-1.80944242683187,-4.20972319711905,344.274117252113
738336.40636748913675546646,-1.80944242683187,-4.20972319711905,344.212571591337
738336.40636757959146052599,-1.80944242683187,-4.20972319711905,344.286426384269
738336.40636767004616558552,-1.80944242683187,-4.20972319711905,344.187953327026
738336.40636776038445532322,-1.80944242683187,-4.20972319711905,344.187953327026
738336.40636785083916038275,-1.79713329467655,-4.20972319711905,344.224880723492
738336.40636794129386544228,-1.79713329467655,-4.20972319711905,344.212571591337
738336.40636803174857050180,-1.79713329467655,-4.20972319711905,344.114098534094
738336.40636812220327556133,-1.78482416252124,-4.20972319711905,344.101789401939
738336.40636821265798062086,-1.79713329467655,-4.20972319711905,344.237189855647
738336.40636830299627035856,-1.78482416252124,-4.20972319711905,344.286426384269
738336.40636839345097541809,-1.79713329467655,-4.22203232927437,344.311044648579
738336.40636848390568047762,-1.79713329467655,-4.20972319711905,344.249498987803
738336.40636857436038553715,-1.79713329467655,-4.20972319711905,344.261808119958
738336.40636866481509059668,-1.79713329467655,-4.20972319711905,344.212571591337
738336.40636875526979565620,-1.80944242683187,-4.20972319711905,344.237189855647
738336.40636884560808539391,-1.80944242683187,-4.20972319711905,344.237189855647
738336.40636893606279045343,-1.80944242683187,-4.22203232927437,344.237189855647
738336.40636902651749551296,-1.80944242683187,-4.20972319711905,344.224880723492
738336.40636911697220057249,-1.80944242683187,-4.20972319711905,344.200262459181
738336.40636920742690563202,-1.80944242683187,-4.20972319711905,344.200262459181
738336.40636929788161069155,-1.82175155898719,-4.22203232927437,344.212571591337
738336.40636938833631575108,-1.82175155898719,-4.20972319711905,344.224880723492
738336.40636947867460548878,-1.82175155898719,-4.20972319711905,344.200262459181
738336.40636956912931054831,-1.82175155898719,-4.20972319711905,344.175644194871
738336.40636965958401560783,-1.83406069114251,-4.20972319711905,344.224880723492
738336.40636975003872066736,-1.83406069114251,-4.20972319711905,344.274117252113
738336.40636984049342572689,-1.82175155898719,-4.20972319711905,344.274117252113
738336.40636993094813078642,-1.82175155898719,-4.20972319711905,344.323353780735
738336.40637002128642052412,-1.82175155898719,-4.19741406496373,344.311044648579
738336.40637011174112558365,-1.83406069114251,-4.19741406496373,344.286426384269
738336.40637020219583064318,-1.83406069114251,-4.20972319711905,344.261808119958
738336.40637029265053570271,-1.83406069114251,-4.19741406496373,344.298735516424
738336.40637038310524076223,-1.83406069114251,-4.20972319711905,344.298735516424
738336.40637047355994582176,-1.83406069114251,-4.20972319711905,344.274117252113
738336.40637056401465088129,-1.83406069114251,-4.20972319711905,344.286426384269
738336.40637065435294061899,-1.83406069114251,-4.20972319711905,344.298735516424
738336.40637074480764567852,-1.83406069114251,-4.20972319711905,344.298735516424
738336.40637083526235073805,-1.83406069114251,-4.20972319711905,344.249498987803
738336.40637092571705579758,-1.83406069114251,-4.22203232927437,344.237189855647
738336.40637101617176085711,-1.84636982329783,-4.20972319711905,344.175644194871
738336.40637110662646591663,-1.83406069114251,-4.20972319711905,344.200262459181
738336.40637119696475565434,-1.83406069114251,-4.20972319711905,344.212571591337
738336.40637128741946071386,-1.83406069114251,-4.22203232927437,344.200262459181
738336.40637137787416577339,-1.83406069114251,-4.20972319711905,344.237189855647
738336.40637146832887083292,-1.83406069114251,-4.20972319711905,344.261808119958
738336.40637155878357589245,-1.83406069114251,-4.20972319711905,344.138716798405
738336.40637164923828095198,-1.80944242683187,-4.23434146142969,344.089480269784
738336.40637173957657068968,-1.79713329467655,-4.24665059358501,344.212571591337
738336.40637183003127574921,-1.79713329467655,-4.23434146142969,344.187953327026
738336.40637192048598080873,-1.78482416252124,-4.28357799005097,344.224880723492
738336.40637201094068586826,-1.77251503036592,-4.29588712220628,344.249498987803
738336.40637210139539092779,-1.74789676605528,-4.25895972574033,344.274117252113
738336.40637219185009598732,-1.77251503036592,-4.23434146142969,344.274117252113
738336.40637228230480104685,-1.80944242683187,-4.23434146142969,344.261808119958
738336.40637237264309078455,-1.82175155898719,-4.22203232927437,344.237189855647
738336.40637246309779584408,-1.83406069114251,-4.22203232927437,344.286426384269
738336.40637255355250090361,-1.84636982329783,-4.22203232927437,344.212571591337
738336.40637264400720596313,-1.84636982329783,-4.20972319711905,344.200262459181
738336.40637273446191102266,-1.84636982329783,-4.20972319711905,344.224880723492
738336.40637282491661608219,-1.84636982329783,-4.20972319711905,344.237189855647
738336.40637291525490581989,-1.84636982329783,-4.20972319711905,344.237189855647
738336.40637300570961087942,-1.84636982329783,-4.20972319711905,344.274117252113
738336.40637309616431593895,-1.85867895545315,-4.20972319711905,344.286426384269
738336.40637318661902099848,-1.85867895545315,-4.20972319711905,344.200262459181
738336.40637327707372605801,-1.84636982329783,-4.20972319711905,344.237189855647
738336.40637336752843111753,-1.84636982329783,-4.20972319711905,344.212571591337
738336.40637345798313617706,-1.84636982329783,-4.19741406496373,344.237189855647
738336.40637354832142591476,-1.84636982329783,-4.08663187556586,344.286426384269
738336.40637363877613097429,-1.72327850174464,-3.92661315754672,344.384899441511
738336.40637372923083603382,-1.44016846217231,-4.3081962543616,344.458754234443
738336.40637381968554109335,-1.05858536535742,-4.71439761548713,344.581845555996
738336.40637391014024615288,-1.00934883673615,-4.80056154057436,344.655700348928
738336.40637400059495121241,-1.42785933001699,-4.49283323669139,344.557227291686
738336.40637409093324095011,-1.83406069114251,-4.44359670807011,344.224880723492
738336.40637418138794600964,-1.74789676605528,-4.32050538651692,344.298735516424
738336.40637427184265106916,-1.74789676605528,-4.23434146142969,344.286426384269
738336.40637436229735612869,-1.7602058982106,-4.20972319711905,344.286426384269
738336.40637445275206118822,-1.78482416252124,-4.20972319711905,344.298735516424
738336.40637454320676624775,-1.78482416252124,-4.19741406496373,344.286426384269
738336.40637463354505598545,-1.78482416252124,-4.19741406496373,344.261808119958
738336.40637472399976104498,-1.78482416252124,-4.18510493280842,344.261808119958
738336.40637481445446610451,-1.78482416252124,-4.18510493280842,344.311044648579
738336.40637490490917116404,-1.78482416252124,-4.18510493280842,344.33566291289
738336.40637499536387622356,-1.78482416252124,-4.18510493280842,344.261808119958
738336.40637508581858128309,-1.78482416252124,-4.1727958006531,344.138716798405
738336.40637517627328634262,-1.77251503036592,-4.1727958006531,344.114098534094
738336.40637526661157608032,-1.77251503036592,-4.18510493280842,344.237189855647
738336.40637535706628113985,-1.7602058982106,-4.1727958006531,344.249498987803
738336.40637544752098619938,-1.74789676605528,-4.1727958006531,344.261808119958
738336.40637553797569125891,-1.74789676605528,-4.1727958006531,344.212571591337
738336.40637562843039631844,-1.73558763389996,-4.16048666849778,344.249498987803
738336.40637571888510137796,-1.73558763389996,-4.16048666849778,344.274117252113
738336.40637580922339111567,-1.72327850174464,-4.16048666849778,344.274117252113
738336.40637589967809617519,-1.71096936958932,-4.16048666849778,344.286426384269
738336.40637599013280123472,-1.698660237434,-4.16048666849778,344.323353780735
738336.40637608058750629425,-1.67404197312337,-4.14817753634246,344.347972045045
738336.40637617104221135378,-1.66173284096805,-4.13586840418714,344.323353780735
738336.40637626149691641331,-1.63711457665741,-4.12355927203182,344.261808119958
738336.40637635195162147284,-1.60018718019145,-4.1112501398765,344.33566291289
738336.40637644228991121054,-1.57556891588082,-4.1112501398765,344.372590309356
738336.40637653274461627007,-1.55095065157018,-4.09894100772118,344.397208573667
738336.40637662319932132959,-1.53864151941486,-4.09894100772118,344.409517705822
738336.40637671365402638912,-1.51402325510422,-4.08663187556586,344.434135970133
738336.40637680410873144865,-1.48940499079358,-4.08663187556586,344.372590309356
738336.40637689456343650818,-1.46478672648295,-4.08663187556586,344.409517705822
738336.40637698490172624588,-1.44016846217231,-4.08663187556586,344.421826837977
738336.40637707535643130541,-1.44016846217231,-4.09894100772118,344.434135970133
738336.40637716581113636494,-1.45247759432763,-4.12355927203182,344.384899441511
738336.40637725626584142447,-1.48940499079358,-4.13586840418714,344.384899441511
738336.40637734672054648399,-1.55095065157018,-4.14817753634246,344.421826837977
738336.40637743717525154352,-1.61249631234677,-4.16048666849778,344.33566291289
738336.40637752751354128122,-1.64942370881273,-4.1727958006531,344.249498987803
738336.40637761796824634075,-1.698660237434,-4.19741406496373,344.311044648579
738336.40637770842295140028,-1.72327850174464,-4.19741406496373,344.311044648579
738336.40637779887765645981,-1.74789676605528,-4.20972319711905,344.261808119958
738336.40637788933236151934,-1.7602058982106,-4.19741406496373,344.212571591337
738336.40637797978706657887,-1.77251503036592,-4.20972319711905,344.286426384269
738336.40637807024177163839,-1.78482416252124,-4.20972319711905,344.286426384269
738336.40637816058006137609,-1.79713329467655,-4.20972319711905,344.249498987803
738336.40637825103476643562,-1.79713329467655,-4.20972319711905,344.274117252113
738336.40637834148947149515,-1.79713329467655,-4.22203232927437,344.298735516424
738336.40637843194417655468,-1.79713329467655,-4.22203232927437,344.274117252113
738336.40637852239888161421,-1.79713329467655,-4.22203232927437,344.224880723492
738336.40637861285358667374,-1.79713329467655,-4.20972319711905,344.261808119958
738336.40637870319187641144,-1.79713329467655,-4.22203232927437,344.138716798405
738336.40637879364658147097,-1.79713329467655,-4.20972319711905,344.212571591337
738336.40637888410128653049,-1.79713329467655,-4.20972319711905,344.298735516424
738336.40637897455599159002,-1.79713329467655,-4.20972319711905,344.298735516424
738336.40637906501069664955,-1.78482416252124,-4.20972319711905,344.286426384269
738336.40637915546540170908,-1.78482416252124,-4.22203232927437,344.249498987803
738336.40637924592010676861,-1.79713329467655,-4.20972319711905,344.298735516424
738336.40637933625839650631,-1.79713329467655,-4.22203232927437,344.261808119958
738336.40637942671310156584,-1.79713329467655,-4.20972319711905,344.175644194871
738336.40637951716780662537,-1.79713329467655,-4.20972319711905,344.175644194871
738336.40637960762251168489,-1.79713329467655,-4.20972319711905,344.237189855647
738336.40637969807721674442,-1.79713329467655,-4.20972319711905,344.224880723492
738336.40637978853192180395,-1.79713329467655,-4.20972319711905,344.200262459181
738336.40637987887021154165,-1.79713329467655,-4.20972319711905,344.200262459181
738336.40637996932491660118,-1.79713329467655,-4.20972319711905,344.212571591337
738336.40638005977962166071,-1.79713329467655,-4.20972319711905,344.200262459181
738336.40638015023432672024,-1.79713329467655,-4.19741406496373,344.175644194871
738336.40638024068903177977,-1.80944242683187,-4.20972319711905,344.224880723492
