time_dn,ecg_projection_ll_ra_mV,ecg_projection_la_ra_mV,ecg_projection_vx_rl_mV
738359.42013342620339244604,1.94484288054038,-6.22842087059135,337.110202337718
738359.42013351665809750557,1.94484288054038,-6.21611173843603,337.085584073407
738359.42013360711280256510,1.94484288054038,-6.3268939278339,337.159438866339
738359.42013369756750762463,1.92022461622974,-6.28996653136794,337.110202337718
738359.42013378790579736233,1.94484288054038,-6.22842087059135,337.060965809097
738359.42013387836050242186,1.94484288054038,-6.24073000274667,336.99942014832
738359.42013396881520748138,1.93253374838506,-6.28996653136794,337.110202337718
738359.42013405926991254091,1.92022461622974,-6.27765739921262,337.110202337718
738359.42013414972461760044,1.92022461622974,-6.22842087059135,337.085584073407
738359.42013424006290733814,1.94484288054038,-6.30227566352326,337.085584073407
738359.42013433051761239767,1.90791548407442,-6.24073000274667,337.085584073407
738359.42013442097231745720,1.92022461622974,-6.27765739921262,337.036347544786
738359.42013451142702251673,1.93253374838506,-6.21611173843603,336.900947091077
738359.42013460188172757626,1.92022461622974,-6.33920305998922,337.048656676941
738359.42013469233643263578,1.93253374838506,-6.21611173843603,336.987111016165
738359.42013478267472237349,1.92022461622974,-6.28996653136794,337.073274941252
738359.42013487312942743301,1.89560635191911,-6.2653482670573,337.097893205563
738359.42013496358413249254,1.89560635191911,-6.2653482670573,337.097893205563
738359.42013505403883755207,1.89560635191911,-6.27765739921262,337.036347544786
738359.42013514449354261160,1.92022461622974,-6.2653482670573,337.097893205563
738359.42013523483183234930,1.92022461622974,-6.27765739921262,337.097893205563
738359.42013532528653740883,1.89560635191911,-6.24073000274667,337.085584073407
738359.42013541574124246836,1.89560635191911,-6.31458479567858,337.048656676941
738359.42013550619594752789,1.90791548407442,-6.22842087059135,337.097893205563
738359.42013559665065258741,1.89560635191911,-6.28996653136794,337.097893205563
738359.42013568698894232512,1.92022461622974,-6.24073000274667,337.060965809097
738359.42013577744364738464,1.93253374838506,-6.21611173843603,337.110202337718
738359.42013586789835244417,1.9571520126957,-6.19149347412539,337.110202337718
738359.42013595835305750370,1.9571520126957,-6.19149347412539,337.110202337718
738359.42013604880776256323,1.98177027700634,-6.17918434197007,337.048656676941
738359.42013613926246762276,2.03100680562761,-6.0684021525722,337.147129734184
738359.42013622960075736046,2.01869767347229,-6.17918434197007,337.159438866339
738359.42013632005546241999,1.96946114485102,-6.10532954903816,337.110202337718
738359.42013641051016747952,1.9571520126957,-6.15456607765943,337.085584073407
738359.42013650096487253904,1.9571520126957,-6.1299478133488,337.134820602028
738359.42013659141957759857,1.90791548407442,-6.19149347412539,337.122511469873
738359.42013668175786733627,1.89560635191911,-6.15456607765943,337.060965809097
738359.42013677221257239580,1.90791548407442,-6.24073000274667,337.134820602028
738359.42013686266727745533,1.87098808760847,-6.25303913490198,337.085584073407
738359.42013695312198251486,1.88329721976379,-6.2653482670573,337.060965809097
738359.42013704357668757439,1.87098808760847,-6.24073000274667,337.122511469873
738359.42013713403139263391,1.84636982329783,-6.25303913490198,337.122511469873
738359.42013722436968237162,1.87098808760847,-6.21611173843603,337.036347544786
738359.42013731482438743114,1.85867895545315,-6.24073000274667,337.110202337718
738359.42013740527909249067,1.85867895545315,-6.27765739921262,337.024038412631
738359.42013749573379755020,1.85867895545315,-6.2653482670573,337.048656676941
738359.42013758618850260973,1.98177027700634,-6.0684021525722,337.097893205563
738359.42013767652679234743,2.1540981271808,-5.66220079144668,337.085584073407
738359.42013776698149740696,2.28949858088931,-5.42832728049562,337.110202337718
738359.42013785743620246649,2.49875382752973,-5.08367158014669,336.987111016165
738359.42013794789090752602,2.36335337382122,-5.19445376954456,336.765546637369
738359.42013803834561258554,1.92022461622974,-5.82221950946582,336.900947091077
738359.42013812880031764507,1.55095065157018,-6.53614917447432,337.097893205563
738359.42013821913860738277,1.66173284096805,-6.41305785292113,337.110202337718
738359.42013830959331244230,1.82175155898719,-6.22842087059135,337.134820602028
738359.42013840004801750183,1.85867895545315,-6.20380260628071,337.122511469873
738359.42013849050272256136,1.85867895545315,-6.17918434197007,337.147129734184
738359.42013858095742762089,1.83406069114251,-6.20380260628071,337.110202337718
738359.42013867129571735859,1.85867895545315,-6.20380260628071,337.18405713065
738359.42013876175042241812,1.85867895545315,-6.15456607765943,337.196366262805
738359.42013885220512747765,1.87098808760847,-6.19149347412539,337.110202337718
738359.42013894265983253717,1.85867895545315,-6.19149347412539,337.134820602028
738359.42013903311453759670,1.85867895545315,-6.15456607765943,337.122511469873
738359.42013912345282733440,1.85867895545315,-6.15456607765943,337.171747998494
738359.42013921390753239393,1.85867895545315,-6.15456607765943,337.097893205563
738359.42013930436223745346,1.87098808760847,-6.15456607765943,337.097893205563
738359.42013939481694251299,1.87098808760847,-6.15456607765943,337.171747998494
738359.42013948527164757252,1.88329721976379,-6.08071128472752,337.122511469873
738359.42013957572635263205,1.88329721976379,-6.17918434197007,337.036347544786
738359.42013966606464236975,1.87098808760847,-6.1299478133488,337.134820602028
738359.42013975651934742928,1.88329721976379,-6.09302041688284,337.147129734184
738359.42013984697405248880,1.88329721976379,-6.0684021525722,337.073274941252
738359.42013993742875754833,1.92022461622974,-6.09302041688284,337.097893205563
738359.42014002788346260786,1.92022461622974,-6.0684021525722,337.159438866339
738359.42014011822175234556,1.90791548407442,-6.01916562395093,337.122511469873
738359.42014020867645740509,1.93253374838506,-6.01916562395093,337.110202337718
738359.42014029913116246462,1.94484288054038,-6.01916562395093,337.073274941252
738359.42014038958586752415,1.94484288054038,-5.98223822748497,337.122511469873
738359.42014048004057258368,1.9571520126957,-5.94531083101901,337.122511469873
738359.42014057049527764320,1.98177027700634,-5.93300169886369,336.99942014832
738359.42014066083356738091,1.98177027700634,-5.85914690593178,337.134820602028
738359.42014075128827244043,2.01869767347229,-5.84683777377646,337.122511469873
738359.42014084174297749996,2.04331593778293,-5.77298298084455,337.147129734184
738359.42014093219768255949,2.06793420209357,-5.78529211299987,337.110202337718
738359.42014102265238761902,2.05562506993825,-5.71143732006795,337.122511469873
738359.42014111299067735672,2.10486159855953,-5.674509923602,337.073274941252
738359.42014120344538241625,2.09255246640421,-5.63758252713604,337.048656676941
738359.42014129390008747578,2.10486159855953,-5.63758252713604,337.073274941252
738359.42014138435479253531,2.11717073071485,-5.64989165929136,337.073274941252
738359.42014147480949759483,2.10486159855953,-5.63758252713604,337.024038412631
738359.42014156514778733253,2.11717073071485,-5.66220079144668,336.937874487543
738359.42014165560249239206,2.10486159855953,-5.77298298084455,337.085584073407
738359.42014174605719745159,2.06793420209357,-5.80991037731051,337.097893205563
738359.42014183651190251112,2.05562506993825,-5.84683777377646,337.073274941252
738359.42014192696660757065,1.99407940916166,-5.92069256670838,337.060965809097
738359.42014201742131263018,1.9571520126957,-5.99454735964029,337.085584073407
738359.42014210775960236788,1.94484288054038,-6.00685649179561,337.110202337718
738359.42014219821430742741,1.93253374838506,-6.03147475610625,337.036347544786
738359.42014228866901248693,1.92022461622974,-6.05609302041688,337.097893205563
738359.42014237912371754646,1.89560635191911,-6.09302041688284,337.097893205563
738359.42014246957842260599,1.89560635191911,-6.08071128472752,337.036347544786
738359.42014255991671234369,1.89560635191911,-6.08071128472752,337.060965809097
738359.42014265037141740322,1.88329721976379,-6.10532954903816,337.060965809097
738359.42014274082612246275,1.89560635191911,-6.04378388826156,337.060965809097
738359.42014283128082752228,1.88329721976379,-6.08071128472752,337.097893205563
738359.42014292173553258181,1.88329721976379,-6.11763868119348,337.048656676941
738359.42014301219023764133,1.87098808760847,-6.03147475610625,337.085584073407
738359.42014310252852737904,1.89560635191911,-6.08071128472752,337.159438866339
738359.42014319298323243856,1.90791548407442,-6.0684021525722,337.134820602028
738359.42014328343793749809,1.88329721976379,-6.03147475610625,337.060965809097
738359.42014337389264255762,1.88329721976379,-6.03147475610625,337.097893205563
738359.42014346434734761715,1.89560635191911,-6.1299478133488,337.147129734184
738359.42014355468563735485,1.88329721976379,-6.05609302041688,337.097893205563
738359.42014364514034241438,1.89560635191911,-6.01916562395093,337.073274941252
738359.42014373559504747391,1.89560635191911,-6.09302041688284,337.085584073407
738359.42014382604975253344,1.89560635191911,-6.03147475610625,337.085584073407
738359.42014391650445759296,1.88329721976379,-6.08071128472752,337.048656676941
738359.42014400695916265249,1.90791548407442,-6.03147475610625,337.110202337718
738359.42014409729745239019,1.89560635191911,-6.00685649179561,337.073274941252
738359.42014418775215744972,1.89560635191911,-6.17918434197007,337.048656676941
738359.42014427820686250925,1.88329721976379,-5.98223822748497,337.097893205563
738359.42014436866156756878,1.88329721976379,-6.08071128472752,337.122511469873
738359.42014445911627262831,1.89560635191911,-6.0684021525722,337.085584073407
738359.42014454945456236601,1.88329721976379,-6.03147475610625,337.097893205563
738359.42014463990926742554,1.88329721976379,-6.04378388826156,337.110202337718
738359.42014473036397248507,1.89560635191911,-6.11763868119348,337.110202337718
738359.42014482081867754459,1.89560635191911,-6.05609302041688,337.073274941252
738359.42014491127338260412,1.89560635191911,-6.03147475610625,337.085584073407
738359.42014500161167234182,1.89560635191911,-6.01916562395093,336.888637958922
738359.42014509206637740135,1.89560635191911,-6.15456607765943,336.888637958922
738359.42014518252108246088,1.89560635191911,-6.1299478133488,337.024038412631
738359.42014527297578752041,1.90791548407442,-6.00685649179561,337.036347544786
738359.42014536343049257994,1.89560635191911,-6.04378388826156,337.024038412631
738359.42014545388519763947,1.92022461622974,-6.1299478133488,336.99942014832
738359.42014554422348737717,1.89560635191911,-6.03147475610625,337.085584073407
738359.42014563467819243670,1.90791548407442,-6.03147475610625,337.073274941252
738359.42014572513289749622,1.89560635191911,-6.09302041688284,336.99942014832
738359.42014581558760255575,1.89560635191911,-6.0684021525722,337.073274941252
738359.42014590604230761528,1.89560635191911,-6.00685649179561,337.011729280475
738359.42014599638059735298,1.92022461622974,-6.09302041688284,337.036347544786
738359.42014608683530241251,1.90791548407442,-6.14225694550411,337.036347544786
738359.42014617729000747204,1.90791548407442,-5.99454735964029,337.122511469873
738359.42014626774471253157,1.89560635191911,-6.05609302041688,337.122511469873
738359.42014635819941759109,1.89560635191911,-6.05609302041688,337.060965809097
738359.42014644865412265062,1.92022461622974,-6.05609302041688,337.073274941252
738359.42014653899241238832,1.90791548407442,-6.05609302041688,337.110202337718
738359.42014662944711744785,1.90791548407442,-6.05609302041688,337.134820602028
738359.42014671990182250738,1.90791548407442,-6.05609302041688,337.060965809097
738359.42014681035652756691,1.90791548407442,-6.05609302041688,337.110202337718
738359.42014690081123262644,1.88329721976379,-6.05609302041688,337.110202337718
738359.42014699114952236414,1.90791548407442,-6.05609302041688,337.036347544786
738359.42014708160422742367,1.93253374838506,-6.04378388826156,337.048656676941
738359.42014717205893248320,1.90791548407442,-6.04378388826156,337.073274941252
738359.42014726251363754272,1.92022461622974,-6.04378388826156,337.048656676941
738359.42014735296834260225,1.93253374838506,-6.04378388826156,336.950183619699
738359.42014744330663233995,1.90791548407442,-6.05609302041688,337.097893205563
738359.42014753376133739948,1.90791548407442,-6.05609302041688,337.097893205563
738359.42014762421604245901,1.92022461622974,-6.04378388826156,337.073274941252
738359.42014771467074751854,1.92022461622974,-6.03147475610625,337.110202337718
738359.42014780512545257807,1.90791548407442,-6.04378388826156,337.110202337718
738359.42014789558015763760,1.92022461622974,-6.04378388826156,337.085584073407
738359.42014798591844737530,1.93253374838506,-6.04378388826156,337.097893205563
738359.42014807637315243483,1.93253374838506,-6.01916562395093,337.073274941252
738359.42014816682785749435,1.93253374838506,-6.00685649179561,337.097893205563
738359.42014825728256255388,1.9571520126957,-6.00685649179561,337.110202337718
738359.42014834773726761341,1.96946114485102,-5.98223822748497,337.097893205563
738359.42014843807555735111,1.98177027700634,-5.96992909532965,337.073274941252
738359.42014852853026241064,1.99407940916166,-5.92069256670838,336.925565355388
738359.42014861898496747017,2.06793420209357,-5.83452864162114,337.036347544786
738359.42014870943967252970,2.03100680562761,-5.89607430239774,337.085584073407
738359.42014879989437758923,1.99407940916166,-5.94531083101901,337.110202337718
738359.42014889034908264875,1.99407940916166,-5.93300169886369,337.134820602028
738359.42014898068737238646,1.98177027700634,-5.92069256670838,337.134820602028
738359.42014907114207744598,1.9571520126957,-5.94531083101901,337.085584073407
738359.42014916159678250551,1.96946114485102,-5.96992909532965,337.147129734184
738359.42014925205148756504,1.94484288054038,-5.99454735964029,337.147129734184
738359.42014934250619262457,1.92022461622974,-6.01916562395093,337.097893205563
738359.42014943284448236227,1.92022461622974,-6.04378388826156,337.134820602028
738359.42014952329918742180,1.90791548407442,-6.01916562395093,337.073274941252
738359.42014961375389248133,1.90791548407442,-6.04378388826156,337.048656676941
738359.42014970420859754086,1.92022461622974,-6.01916562395093,337.073274941252
738359.42014979466330260038,1.93253374838506,-6.00685649179561,337.073274941252
738359.42014988511800765991,1.90791548407442,-6.04378388826156,337.073274941252
738359.42014997545629739761,1.93253374838506,-6.01916562395093,337.122511469873
738359.42015006591100245714,2.04331593778293,-5.85914690593178,337.122511469873
738359.42015015636570751667,2.2156437879574,-5.45294554480626,337.097893205563
738359.42015024682041257620,2.53568122399569,-4.91134372997223,336.987111016165
738359.42015033727511763573,2.52337209184037,-4.81287067272968,336.888637958922
738359.42015042761340737343,2.25257118442335,-5.23138116601052,336.925565355388
738359.42015051806811243296,1.74789676605528,-6.05609302041688,337.060965809097
738359.42015060852281749249,1.66173284096805,-6.2653482670573,337.097893205563
738359.42015069897752255201,1.74789676605528,-6.1299478133488,337.147129734184
738359.42015078943222761154,1.88329721976379,-6.03147475610625,337.196366262805
738359.42015087977051734924,1.94484288054038,-5.93300169886369,337.073274941252
738359.42015097022522240877,1.9571520126957,-5.96992909532965,337.110202337718
738359.42015106067992746830,1.9571520126957,-5.96992909532965,337.134820602028
738359.42015115113463252783,1.94484288054038,-5.96992909532965,337.171747998494
738359.42015124158933758736,1.92022461622974,-5.99454735964029,337.097893205563
738359.42015133204404264688,1.94484288054038,-5.96992909532965,337.036347544786
738359.42015142238233238459,1.96946114485102,-5.96992909532965,337.159438866339
738359.42015151283703744411,1.94484288054038,-5.95761996317433,337.097893205563
738359.42015160329174250364,1.9571520126957,-5.92069256670838,337.097893205563
738359.42015169374644756317,1.96946114485102,-5.94531083101901,337.097893205563
738359.42015178420115262270,1.96946114485102,-5.98223822748497,337.097893205563
738359.42015187453944236040,1.96946114485102,-5.90838343455306,337.134820602028
738359.42015196499414741993,1.9571520126957,-5.90838343455306,337.122511469873
738359.42015205544885247946,1.99407940916166,-5.90838343455306,336.962492751854
738359.42015214590355753899,2.00638854131698,-5.8714560380871,336.99942014832
738359.42015223635826259851,2.00638854131698,-5.93300169886369,337.036347544786
738359.42015232681296765804,2.01869767347229,-5.84683777377646,337.060965809097
738359.42015241715125739574,2.03100680562761,-5.84683777377646,337.147129734184
738359.42015250760596245527,2.03100680562761,-5.83452864162114,337.159438866339
738359.42015259806066751480,2.04331593778293,-5.82221950946582,337.196366262805
738359.42015268851537257433,2.05562506993825,-5.78529211299987,337.097893205563
738359.42015277897007763386,2.05562506993825,-5.82221950946582,337.147129734184
738359.42015286930836737156,2.06793420209357,-5.73605558437859,337.159438866339
738359.42015295976307243109,2.08024333424889,-5.74836471653391,337.171747998494
738359.42015305021777749062,2.10486159855953,-5.68681905575732,337.171747998494
738359.42015314067248255014,2.12947986287016,-5.66220079144668,337.20867539496
738359.42015323112718760967,2.12947986287016,-5.66220079144668,337.171747998494
738359.42015332158189266920,2.16640725933612,-5.58834599851477,337.097893205563
738359.42015341192018240690,2.16640725933612,-5.52680033773817,337.171747998494
738359.42015350237488746643,2.2156437879574,-5.4775638091169,337.18405713065
738359.42015359282959252596,2.20333465580208,-5.4775638091169,337.147129734184
738359.42015368328429758549,2.25257118442335,-5.42832728049562,337.196366262805
738359.42015377373900264502,2.24026205226803,-5.44063641265094,337.196366262805
738359.42015386407729238272,2.26488031657867,-5.42832728049562,337.196366262805
738359.42015395453199744225,2.25257118442335,-5.45294554480626,337.134820602028
738359.42015404498670250177,2.25257118442335,-5.52680033773817,337.20867539496
738359.42015413544140756130,2.20333465580208,-5.57603686635945,337.110202337718
738359.42015422589611262083,2.17871639149144,-5.6129642628254,337.122511469873
738359.42015431623440235853,2.1540981271808,-5.68681905575732,337.159438866339
738359.42015440668910741806,2.12947986287016,-5.76067384868923,337.18405713065
738359.42015449714381247759,2.10486159855953,-5.80991037731051,337.073274941252
738359.42015458759851753712,2.05562506993825,-5.80991037731051,337.073274941252
738359.42015467805322259665,2.08024333424889,-5.83452864162114,337.073274941252
738359.42015476850792765617,2.04331593778293,-5.85914690593178,337.073274941252
738359.42015485884621739388,2.04331593778293,-5.88376517024242,337.036347544786
738359.42015494930092245340,2.03100680562761,-5.88376517024242,337.048656676941
738359.42015503975562751293,2.03100680562761,-5.88376517024242,337.097893205563
738359.42015513021033257246,2.01869767347229,-5.92069256670838,337.060965809097
738359.42015522066503763199,2.03100680562761,-5.88376517024242,337.122511469873
738359.42015531100332736969,2.04331593778293,-5.90838343455306,337.122511469873
738359.42015540145803242922,2.01869767347229,-5.88376517024242,337.048656676941
738359.42015549191273748875,2.03100680562761,-5.89607430239774,337.110202337718
738359.42015558236744254827,2.03100680562761,-5.89607430239774,336.937874487543
738359.42015567282214760780,2.03100680562761,-5.89607430239774,336.99942014832
738359.42015576327685266733,2.05562506993825,-5.8714560380871,337.060965809097
738359.42015585361514240503,2.04331593778293,-5.90838343455306,337.048656676941
738359.42015594406984746456,2.03100680562761,-5.8714560380871,337.085584073407
738359.42015603452455252409,2.03100680562761,-5.88376517024242,337.122511469873
738359.42015612497925758362,2.03100680562761,-5.89607430239774,337.122511469873
738359.42015621543396264315,2.04331593778293,-5.89607430239774,337.085584073407
738359.42015630577225238085,2.04331593778293,-5.90838343455306,337.073274941252
738359.42015639622695744038,2.05562506993825,-5.8714560380871,337.073274941252
738359.42015648668166249990,2.05562506993825,-5.88376517024242,337.097893205563
738359.42015657713636755943,2.06793420209357,-5.88376517024242,337.073274941252
738359.42015666759107261896,2.04331593778293,-5.89607430239774,337.085584073407
738359.42015675792936235666,2.04331593778293,-5.88376517024242,337.159438866339
738359.42015684838406741619,2.03100680562761,-5.88376517024242,337.171747998494
738359.42015693883877247572,2.05562506993825,-5.90838343455306,337.196366262805
738359.42015702929347753525,2.05562506993825,-5.89607430239774,337.147129734184
738359.42015711974818259478,2.05562506993825,-5.88376517024242,337.171747998494
738359.42015721020288765430,2.04331593778293,-5.89607430239774,337.159438866339
738359.42015730054117739201,2.03100680562761,-5.89607430239774,337.171747998494
738359.42015739099588245153,2.04331593778293,-5.90838343455306,337.220984527116
738359.42015748145058751106,2.05562506993825,-5.92069256670838,337.196366262805
738359.42015757190529257059,2.05562506993825,-5.8714560380871,337.097893205563
738359.42015766235999763012,2.04331593778293,-5.89607430239774,337.196366262805
738359.42015775269828736782,2.04331593778293,-5.90838343455306,337.233293659271
738359.42015784315299242735,2.05562506993825,-5.90838343455306,337.085584073407
738359.42015793360769748688,2.05562506993825,-5.88376517024242,337.147129734184
738359.42015802406240254641,2.06793420209357,-5.88376517024242,337.159438866339
738359.42015811451710760593,2.06793420209357,-5.90838343455306,337.147129734184
738359.42015820497181266546,2.05562506993825,-5.89607430239774,337.060965809097
738359.42015829531010240316,2.06793420209357,-5.88376517024242,337.159438866339
738359.42015838576480746269,2.08024333424889,-5.88376517024242,337.171747998494
738359.42015847621951252222,2.06793420209357,-5.89607430239774,337.122511469873
738359.42015856667421758175,2.05562506993825,-5.90838343455306,337.024038412631
738359.42015865712892264128,2.06793420209357,-5.89607430239774,337.134820602028
738359.42015874746721237898,2.05562506993825,-5.90838343455306,337.036347544786
738359.42015883792191743851,2.06793420209357,-5.90838343455306,337.097893205563
738359.42015892837662249804,2.06793420209357,-5.89607430239774,337.060965809097
738359.42015901883132755756,2.06793420209357,-5.89607430239774,337.011729280475
738359.42015910928603261709,2.09255246640421,-5.88376517024242,337.011729280475
738359.42015919974073767662,2.08024333424889,-5.90838343455306,337.048656676941
738359.42015929007902741432,2.06793420209357,-5.88376517024242,337.085584073407
738359.42015938053373247385,2.08024333424889,-5.89607430239774,337.147129734184
738359.42015947098843753338,2.06793420209357,-5.90838343455306,337.147129734184
738359.42015956144314259291,2.06793420209357,-5.89607430239774,337.134820602028
738359.42015965189784765244,2.09255246640421,-5.90838343455306,337.147129734184
738359.42015974223613739014,2.08024333424889,-5.8714560380871,337.159438866339
738359.42015983269084244967,2.09255246640421,-5.89607430239774,337.159438866339
738359.42015992314554750919,2.09255246640421,-5.88376517024242,337.122511469873
738359.42016001360025256872,2.09255246640421,-5.88376517024242,337.159438866339
738359.42016010405495762825,2.09255246640421,-5.89607430239774,337.147129734184
738359.42016019439324736595,2.11717073071485,-5.88376517024242,337.110202337718
738359.42016028484795242548,2.06793420209357,-5.93300169886369,337.097893205563
738359.42016037530265748501,2.08024333424889,-5.89607430239774,337.048656676941
738359.42016046575736254454,2.09255246640421,-5.8714560380871,337.036347544786
738359.42016055621206760406,2.10486159855953,-5.88376517024242,337.036347544786
738359.42016064666677266359,2.11717073071485,-5.89607430239774,337.097893205563
738359.42016073700506240129,2.11717073071485,-5.8714560380871,337.036347544786
738359.42016082745976746082,2.11717073071485,-5.88376517024242,337.048656676941
738359.42016091791447252035,2.12947986287016,-5.84683777377646,337.134820602028
738359.42016100836917757988,2.1540981271808,-5.84683777377646,337.147129734184
738359.42016109882388263941,2.1540981271808,-5.8714560380871,337.159438866339
738359.42016118916217237711,2.19102552364676,-5.76067384868923,337.171747998494
738359.42016127961687743664,2.22795292011272,-5.74836471653391,337.18405713065
738359.42016137007158249617,2.22795292011272,-5.72374645222327,337.220984527116
738359.42016146052628755569,2.20333465580208,-5.78529211299987,337.245602791426
738359.42016155098099261522,2.17871639149144,-5.78529211299987,337.134820602028
738359.42016164143569767475,2.16640725933612,-5.82221950946582,337.233293659271
738359.42016173177398741245,2.14178899502548,-5.79760124515519,337.220984527116
738359.42016182222869247198,2.14178899502548,-5.80991037731051,337.220984527116
738359.42016191268339753151,2.12947986287016,-5.8714560380871,337.147129734184
738359.42016200313810259104,2.11717073071485,-5.85914690593178,337.085584073407
738359.42016209359280765057,2.10486159855953,-5.90838343455306,337.20867539496
738359.42016218393109738827,2.10486159855953,-5.89607430239774,337.220984527116
738359.42016227438580244780,2.09255246640421,-5.89607430239774,337.122511469873
738359.42016236484050750732,2.10486159855953,-5.90838343455306,337.159438866339
738359.42016245529521256685,2.11717073071485,-5.90838343455306,337.196366262805
738359.42016254574991762638,2.11717073071485,-5.89607430239774,337.196366262805
738359.42016263608820736408,2.09255246640421,-5.92069256670838,337.036347544786
738359.42016272654291242361,2.19102552364676,-5.88376517024242,337.110202337718
738359.42016281699761748314,2.30180771304463,-5.60065513067009,337.196366262805
738359.42016290745232254267,2.54799035615101,-5.05905331583605,337.134820602028
738359.42016299790702760220,2.79417299925738,-4.67747021902117,337.048656676941
738359.42016308836173266172,2.68339080985951,-4.825179804885,336.950183619699
738359.42016317870002239943,2.20333465580208,-5.46525467696158,337.085584073407
738359.42016326915472745895,1.83406069114251,-6.19149347412539,337.097893205563
738359.42016335960943251848,1.93253374838506,-6.04378388826156,337.122511469873
738359.42016345006413757801,2.08024333424889,-5.92069256670838,337.134820602028
738359.42016354051884263754,2.12947986287016,-5.83452864162114,337.122511469873
738359.42016363085713237524,2.11717073071485,-5.8714560380871,337.147129734184
738359.42016372131183743477,2.12947986287016,-5.8714560380871,337.097893205563
738359.42016381176654249430,2.14178899502548,-5.8714560380871,337.134820602028
738359.42016390222124755383,2.14178899502548,-5.88376517024242,337.060965809097
738359.42016399267595261335,2.12947986287016,-5.88376517024242,337.073274941252
738359.42016408313065767288,2.11717073071485,-5.85914690593178,337.085584073407
738359.42016417346894741058,2.11717073071485,-5.88376517024242,337.110202337718
738359.42016426392365247011,2.1540981271808,-5.8714560380871,337.085584073407
738359.42016435437835752964,2.1540981271808,-5.8714560380871,337.097893205563
738359.42016444483306258917,2.1540981271808,-5.82221950946582,337.147129734184
738359.42016453528776764870,2.16640725933612,-5.84683777377646,337.134820602028
738359.42016462562605738640,2.16640725933612,-5.83452864162114,337.097893205563
738359.42016471608076244593,2.17871639149144,-5.83452864162114,337.097893205563
738359.42016480653546750546,2.16640725933612,-5.82221950946582,337.085584073407
738359.42016489699017256498,2.20333465580208,-5.78529211299987,337.110202337718
738359.42016498744487762451,2.20333465580208,-5.79760124515519,337.110202337718
738359.42016507789958268404,2.19102552364676,-5.77298298084455,337.085584073407
738359.42016516823787242174,2.19102552364676,-5.78529211299987,337.122511469873
738359.42016525869257748127,2.2156437879574,-5.77298298084455,337.085584073407
738359.42016534914728254080,2.2156437879574,-5.73605558437859,337.073274941252
738359.42016543960198760033,2.26488031657867,-5.69912818791264,337.060965809097
738359.42016553005669265985,2.25257118442335,-5.68681905575732,337.097893205563
738359.42016562039498239756,2.26488031657867,-5.66220079144668,337.122511469873
738359.42016571084968745708,2.28949858088931,-5.64989165929136,337.110202337718
738359.42016580130439251661,2.28949858088931,-5.62527339498072,337.18405713065
738359.42016589175909757614,2.31411684519995,-5.60065513067009,337.220984527116
738359.42016598221380263567,2.31411684519995,-5.55141860204881,337.147129734184
738359.42016607255209237337,2.33873510951058,-5.48987294127221,337.171747998494
738359.42016616300679743290,2.37566250597654,-5.44063641265094,337.073274941252
738359.42016625346150249243,2.40028077028718,-5.40370901618498,337.048656676941
738359.42016634391620755196,2.4125899024425,-5.39139988402966,337.196366262805
738359.42016643437091261148,2.43720816675314,-5.37909075187434,337.220984527116
738359.42016652482561767101,2.4125899024425,-5.37909075187434,337.159438866339
738359.42016661516390740871,2.42489903459782,-5.37909075187434,337.159438866339
738359.42016670561861246824,2.42489903459782,-5.42832728049562,337.159438866339
738359.42016679607331752777,2.40028077028718,-5.45294554480626,337.18405713065
738359.42016688652802258730,2.36335337382122,-5.6129642628254,337.134820602028
738359.42016697698272764683,2.32642597735527,-5.6129642628254,337.171747998494
738359.42016706732101738453,2.28949858088931,-5.68681905575732,337.171747998494
738359.42016715777572244406,2.26488031657867,-5.72374645222327,337.110202337718
738359.42016724823042750359,2.25257118442335,-5.79760124515519,337.147129734184
738359.42016733868513256311,2.24026205226803,-5.83452864162114,337.134820602028
738359.42016742913983762264,2.22795292011272,-5.82221950946582,337.134820602028
738359.42016751959454268217,2.20333465580208,-5.84683777377646,337.122511469873
738359.42016760993283241987,2.20333465580208,-5.84683777377646,337.18405713065
738359.42016770038753747940,2.19102552364676,-5.8714560380871,337.073274941252
738359.42016779084224253893,2.17871639149144,-5.88376517024242,337.085584073407
738359.42016788129694759846,2.20333465580208,-5.85914690593178,337.134820602028
738359.42016797175165265799,2.20333465580208,-5.84683777377646,337.073274941252
738359.42016806208994239569,2.16640725933612,-5.95761996317433,337.073274941252
738359.42016815254464745522,2.16640725933612,-5.84683777377646,337.110202337718
738359.42016824299935251474,2.20333465580208,-5.84683777377646,337.085584073407
738359.42016833345405757427,2.17871639149144,-5.88376517024242,337.085584073407
738359.42016842390876263380,2.19102552364676,-5.89607430239774,337.122511469873
738359.42016851436346769333,2.16640725933612,-5.88376517024242,337.110202337718
738359.42016860470175743103,2.17871639149144,-5.8714560380871,337.097893205563
738359.42016869515646249056,2.20333465580208,-5.8714560380871,337.048656676941
738359.42016878561116755009,2.17871639149144,-5.89607430239774,337.147129734184
738359.42016887606587260962,2.20333465580208,-5.85914690593178,337.18405713065
738359.42016896652057766914,2.20333465580208,-5.89607430239774,337.122511469873
738359.42016905685886740685,2.17871639149144,-5.88376517024242,337.110202337718
738359.42016914731357246637,2.16640725933612,-5.89607430239774,337.147129734184
738359.42016923776827752590,2.17871639149144,-5.88376517024242,337.159438866339
738359.42016932822298258543,2.22795292011272,-5.84683777377646,337.073274941252
738359.42016941867768764496,2.16640725933612,-5.90838343455306,337.147129734184
738359.42016950901597738266,2.20333465580208,-5.89607430239774,337.147129734184
738359.42016959947068244219,2.14178899502548,-5.93300169886369,337.196366262805
738359.42016968992538750172,2.16640725933612,-5.93300169886369,337.024038412631
738359.42016978038009256124,2.20333465580208,-5.88376517024242,336.99942014832
738359.42016987083479762077,2.17871639149144,-5.92069256670838,337.159438866339
738359.42016996128950268030,2.2156437879574,-5.90838343455306,337.134820602028
738359.42017005162779241800,2.20333465580208,-5.90838343455306,337.134820602028
738359.42017014208249747753,2.17871639149144,-5.90838343455306,337.18405713065
738359.42017023253720253706,2.16640725933612,-5.96992909532965,337.122511469873
738359.42017032299190759659,2.20333465580208,-5.90838343455306,337.110202337718
738359.42017041344661265612,2.19102552364676,-5.90838343455306,337.171747998494
738359.42017050378490239382,2.14178899502548,-5.93300169886369,337.20867539496
738359.42017059423960745335,2.12947986287016,-5.96992909532965,337.097893205563
738359.42017068469431251287,2.19102552364676,-5.93300169886369,337.18405713065
738359.42017077514901757240,2.1540981271808,-5.95761996317433,337.18405713065
738359.42017086560372263193,2.19102552364676,-5.90838343455306,337.122511469873
738359.42017095605842769146,2.19102552364676,-5.94531083101901,337.147129734184
738359.42017104639671742916,2.17871639149144,-5.95761996317433,337.171747998494
738359.42017113685142248869,2.1540981271808,-5.94531083101901,337.171747998494
738359.42017122730612754822,2.17871639149144,-5.93300169886369,337.134820602028
738359.42017131776083260775,2.16640725933612,-5.96992909532965,337.110202337718
738359.42017140821553766727,2.14178899502548,-5.95761996317433,337.134820602028
738359.42017149855382740498,2.16640725933612,-5.94531083101901,337.097893205563
738359.42017158900853246450,2.17871639149144,-5.94531083101901,337.110202337718
738359.42017167946323752403,2.16640725933612,-5.96992909532965,337.122511469873
738359.42017176991794258356,2.17871639149144,-5.96992909532965,337.048656676941
738359.42017186037264764309,2.16640725933612,-5.93300169886369,337.097893205563
738359.42017195071093738079,2.20333465580208,-5.95761996317433,337.060965809097
738359.42017204116564244032,2.19102552364676,-5.92069256670838,337.073274941252
738359.42017213162034749985,2.1540981271808,-5.96992909532965,337.097893205563
738359.42017222207505255938,2.17871639149144,-5.94531083101901,337.097893205563
738359.42017231252975761890,2.19102552364676,-5.94531083101901,337.085584073407
738359.42017240298446267843,2.16640725933612,-5.95761996317433,337.110202337718
738359.42017249332275241613,2.16640725933612,-5.95761996317433,337.110202337718
738359.42017258377745747566,2.17871639149144,-5.96992909532965,337.085584073407
738359.42017267423216253519,2.16640725933612,-5.98223822748497,337.110202337718
738359.42017276468686759472,2.19102552364676,-5.93300169886369,337.097893205563
738359.42017285514157265425,2.16640725933612,-6.00685649179561,337.085584073407
738359.42017294547986239195,2.17871639149144,-5.98223822748497,337.122511469873
738359.42017303593456745148,2.2156437879574,-5.92069256670838,337.036347544786
738359.42017312638927251101,2.22795292011272,-5.94531083101901,337.073274941252
738359.42017321684397757053,2.25257118442335,-5.84683777377646,337.060965809097
738359.42017330729868263006,2.28949858088931,-5.83452864162114,337.024038412631
738359.42017339775338768959,2.28949858088931,-5.79760124515519,337.20867539496
738359.42017348809167742729,2.28949858088931,-5.85914690593178,337.048656676941
738359.42017357854638248682,2.24026205226803,-5.88376517024242,337.085584073407
738359.42017366900108754635,2.24026205226803,-5.88376517024242,337.20867539496
738359.42017375945579260588,2.22795292011272,-5.8714560380871,337.18405713065
738359.42017384991049766541,2.19102552364676,-5.90838343455306,337.097893205563
738359.42017394024878740311,2.19102552364676,-5.98223822748497,337.159438866339
738359.42017403070349246264,2.17871639149144,-5.95761996317433,337.171747998494
738359.42017412115819752216,2.14178899502548,-5.99454735964029,337.196366262805
738359.42017421161290258169,2.14178899502548,-5.96992909532965,337.073274941252
738359.42017430206760764122,2.16640725933612,-5.98223822748497,337.073274941252
738359.42017439252231270075,2.16640725933612,-6.00685649179561,337.073274941252
738359.42017448286060243845,2.16640725933612,-5.98223822748497,337.060965809097
738359.42017457331530749798,2.16640725933612,-6.00685649179561,337.073274941252
738359.42017466377001255751,2.16640725933612,-5.99454735964029,337.159438866339
738359.42017475422471761703,2.2156437879574,-5.95761996317433,337.171747998494
738359.42017484467942267656,2.28949858088931,-5.77298298084455,337.20867539496
738359.42017493501771241426,2.52337209184037,-5.32985422325307,337.220984527116
738359.42017502547241747379,2.84340952787866,-4.86210720135095,337.036347544786
738359.42017511592712253332,2.81879126356802,-4.83748893704032,337.011729280475
738359.42017520638182759285,2.43720816675314,-5.36678161971903,336.99942014832
738359.42017529683653265238,1.98177027700634,-6.14225694550411,337.159438866339
738359.42017538717482239008,1.9571520126957,-6.25303913490198,337.196366262805
738359.42017547762952744961,2.11717073071485,-5.96992909532965,337.122511469873
738359.42017556808423250914,2.19102552364676,-5.95761996317433,337.159438866339
738359.42017565853893756866,2.20333465580208,-5.92069256670838,337.18405713065
738359.42017574899364262819,2.20333465580208,-5.93300169886369,337.110202337718
738359.42017583944834768772,2.19102552364676,-5.94531083101901,337.159438866339
738359.42017592978663742542,2.17871639149144,-5.96992909532965,337.20867539496
738359.42017602024134248495,2.17871639149144,-5.94531083101901,337.147129734184
738359.42017611069604754448,2.20333465580208,-5.94531083101901,337.134820602028
738359.42017620115075260401,2.20333465580208,-5.90838343455306,337.147129734184
738359.42017629160545766354,2.2156437879574,-5.94531083101901,337.20867539496
738359.42017638194374740124,2.20333465580208,-5.94531083101901,337.097893205563
738359.42017647239845246077,2.20333465580208,-5.90838343455306,337.122511469873
738359.42017656285315752029,2.24026205226803,-5.8714560380871,337.073274941252
738359.42017665330786257982,2.25257118442335,-5.88376517024242,337.085584073407
738359.42017674376256763935,2.22795292011272,-5.90838343455306,337.048656676941
738359.42017683421727269888,2.25257118442335,-5.85914690593178,336.950183619699
738359.42017692455556243658,2.25257118442335,-5.8714560380871,337.171747998494
738359.42017701501026749611,2.25257118442335,-5.85914690593178,337.245602791426
738359.42017710546497255564,2.27718944873399,-5.84683777377646,337.220984527116
738359.42017719591967761517,2.26488031657867,-5.84683777377646,337.20867539496
738359.42017728637438267469,2.28949858088931,-5.80991037731051,337.159438866339
738359.42017737671267241240,2.31411684519995,-5.79760124515519,337.073274941252
738359.42017746716737747192,2.31411684519995,-5.77298298084455,337.097893205563
738359.42017755762208253145,2.33873510951058,-5.76067384868923,337.171747998494
738359.42017764807678759098,2.3510442416659,-5.72374645222327,337.097893205563
738359.42017773853149265051,2.36335337382122,-5.69912818791264,337.110202337718
738359.42017782898619771004,2.40028077028718,-5.674509923602,337.171747998494
738359.42017791932448744774,2.37566250597654,-5.62527339498072,337.171747998494
738359.42017800977919250727,2.42489903459782,-5.57603686635945,337.20867539496
738359.42017810023389756680,2.43720816675314,-5.52680033773817,337.159438866339
738359.42017819068860262632,2.44951729890845,-5.52680033773817,337.085584073407
738359.42017828114330768585,2.48644469537441,-5.45294554480626,337.073274941252
738359.42017837148159742355,2.49875382752973,-5.4160181483403,337.097893205563
738359.42017846193630248308,2.49875382752973,-5.42832728049562,337.097893205563
738359.42017855239100754261,2.51106295968505,-5.46525467696158,337.097893205563
738359.42017864284571260214,2.53568122399569,-5.40370901618498,337.122511469873
738359.42017873330041766167,2.54799035615101,-5.42832728049562,337.171747998494
738359.42017882363870739937,2.49875382752973,-5.51449120558285,337.233293659271
738359.42017891409341245890,2.46182643106377,-5.60065513067009,337.20867539496
738359.42017900454811751842,2.42489903459782,-5.64989165929136,337.085584073407
738359.42017909500282257795,2.40028077028718,-5.69912818791264,337.147129734184
738359.42017918545752763748,2.33873510951058,-5.80991037731051,337.20867539496
738359.42017927591223269701,2.33873510951058,-5.82221950946582,337.171747998494
738359.42017936625052243471,2.32642597735527,-5.83452864162114,337.134820602028
738359.42017945670522749424,2.28949858088931,-5.88376517024242,337.196366262805
738359.42017954715993255377,2.28949858088931,-5.85914690593178,337.18405713065
738359.42017963761463761330,2.31411684519995,-5.89607430239774,337.110202337718
738359.42017972806934267282,2.28949858088931,-5.92069256670838,337.097893205563
738359.42017981840763241053,2.28949858088931,-5.89607430239774,337.073274941252
738359.42017990886233747005,2.28949858088931,-5.92069256670838,337.097893205563
738359.42017999931704252958,2.26488031657867,-5.90838343455306,337.097893205563
738359.42018008977174758911,2.26488031657867,-5.93300169886369,337.110202337718
738359.42018018022645264864,2.26488031657867,-5.92069256670838,337.097893205563
738359.42018027068115770817,2.27718944873399,-5.89607430239774,337.048656676941
738359.42018036101944744587,2.28949858088931,-5.90838343455306,336.950183619699
738359.42018045147415250540,2.27718944873399,-5.92069256670838,337.073274941252
738359.42018054192885756493,2.28949858088931,-5.90838343455306,337.147129734184
738359.42018063238356262445,2.27718944873399,-5.89607430239774,337.085584073407
738359.42018072283826768398,2.28949858088931,-5.88376517024242,337.097893205563
738359.42018081317655742168,2.28949858088931,-5.94531083101901,337.147129734184
738359.42018090363126248121,2.28949858088931,-5.89607430239774,337.134820602028
738359.42018099408596754074,2.27718944873399,-5.88376517024242,337.122511469873
738359.42018108454067260027,2.30180771304463,-5.90838343455306,337.097893205563
738359.42018117499537765980,2.27718944873399,-5.92069256670838,337.159438866339
738359.42018126533366739750,2.28949858088931,-5.92069256670838,337.196366262805
738359.42018135578837245703,2.28949858088931,-5.89607430239774,337.110202337718
738359.42018144624307751656,2.31411684519995,-5.89607430239774,337.110202337718
738359.42018153669778257608,2.30180771304463,-5.90838343455306,337.196366262805
738359.42018162715248763561,2.28949858088931,-5.92069256670838,337.147129734184
738359.42018171760719269514,2.28949858088931,-5.92069256670838,337.097893205563
738359.42018180794548243284,2.28949858088931,-5.89607430239774,337.097893205563
738359.42018189840018749237,2.28949858088931,-5.94531083101901,337.171747998494
738359.42018198885489255190,2.27718944873399,-5.92069256670838,337.171747998494
738359.42018207930959761143,2.26488031657867,-5.93300169886369,337.159438866339
738359.42018216976430267096,2.26488031657867,-5.95761996317433,337.110202337718
738359.42018226010259240866,2.26488031657867,-5.93300169886369,337.20867539496
738359.42018235055729746819,2.31411684519995,-5.90838343455306,337.159438866339
738359.42018244101200252771,2.30180771304463,-5.93300169886369,337.085584073407
738359.42018253146670758724,2.28949858088931,-5.94531083101901,337.171747998494
738359.42018262192141264677,2.31411684519995,-5.92069256670838,337.159438866339
738359.42018271237611770630,2.25257118442335,-5.92069256670838,337.147129734184
738359.42018280271440744400,2.27718944873399,-5.95761996317433,337.122511469873
738359.42018289316911250353,2.30180771304463,-5.92069256670838,337.171747998494
738359.42018298362381756306,2.30180771304463,-5.94531083101901,337.159438866339
738359.42018307407852262259,2.30180771304463,-5.93300169886369,337.122511469873
738359.42018316453322768211,2.27718944873399,-5.94531083101901,337.159438866339
738359.42018325487151741982,2.27718944873399,-5.94531083101901,337.159438866339
738359.42018334532622247934,2.30180771304463,-5.93300169886369,337.060965809097
738359.42018343578092753887,2.30180771304463,-5.94531083101901,337.048656676941
738359.42018352623563259840,2.30180771304463,-5.93300169886369,337.073274941252
738359.42018361669033765793,2.28949858088931,-5.93300169886369,337.060965809097
738359.42018370714504271746,2.28949858088931,-5.95761996317433,337.085584073407
738359.42018379748333245516,2.30180771304463,-5.93300169886369,336.974801884009
738359.42018388793803751469,2.30180771304463,-5.90838343455306,337.110202337718
738359.42018397839274257421,2.28949858088931,-5.93300169886369,337.171747998494
738359.42018406884744763374,2.28949858088931,-5.96992909532965,337.159438866339
738359.42018415930215269327,2.31411684519995,-5.92069256670838,337.20867539496
738359.42018424964044243097,2.30180771304463,-5.93300169886369,337.159438866339
738359.42018434009514749050,2.28949858088931,-5.93300169886369,337.085584073407
738359.42018443054985255003,2.31411684519995,-5.93300169886369,337.159438866339
738359.42018452100455760956,2.31411684519995,-5.94531083101901,337.18405713065
738359.42018461145926266909,2.32642597735527,-5.94531083101901,337.110202337718
738359.42018470179755240679,2.31411684519995,-5.93300169886369,337.171747998494
738359.42018479225225746632,2.30180771304463,-5.92069256670838,337.171747998494
738359.42018488270696252584,2.28949858088931,-5.96992909532965,337.073274941252
738359.42018497316166758537,2.30180771304463,-5.95761996317433,337.060965809097
738359.42018506361637264490,2.31411684519995,-5.92069256670838,337.060965809097
738359.42018515407107770443,2.31411684519995,-5.93300169886369,337.085584073407
738359.42018524440936744213,2.32642597735527,-5.93300169886369,337.097893205563
738359.42018533486407250166,2.36335337382122,-5.89607430239774,337.073274941252
738359.42018542531877756119,2.37566250597654,-5.8714560380871,337.110202337718
738359.42018551577348262072,2.37566250597654,-5.8714560380871,337.134820602028
738359.42018560622818768024,2.43720816675314,-5.79760124515519,337.036347544786
738359.42018569656647741795,2.42489903459782,-5.76067384868923,337.18405713065
738359.42018578702118247747,2.36335337382122,-5.88376517024242,337.159438866339
738359.42018587747588753700,2.38797163813186,-5.8714560380871,337.159438866339
738359.42018596793059259653,2.38797163813186,-5.82221950946582,337.097893205563
738359.42018605838529765606,2.36335337382122,-5.89607430239774,337.171747998494
738359.42018614884000271559,2.33873510951058,-5.88376517024242,337.196366262805
738359.42018623917829245329,2.32642597735527,-5.89607430239774,337.171747998494
738359.42018632963299751282,2.30180771304463,-5.96992909532965,337.122511469873
738359.42018642008770257235,2.33873510951058,-5.90838343455306,337.18405713065
738359.42018651054240763187,2.30180771304463,-5.94531083101901,337.20867539496
738359.42018660099711269140,2.28949858088931,-5.95761996317433,337.060965809097
738359.42018669133540242910,2.31411684519995,-5.94531083101901,337.159438866339
738359.42018678179010748863,2.27718944873399,-5.98223822748497,337.159438866339
738359.42018687224481254816,2.30180771304463,-5.93300169886369,337.147129734184
738359.42018696269951760769,2.30180771304463,-6.03147475610625,337.147129734184
738359.42018705315422266722,2.37566250597654,-5.89607430239774,337.220984527116
738359.42018714349251240492,2.49875382752973,-5.63758252713604,337.233293659271
738359.42018723394721746445,2.75724560279143,-5.14521724092329,337.097893205563
738359.42018732440192252398,3.0034282458978,-4.70208848333181,336.827092298145
738359.42018741485662758350,2.88033692434461,-4.87441633350627,336.876328826767
738359.42018750531133264303,2.38797163813186,-5.4775638091169,337.024038412631
738359.42018759576603770256,2.00638854131698,-6.21611173843603,337.097893205563
738359.42018768610432744026,2.04331593778293,-6.20380260628071,337.110202337718
738359.42018777655903249979,2.24026205226803,-5.95761996317433,337.134820602028
738359.42018786701373755932,2.32642597735527,-5.90838343455306,337.073274941252
738359.42018795746844261885,2.31411684519995,-5.94531083101901,337.097893205563
738359.42018804792314767838,2.33873510951058,-5.90838343455306,337.171747998494
738359.42018813826143741608,2.31411684519995,-5.92069256670838,337.20867539496
738359.42018822871614247561,2.31411684519995,-5.93300169886369,337.134820602028
738359.42018831917084753513,2.32642597735527,-5.92069256670838,337.147129734184
738359.42018840962555259466,2.33873510951058,-5.94531083101901,337.134820602028
738359.42018850008025765419,2.31411684519995,-5.90838343455306,337.122511469873
738359.42018859053496271372,2.32642597735527,-5.90838343455306,337.134820602028
738359.42018868087325245142,2.33873510951058,-5.89607430239774,337.134820602028
738359.42018877132795751095,2.36335337382122,-5.92069256670838,337.097893205563
738359.42018886178266257048,2.36335337382122,-5.88376517024242,337.073274941252
738359.42018895223736763000,2.3510442416659,-5.88376517024242,337.159438866339
738359.42018904269207268953,2.36335337382122,-5.88376517024242,337.134820602028
738359.42018913303036242723,2.36335337382122,-5.84683777377646,337.134820602028
738359.42018922348506748676,2.36335337382122,-5.89607430239774,337.147129734184
738359.42018931393977254629,2.40028077028718,-5.82221950946582,337.048656676941
738359.42018940439447760582,2.37566250597654,-5.84683777377646,337.085584073407
738359.42018949484918266535,2.40028077028718,-5.84683777377646,337.085584073407
738359.42018958530388772488,2.40028077028718,-5.83452864162114,337.073274941252
738359.42018967564217746258,2.43720816675314,-5.76067384868923,337.073274941252
738359.42018976609688252211,2.43720816675314,-5.79760124515519,337.085584073407
738359.42018985655158758163,2.42489903459782,-5.76067384868923,337.097893205563
738359.42018994700629264116,2.44951729890845,-5.73605558437859,337.085584073407
738359.42019003746099770069,2.47413556321909,-5.71143732006795,337.073274941252
738359.42019012779928743839,2.49875382752973,-5.64989165929136,337.073274941252
738359.42019021825399249792,2.48644469537441,-5.64989165929136,337.110202337718
738359.42019030870869755745,2.52337209184037,-5.57603686635945,337.085584073407
738359.42019039916340261698,2.54799035615101,-5.55141860204881,337.097893205563
738359.42019048961810767651,2.57260862046164,-5.50218207342753,337.097893205563
738359.42019057995639741421,2.58491775261696,-5.46525467696158,337.097893205563
738359.42019067041110247374,2.62184514908292,-5.4160181483403,337.134820602028
738359.42019076086580753326,2.62184514908292,-5.44063641265094,337.171747998494
738359.42019085132051259279,2.62184514908292,-5.37909075187434,336.987111016165
738359.42019094177521765232,2.62184514908292,-5.44063641265094,337.060965809097
738359.42019103222992271185,2.62184514908292,-5.46525467696158,337.147129734184
738359.42019112256821244955,2.59722688477228,-5.52680033773817,337.159438866339
738359.42019121302291750908,2.58491775261696,-5.58834599851477,337.18405713065
738359.42019130347762256861,2.52337209184037,-5.68681905575732,337.073274941252
738359.42019139393232762814,2.51106295968505,-5.68681905575732,337.110202337718
738359.42019148438703268766,2.48644469537441,-5.74836471653391,337.18405713065
738359.42019157472532242537,2.44951729890845,-5.79760124515519,337.171747998494
738359.42019166518002748489,2.42489903459782,-5.84683777377646,337.134820602028
738359.42019175563473254442,2.4125899024425,-5.88376517024242,337.134820602028
738359.42019184608943760395,2.42489903459782,-5.84683777377646,337.122511469873
738359.42019193654414266348,2.32642597735527,-5.93300169886369,337.060965809097
738359.42019202699884772301,2.38797163813186,-5.90838343455306,337.024038412631
738359.42019211733713746071,2.40028077028718,-5.88376517024242,337.048656676941
738359.42019220779184252024,2.37566250597654,-5.88376517024242,337.060965809097
738359.42019229824654757977,2.36335337382122,-5.98223822748497,337.048656676941
738359.42019238870125263929,2.40028077028718,-5.89607430239774,337.122511469873
738359.42019247915595769882,2.40028077028718,-5.89607430239774,337.20867539496
738359.42019256949424743652,2.38797163813186,-5.89607430239774,337.159438866339
738359.42019265994895249605,2.3510442416659,-5.92069256670838,337.097893205563
738359.42019275040365755558,2.38797163813186,-5.93300169886369,337.147129734184
738359.42019284085836261511,2.36335337382122,-5.93300169886369,337.20867539496
738359.42019293131306767464,2.38797163813186,-5.89607430239774,336.99942014832
738359.42019302176777273417,2.40028077028718,-5.89607430239774,337.036347544786
738359.42019311210606247187,2.37566250597654,-5.92069256670838,337.073274941252
738359.42019320256076753139,2.42489903459782,-5.92069256670838,337.048656676941
738359.42019329301547259092,2.4125899024425,-5.89607430239774,337.085584073407
738359.42019338347017765045,2.38797163813186,-5.93300169886369,337.060965809097
738359.42019347392488270998,2.38797163813186,-5.90838343455306,337.085584073407
738359.42019356426317244768,2.40028077028718,-5.89607430239774,337.073274941252
738359.42019365471787750721,2.4125899024425,-5.93300169886369,337.085584073407
738359.42019374517258256674,2.38797163813186,-5.92069256670838,337.073274941252
738359.42019383562728762627,2.40028077028718,-5.90838343455306,337.110202337718
738359.42019392608199268579,2.40028077028718,-5.90838343455306,337.097893205563
738359.42019401642028242350,2.38797163813186,-5.94531083101901,337.085584073407
738359.42019410687498748302,2.38797163813186,-5.93300169886369,337.073274941252
738359.42019419732969254255,2.36335337382122,-5.92069256670838,337.122511469873
738359.42019428778439760208,2.40028077028718,-5.94531083101901,337.134820602028
738359.42019437823910266161,2.40028077028718,-5.93300169886369,337.024038412631
738359.42019446869380772114,2.40028077028718,-5.90838343455306,337.024038412631
738359.42019455903209745884,2.37566250597654,-5.95761996317433,337.097893205563
738359.42019464948680251837,2.36335337382122,-5.93300169886369,337.159438866339
738359.42019473994150757790,2.40028077028718,-5.94531083101901,337.073274941252
738359.42019483039621263742,2.37566250597654,-5.93300169886369,337.060965809097
738359.42019492085091769695,2.37566250597654,-5.95761996317433,337.073274941252
738359.42019501118920743465,2.40028077028718,-5.93300169886369,337.134820602028
738359.42019510164391249418,2.38797163813186,-5.94531083101901,337.147129734184
738359.42019519209861755371,2.38797163813186,-5.90838343455306,337.18405713065
738359.42019528255332261324,2.38797163813186,-5.95761996317433,337.134820602028
738359.42019537300802767277,2.40028077028718,-5.92069256670838,337.159438866339
738359.42019546346273273230,2.38797163813186,-5.93300169886369,337.147129734184
738359.42019555380102247000,2.37566250597654,-5.98223822748497,337.147129734184
738359.42019564425572752953,2.40028077028718,-5.92069256670838,337.110202337718
738359.42019573471043258905,2.4125899024425,-5.93300169886369,337.18405713065
738359.42019582516513764858,2.36335337382122,-5.98223822748497,337.147129734184
738359.42019591561984270811,2.38797163813186,-5.95761996317433,337.110202337718
738359.42019600595813244581,2.40028077028718,-5.93300169886369,337.159438866339
738359.42019609641283750534,2.40028077028718,-5.95761996317433,337.159438866339
738359.42019618686754256487,2.40028077028718,-5.94531083101901,337.134820602028
738359.42019627732224762440,2.40028077028718,-5.95761996317433,337.134820602028
738359.42019636777695268393,2.40028077028718,-5.93300169886369,337.159438866339
738359.42019645811524242163,2.42489903459782,-5.92069256670838,337.147129734184
738359.42019654856994748116,2.40028077028718,-5.96992909532965,337.171747998494
738359.42019663902465254068,2.40028077028718,-5.93300169886369,337.196366262805
738359.42019672947935760021,2.40028077028718,-5.93300169886369,337.18405713065
738359.42019681993406265974,2.40028077028718,-5.93300169886369,337.122511469873
738359.42019691038876771927,2.38797163813186,-5.98223822748497,337.159438866339
738359.42019700072705745697,2.37566250597654,-5.98223822748497,337.036347544786
738359.42019709118176251650,2.40028077028718,-5.95761996317433,337.036347544786
738359.42019718163646757603,2.40028077028718,-5.95761996317433,337.060965809097
738359.42019727209117263556,2.40028077028718,-5.94531083101901,337.060965809097
738359.42019736254587769508,2.38797163813186,-5.95761996317433,337.036347544786
738359.42019745288416743279,2.42489903459782,-5.94531083101901,337.060965809097
738359.42019754333887249231,2.4125899024425,-5.93300169886369,337.060965809097
738359.42019763379357755184,2.40028077028718,-5.94531083101901,337.060965809097
738359.42019772424828261137,2.4125899024425,-5.93300169886369,337.048656676941
738359.42019781470298767090,2.40028077028718,-5.94531083101901,337.036347544786
738359.42019790515769273043,2.40028077028718,-5.95761996317433,336.900947091077
738359.42019799549598246813,2.42489903459782,-5.92069256670838,336.937874487543
738359.42019808595068752766,2.4125899024425,-5.96992909532965,337.048656676941
738359.42019817640539258718,2.43720816675314,-5.90838343455306,337.048656676941
738359.42019826686009764671,2.44951729890845,-5.8714560380871,337.085584073407
738359.42019835731480270624,2.47413556321909,-5.93300169886369,337.085584073407
738359.42019844765309244394,2.49875382752973,-5.83452864162114,337.110202337718
738359.42019853810779750347,2.56029948830632,-5.73605558437859,337.159438866339
738359.42019862856250256300,2.51106295968505,-5.80991037731051,337.196366262805
738359.42019871901720762253,2.47413556321909,-5.85914690593178,337.134820602028
738359.42019880947191268206,2.48644469537441,-5.88376517024242,337.085584073407
738359.42019889992661774158,2.47413556321909,-5.84683777377646,337.18405713065
738359.42019899026490747929,2.46182643106377,-5.8714560380871,337.159438866339
738359.42019908071961253881,2.4125899024425,-5.93300169886369,337.085584073407
738359.42019917117431759834,2.4125899024425,-5.92069256670838,337.159438866339
738359.42019926162902265787,2.4125899024425,-5.93300169886369,337.18405713065
738359.42019935208372771740,2.38797163813186,-5.95761996317433,337.18405713065
738359.42019944242201745510,2.42489903459782,-5.98223822748497,337.147129734184
738359.42019953287672251463,2.4125899024425,-5.94531083101901,337.147129734184
738359.42019962333142757416,2.38797163813186,-5.96992909532965,337.196366262805
738359.42019971378613263369,2.42489903459782,-5.95761996317433,337.18405713065
738359.42019980424083769321,2.4125899024425,-5.96992909532965,337.159438866339
738359.42019989457912743092,2.36335337382122,-6.04378388826156,337.18405713065
738359.42019998503383249044,2.53568122399569,-5.83452864162114,337.196366262805
738359.42020007548853754997,2.63415428123824,-5.55141860204881,337.159438866339
738359.42020016594324260950,2.95419171727653,-5.00981678721478,337.147129734184
738359.42020025639794766903,3.08959217098504,-4.67747021902117,336.99942014832
738359.42020034685265272856,2.88033692434461,-4.99750765505946,336.950183619699
738359.42020043719094246626,2.31411684519995,-5.71143732006795,337.122511469873
738359.42020052764564752579,2.14178899502548,-6.25303913490198,337.159438866339
738359.42020061810035258532,2.2156437879574,-6.1299478133488,337.18405713065
738359.42020070855505764484,2.36335337382122,-5.93300169886369,337.122511469873
738359.42020079900976270437,2.42489903459782,-5.92069256670838,337.097893205563
738359.42020088934805244207,2.42489903459782,-5.90838343455306,337.147129734184
738359.42020097980275750160,2.4125899024425,-5.94531083101901,337.134820602028
738359.42020107025746256113,2.40028077028718,-5.94531083101901,337.048656676941
738359.42020116071216762066,2.42489903459782,-5.94531083101901,337.122511469873
738359.42020125116687268019,2.42489903459782,-5.93300169886369,337.122511469873
738359.42020134162157773972,2.42489903459782,-5.94531083101901,337.073274941252
738359.42020143195986747742,2.43720816675314,-5.90838343455306,336.987111016165
738359.42020152241457253695,2.42489903459782,-5.90838343455306,336.962492751854
738359.42020161286927759647,2.43720816675314,-5.92069256670838,337.073274941252
738359.42020170332398265600,2.44951729890845,-5.89607430239774,337.060965809097
738359.42020179377868771553,2.44951729890845,-5.90838343455306,337.085584073407
738359.42020188411697745323,2.46182643106377,-5.88376517024242,337.073274941252
738359.42020197457168251276,2.46182643106377,-5.8714560380871,337.110202337718
738359.42020206502638757229,2.46182643106377,-5.8714560380871,337.085584073407
738359.42020215548109263182,2.47413556321909,-5.8714560380871,337.085584073407
738359.42020224593579769135,2.47413556321909,-5.85914690593178,337.048656676941
738359.42020233639050275087,2.48644469537441,-5.82221950946582,337.085584073407
738359.42020242672879248857,2.49875382752973,-5.82221950946582,337.122511469873
738359.42020251718349754810,2.49875382752973,-5.82221950946582,337.060965809097
738359.42020260763820260763,2.52337209184037,-5.80991037731051,337.122511469873
738359.42020269809290766716,2.52337209184037,-5.78529211299987,337.159438866339
738359.42020278854761272669,2.52337209184037,-5.74836471653391,337.171747998494
738359.42020287888590246439,2.53568122399569,-5.72374645222327,337.073274941252
738359.42020296934060752392,2.58491775261696,-5.69912818791264,337.159438866339
738359.42020305979531258345,2.6095360169276,-5.674509923602,337.196366262805
738359.42020315025001764297,2.59722688477228,-5.6129642628254,337.122511469873
738359.42020324070472270250,2.59722688477228,-5.6129642628254,337.18405713065
738359.42020333104301244020,2.64646341339356,-5.50218207342753,337.159438866339
738359.42020342149771749973,2.68339080985951,-5.50218207342753,337.147129734184
738359.42020351195242255926,2.67108167770419,-5.45294554480626,337.147129734184
738359.42020360240712761879,2.68339080985951,-5.44063641265094,337.20867539496
738359.42020369286183267832,2.74493647063611,-5.40370901618498,337.18405713065
738359.42020378331653773785,2.74493647063611,-5.4160181483403,337.147129734184
738359.42020387365482747555,2.73262733848079,-5.44063641265094,337.18405713065
738359.42020396410953253508,2.70800907417015,-5.46525467696158,337.147129734184
738359.42020405456423759460,2.69569994201483,-5.55141860204881,337.122511469873
738359.42020414501894265413,2.67108167770419,-5.57603686635945,337.18405713065
738359.42020423547364771366,2.63415428123824,-5.674509923602,337.159438866339
738359.42020432581193745136,2.59722688477228,-5.68681905575732,337.171747998494
738359.42020441626664251089,2.58491775261696,-5.77298298084455,337.122511469873
738359.42020450672134757042,2.54799035615101,-5.79760124515519,337.159438866339
738359.42020459717605262995,2.53568122399569,-5.82221950946582,337.159438866339
738359.42020468763075768948,2.51106295968505,-5.88376517024242,337.085584073407
738359.42020477808546274900,2.49875382752973,-5.85914690593178,337.196366262805
738359.42020486842375248671,2.48644469537441,-5.89607430239774,337.196366262805
738359.42020495887845754623,2.48644469537441,-5.89607430239774,336.99942014832
738359.42020504933316260576,2.48644469537441,-5.89607430239774,336.987111016165
738359.42020513978786766529,2.48644469537441,-5.90838343455306,337.036347544786
738359.42020523024257272482,2.48644469537441,-5.90838343455306,337.048656676941
738359.42020532058086246252,2.47413556321909,-5.89607430239774,337.073274941252
738359.42020541103556752205,2.48644469537441,-5.89607430239774,337.048656676941
738359.42020550149027258158,2.47413556321909,-5.90838343455306,337.122511469873
738359.42020559194497764111,2.47413556321909,-5.90838343455306,337.159438866339
738359.42020568239968270063,2.44951729890845,-5.93300169886369,337.110202337718
738359.42020577273797243834,2.48644469537441,-5.92069256670838,337.134820602028
738359.42020586319267749786,2.48644469537441,-5.90838343455306,337.147129734184
738359.42020595364738255739,2.48644469537441,-5.88376517024242,337.159438866339
738359.42020604410208761692,2.49875382752973,-5.92069256670838,337.110202337718
738359.42020613455679267645,2.48644469537441,-5.93300169886369,337.171747998494
738359.42020622501149773598,2.48644469537441,-5.8714560380871,337.18405713065
738359.42020631534978747368,2.48644469537441,-5.90838343455306,337.147129734184
738359.42020640580449253321,2.51106295968505,-5.90838343455306,337.110202337718
738359.42020649625919759274,2.52337209184037,-5.90838343455306,337.134820602028
738359.42020658671390265226,2.49875382752973,-5.88376517024242,337.18405713065
738359.42020667716860771179,2.49875382752973,-5.88376517024242,337.097893205563
738359.42020676750689744949,2.49875382752973,-5.94531083101901,337.20867539496
738359.42020685796160250902,2.48644469537441,-5.90838343455306,337.196366262805
738359.42020694841630756855,2.49875382752973,-5.89607430239774,337.122511469873
738359.42020703887101262808,2.48644469537441,-5.90838343455306,337.073274941252
738359.42020712932571768761,2.49875382752973,-5.93300169886369,337.085584073407
738359.42020721978042274714,2.48644469537441,-5.94531083101901,337.024038412631
738359.42020731011871248484,2.49875382752973,-5.92069256670838,337.085584073407
738359.42020740057341754436,2.49875382752973,-5.92069256670838,337.036347544786
738359.42020749102812260389,2.51106295968505,-5.90838343455306,337.048656676941
738359.42020758148282766342,2.48644469537441,-5.92069256670838,337.085584073407
738359.42020767193753272295,2.48644469537441,-5.93300169886369,337.122511469873
738359.42020776227582246065,2.48644469537441,-5.94531083101901,337.134820602028
738359.42020785273052752018,2.49875382752973,-5.89607430239774,337.18405713065
738359.42020794318523257971,2.46182643106377,-5.94531083101901,337.171747998494
738359.42020803363993763924,2.46182643106377,-5.95761996317433,337.085584073407
738359.42020812409464269876,2.49875382752973,-5.94531083101901,337.159438866339
738359.42020821454934775829,2.49875382752973,-5.92069256670838,337.159438866339
738359.42020830488763749599,2.49875382752973,-5.94531083101901,337.134820602028
738359.42020839534234255552,2.48644469537441,-5.93300169886369,337.159438866339
738359.42020848579704761505,2.49875382752973,-5.94531083101901,337.134820602028
738359.42020857625175267458,2.49875382752973,-5.93300169886369,337.048656676941
738359.42020866670645773411,2.48644469537441,-5.95761996317433,337.122511469873
738359.42020875704474747181,2.46182643106377,-5.96992909532965,337.147129734184
738359.42020884749945253134,2.49875382752973,-5.93300169886369,337.147129734184
738359.42020893795415759087,2.49875382752973,-5.96992909532965,337.073274941252
738359.42020902840886265039,2.48644469537441,-5.93300169886369,337.122511469873
738359.42020911886356770992,2.49875382752973,-5.92069256670838,337.110202337718
738359.42020920920185744762,2.47413556321909,-5.93300169886369,337.110202337718
738359.42020929965656250715,2.47413556321909,-5.98223822748497,337.110202337718
738359.42020939011126756668,2.52337209184037,-5.92069256670838,337.122511469873
738359.42020948056597262621,2.51106295968505,-5.93300169886369,337.122511469873
738359.42020957102067768574,2.49875382752973,-5.94531083101901,337.085584073407
738359.42020966147538274527,2.51106295968505,-5.92069256670838,337.122511469873
738359.42020975181367248297,2.51106295968505,-5.94531083101901,336.974801884009
738359.42020984226837754250,2.51106295968505,-5.92069256670838,337.036347544786
738359.42020993272308260202,2.51106295968505,-5.93300169886369,337.097893205563
738359.42021002317778766155,2.49875382752973,-5.93300169886369,337.073274941252
738359.42021011363249272108,2.49875382752973,-5.95761996317433,337.073274941252
738359.42021020397078245878,2.49875382752973,-5.93300169886369,337.085584073407
738359.42021029442548751831,2.49875382752973,-5.96992909532965,337.060965809097
738359.42021038488019257784,2.48644469537441,-5.93300169886369,337.048656676941
738359.42021047533489763737,2.48644469537441,-5.96992909532965,337.073274941252
738359.42021056578960269690,2.49875382752973,-5.93300169886369,337.085584073407
738359.42021065624430775642,2.51106295968505,-5.90838343455306,337.024038412631
738359.42021074658259749413,2.48644469537441,-5.96992909532965,337.011729280475
738359.42021083703730255365,2.49875382752973,-5.93300169886369,337.048656676941
738359.42021092749200761318,2.51106295968505,-5.94531083101901,337.024038412631
738359.42021101794671267271,2.51106295968505,-5.92069256670838,336.99942014832
738359.42021110840141773224,2.52337209184037,-5.95761996317433,337.011729280475
738359.42021119873970746994,2.52337209184037,-5.92069256670838,337.110202337718
738359.42021128919441252947,2.52337209184037,-5.93300169886369,337.073274941252
738359.42021137964911758900,2.54799035615101,-5.92069256670838,337.073274941252
738359.42021147010382264853,2.54799035615101,-5.89607430239774,337.110202337718
738359.42021156055852770805,2.54799035615101,-5.89607430239774,337.097893205563
738359.42021165089681744576,2.59722688477228,-5.80991037731051,337.147129734184
738359.42021174135152250528,2.6095360169276,-5.79760124515519,337.196366262805
738359.42021183180622756481,2.6095360169276,-5.79760124515519,337.147129734184
738359.42021192226093262434,2.59722688477228,-5.84683777377646,337.122511469873
738359.42021201271563768387,2.57260862046164,-5.8714560380871,337.085584073407
738359.42021210317034274340,2.53568122399569,-5.8714560380871,337.011729280475
738359.42021219350863248110,2.54799035615101,-5.8714560380871,337.097893205563
738359.42021228396333754063,2.53568122399569,-5.89607430239774,337.171747998494
738359.42021237441804260015,2.52337209184037,-5.92069256670838,337.159438866339
738359.42021246487274765968,2.52337209184037,-5.95761996317433,337.073274941252
738359.42021255532745271921,2.49875382752973,-5.93300169886369,337.159438866339
738359.42021264566574245691,2.48644469537441,-5.93300169886369,337.159438866339
738359.42021273612044751644,2.49875382752973,-6.00685649179561,337.110202337718
738359.42021282657515257597,2.49875382752973,-5.92069256670838,337.122511469873
738359.42021291702985763550,2.49875382752973,-5.94531083101901,337.134820602028
738359.42021300748456269503,2.48644469537441,-5.98223822748497,337.159438866339
738359.42021309793926775455,2.49875382752973,-5.96992909532965,337.171747998494
738359.42021318827755749226,2.59722688477228,-5.85914690593178,337.196366262805
738359.42021327873226255178,2.74493647063611,-5.52680033773817,337.196366262805
738359.42021336918696761131,3.0649739066744,-4.98519852290414,337.073274941252
738359.42021345964167267084,3.17575609607227,-4.71439761548713,337.036347544786
738359.42021355009637773037,2.96650084943185,-5.07136244799137,336.962492751854
738359.42021364043466746807,2.69569994201483,-5.39139988402966,337.024038412631
738359.42021373088937252760,2.27718944873399,-6.16687520981475,337.122511469873
738359.42021382134407758713,2.30180771304463,-6.16687520981475,337.20867539496
738359.42021391179878264666,2.43720816675314,-5.96992909532965,337.196366262805
738359.42021400225348770618,2.48644469537441,-5.94531083101901,336.987111016165
738359.42021409270819276571,2.51106295968505,-5.89607430239774,337.060965809097
738359.42021418304648250341,2.49875382752973,-5.95761996317433,337.060965809097
738359.42021427350118756294,2.51106295968505,-5.94531083101901,337.060965809097
738359.42021436395589262247,2.49875382752973,-5.93300169886369,337.024038412631
738359.42021445441059768200,2.51106295968505,-5.92069256670838,337.134820602028
738359.42021454486530274153,2.51106295968505,-5.93300169886369,337.085584073407
738359.42021463520359247923,2.51106295968505,-5.90838343455306,337.097893205563
738359.42021472565829753876,2.51106295968505,-5.93300169886369,337.097893205563
738359.42021481611300259829,2.52337209184037,-5.89607430239774,337.110202337718
738359.42021490656770765781,2.51106295968505,-5.89607430239774,337.073274941252
738359.42021499702241271734,2.54799035615101,-5.88376517024242,337.085584073407
738359.42021508736070245504,2.53568122399569,-5.90838343455306,337.097893205563
738359.42021517781540751457,2.54799035615101,-5.89607430239774,337.073274941252
738359.42021526827011257410,2.54799035615101,-5.83452864162114,337.110202337718
738359.42021535872481763363,2.56029948830632,-5.83452864162114,337.110202337718
738359.42021544917952269316,2.56029948830632,-5.88376517024242,337.097893205563
738359.42021553963422775269,2.54799035615101,-5.85914690593178,337.060965809097
738359.42021562997251749039,2.57260862046164,-5.79760124515519,336.962492751854
738359.42021572042722254992,2.57260862046164,-5.82221950946582,337.110202337718
738359.42021581088192760944,2.59722688477228,-5.79760124515519,337.097893205563
738359.42021590133663266897,2.59722688477228,-5.78529211299987,337.159438866339
738359.42021599179133772850,2.62184514908292,-5.73605558437859,337.085584073407
738359.42021608212962746620,2.63415428123824,-5.76067384868923,337.097893205563
738359.42021617258433252573,2.62184514908292,-5.69912818791264,337.147129734184
738359.42021626303903758526,2.67108167770419,-5.63758252713604,337.122511469873
738359.42021635349374264479,2.68339080985951,-5.63758252713604,337.159438866339
738359.42021644394844770432,2.67108167770419,-5.60065513067009,337.20867539496
738359.42021653440315276384,2.73262733848079,-5.48987294127221,337.085584073407
738359.42021662474144250154,2.74493647063611,-5.50218207342753,337.18405713065
738359.42021671519614756107,2.76955473494675,-5.45294554480626,337.20867539496
738359.42021680565085262060,2.8064821314127,-5.44063641265094,337.20867539496
738359.42021689610555768013,2.79417299925738,-5.39139988402966,337.110202337718
738359.42021698656026273966,2.8064821314127,-5.4160181483403,337.18405713065
738359.42021707689855247736,2.79417299925738,-5.44063641265094,337.171747998494
738359.42021716735325753689,2.79417299925738,-5.48987294127221,337.073274941252
738359.42021725780796259642,2.76955473494675,-5.52680033773817,337.122511469873
738359.42021734826266765594,2.72031820632547,-5.60065513067009,337.147129734184
738359.42021743871737271547,2.72031820632547,-5.66220079144668,337.060965809097
738359.42021752917207777500,2.68339080985951,-5.72374645222327,337.011729280475
738359.42021761951036751270,2.64646341339356,-5.78529211299987,337.048656676941
738359.42021770996507257223,2.63415428123824,-5.82221950946582,337.048656676941
738359.42021780041977763176,2.58491775261696,-5.8714560380871,337.011729280475
738359.42021789087448269129,2.57260862046164,-5.88376517024242,337.110202337718
738359.42021798132918775082,2.57260862046164,-5.90838343455306,337.073274941252
738359.42021807166747748852,2.54799035615101,-5.93300169886369,337.122511469873
738359.42021816212218254805,2.54799035615101,-5.92069256670838,337.073274941252
738359.42021825257688760757,2.53568122399569,-5.95761996317433,337.060965809097
738359.42021834303159266710,2.53568122399569,-5.94531083101901,337.110202337718
738359.42021843348629772663,2.54799035615101,-5.90838343455306,337.097893205563
738359.42021852382458746433,2.54799035615101,-5.93300169886369,337.085584073407
738359.42021861427929252386,2.54799035615101,-5.93300169886369,337.097893205563
738359.42021870473399758339,2.54799035615101,-5.92069256670838,337.134820602028
738359.42021879518870264292,2.53568122399569,-5.94531083101901,337.159438866339
738359.42021888564340770245,2.54799035615101,-5.90838343455306,337.147129734184
738359.42021897609811276197,2.54799035615101,-5.92069256670838,337.110202337718
738359.42021906643640249968,2.54799035615101,-5.89607430239774,337.122511469873
738359.42021915689110755920,2.54799035615101,-5.90838343455306,336.913256223233
738359.42021924734581261873,2.56029948830632,-5.90838343455306,337.085584073407
738359.42021933780051767826,2.56029948830632,-5.92069256670838,337.073274941252
738359.42021942825522273779,2.56029948830632,-5.93300169886369,337.122511469873
738359.42021951859351247549,2.56029948830632,-5.89607430239774,337.171747998494
738359.42021960904821753502,2.54799035615101,-5.90838343455306,337.18405713065
738359.42021969950292259455,2.53568122399569,-5.92069256670838,337.024038412631
738359.42021978995762765408,2.58491775261696,-5.90838343455306,337.147129734184
738359.42021988041233271360,2.56029948830632,-5.90838343455306,337.171747998494
738359.42021997086703777313,2.53568122399569,-5.93300169886369,337.147129734184
738359.42022006120532751083,2.54799035615101,-5.92069256670838,337.134820602028
738359.42022015166003257036,2.53568122399569,-5.94531083101901,337.122511469873
738359.42022024211473762989,2.51106295968505,-5.94531083101901,337.147129734184
738359.42022033256944268942,2.54799035615101,-5.94531083101901,337.110202337718
738359.42022042302414774895,2.56029948830632,-5.93300169886369,337.134820602028
738359.42022051336243748665,2.54799035615101,-5.93300169886369,337.171747998494
738359.42022060381714254618,2.54799035615101,-5.94531083101901,337.171747998494
738359.42022069427184760571,2.54799035615101,-5.94531083101901,337.134820602028
738359.42022078472655266523,2.54799035615101,-5.93300169886369,337.18405713065
738359.42022087518125772476,2.56029948830632,-5.93300169886369,337.171747998494
738359.42022096551954746246,2.56029948830632,-5.94531083101901,337.18405713065
738359.42022105597425252199,2.52337209184037,-5.96992909532965,337.147129734184
738359.42022114642895758152,2.52337209184037,-5.94531083101901,337.085584073407
738359.42022123688366264105,2.54799035615101,-5.94531083101901,337.073274941252
738359.42022132733836770058,2.53568122399569,-5.95761996317433,337.073274941252
738359.42022141779307276011,2.54799035615101,-5.93300169886369,337.085584073407
738359.42022150813136249781,2.52337209184037,-5.94531083101901,337.085584073407
738359.42022159858606755733,2.54799035615101,-5.94531083101901,337.159438866339
738359.42022168904077261686,2.53568122399569,-5.96992909532965,337.18405713065
738359.42022177949547767639,2.54799035615101,-5.92069256670838,337.147129734184
738359.42022186995018273592,2.54799035615101,-5.98223822748497,337.147129734184
738359.42022196028847247362,2.53568122399569,-5.88376517024242,337.18405713065
738359.42022205074317753315,2.53568122399569,-5.98223822748497,337.18405713065
738359.42022214119788259268,2.52337209184037,-5.99454735964029,337.159438866339
738359.42022223165258765221,2.52337209184037,-5.90838343455306,337.073274941252
738359.42022232210729271173,2.53568122399569,-5.93300169886369,337.073274941252
738359.42022241256199777126,2.52337209184037,-5.93300169886369,337.122511469873
738359.42022250290028750896,2.52337209184037,-5.95761996317433,337.060965809097
738359.42022259335499256849,2.52337209184037,-5.96992909532965,336.888637958922
738359.42022268380969762802,2.56029948830632,-5.93300169886369,337.048656676941
738359.42022277426440268755,2.53568122399569,-5.96992909532965,337.110202337718
738359.42022286471910774708,2.53568122399569,-5.95761996317433,337.196366262805
738359.42022295505739748478,2.54799035615101,-5.93300169886369,337.196366262805
738359.42022304551210254431,2.54799035615101,-5.95761996317433,337.171747998494
738359.42022313596680760384,2.54799035615101,-5.94531083101901,337.147129734184
738359.42022322642151266336,2.53568122399569,-5.89607430239774,337.171747998494
738359.42022331687621772289,2.54799035615101,-5.95761996317433,337.20867539496
738359.42022340733092278242,2.53568122399569,-5.94531083101901,337.085584073407
738359.42022349766921252012,2.52337209184037,-5.94531083101901,337.20867539496
738359.42022358812391757965,2.54799035615101,-5.92069256670838,337.18405713065
738359.42022367857862263918,2.54799035615101,-5.94531083101901,337.110202337718
738359.42022376903332769871,2.54799035615101,-5.95761996317433,337.18405713065
738359.42022385948803275824,2.53568122399569,-5.94531083101901,337.220984527116
738359.42022394982632249594,2.57260862046164,-5.92069256670838,337.122511469873
738359.42022404028102755547,2.6095360169276,-5.88376517024242,337.110202337718
738359.42022413073573261499,2.58491775261696,-5.89607430239774,337.18405713065
738359.42022422119043767452,2.6095360169276,-5.84683777377646,337.122511469873
738359.42022431164514273405,2.65877254554888,-5.77298298084455,337.134820602028
738359.42022440198343247175,2.65877254554888,-5.78529211299987,337.134820602028
738359.42022449243813753128,2.59722688477228,-5.88376517024242,337.147129734184
738359.42022458289284259081,2.59722688477228,-5.8714560380871,337.147129734184
738359.42022467334754765034,2.59722688477228,-5.85914690593178,337.134820602028
738359.42022476380225270987,2.58491775261696,-5.8714560380871,337.147129734184
738359.42022485425695776939,2.59722688477228,-5.85914690593178,337.110202337718
738359.42022494459524750710,2.53568122399569,-5.92069256670838,337.110202337718
738359.42022503504995256662,2.51106295968505,-5.94531083101901,337.097893205563
738359.42022512550465762615,2.53568122399569,-5.95761996317433,337.110202337718
738359.42022521595936268568,2.49875382752973,-5.98223822748497,337.171747998494
738359.42022530641406774521,2.52337209184037,-5.96992909532965,337.147129734184
738359.42022539675235748291,2.53568122399569,-5.94531083101901,337.220984527116
738359.42022548720706254244,2.53568122399569,-5.94531083101901,337.220984527116
738359.42022557766176760197,2.53568122399569,-5.94531083101901,337.122511469873
738359.42022566811647266150,2.52337209184037,-5.98223822748497,337.18405713065
738359.42022575857117772102,2.62184514908292,-5.85914690593178,337.233293659271
738359.42022584902588278055,2.75724560279143,-5.56372773420413,337.220984527116
738359.42022593936417251825,3.04035564236376,-5.05905331583605,337.20867539496
738359.42022602981887757778,3.22499262469354,-4.71439761548713,337.011729280475
738359.42022612027358263731,3.0649739066744,-4.92365286212755,336.704000976592
738359.42022621072828769684,2.53568122399569,-5.62527339498072,336.987111016165
738359.42022630118299275637,2.22795292011272,-6.25303913490198,337.122511469873
738359.42022639152128249407,2.38797163813186,-6.04378388826156,337.171747998494
738359.42022648197598755360,2.51106295968505,-5.90838343455306,337.159438866339
738359.42022657243069261312,2.53568122399569,-5.88376517024242,337.159438866339
738359.42022666288539767265,2.52337209184037,-5.92069256670838,337.147129734184
738359.42022675334010273218,2.52337209184037,-5.92069256670838,337.122511469873
738359.42022684367839246988,2.52337209184037,-5.92069256670838,337.097893205563
738359.42022693413309752941,2.53568122399569,-5.92069256670838,337.110202337718
738359.42022702458780258894,2.54799035615101,-5.90838343455306,337.196366262805
738359.42022711504250764847,2.53568122399569,-5.92069256670838,337.122511469873
738359.42022720549721270800,2.51106295968505,-5.92069256670838,337.159438866339
738359.42022729595191776752,2.54799035615101,-5.90838343455306,337.110202337718
738359.42022738629020750523,2.57260862046164,-5.88376517024242,337.171747998494
738359.42022747674491256475,2.53568122399569,-5.89607430239774,337.18405713065
738359.42022756719961762428,2.53568122399569,-5.88376517024242,337.220984527116
738359.42022765765432268381,2.56029948830632,-5.8714560380871,337.220984527116
738359.42022774810902774334,2.57260862046164,-5.85914690593178,337.122511469873
738359.42022783844731748104,2.58491775261696,-5.82221950946582,337.196366262805
738359.42022792890202254057,2.59722688477228,-5.85914690593178,337.20867539496
738359.42022801935672760010,2.59722688477228,-5.82221950946582,337.147129734184
738359.42022810981143265963,2.59722688477228,-5.80991037731051,337.18405713065
738359.42022820026613771915,2.59722688477228,-5.76067384868923,337.18405713065
738359.42022829072084277868,2.6095360169276,-5.79760124515519,337.196366262805
738359.42022838105913251638,2.64646341339356,-5.80991037731051,337.110202337718
738359.42022847151383757591,2.63415428123824,-5.74836471653391,337.20867539496
738359.42022856196854263544,2.62184514908292,-5.73605558437859,337.220984527116
738359.42022865242324769497,2.64646341339356,-5.69912818791264,337.18405713065
738359.42022874287795275450,2.67108167770419,-5.674509923602,337.134820602028
738359.42022883321624249220,2.68339080985951,-5.62527339498072,337.220984527116
738359.42022892367094755173,2.70800907417015,-5.6129642628254,337.233293659271
738359.42022901412565261126,2.68339080985951,-5.56372773420413,337.233293659271
738359.42022910458035767078,2.75724560279143,-5.52680033773817,337.233293659271
738359.42022919503506273031,2.78186386710206,-5.45294554480626,337.196366262805
738359.42022928548976778984,2.8064821314127,-5.42832728049562,337.233293659271
738359.42022937582805752754,2.8064821314127,-5.40370901618498,337.20867539496
738359.42022946628276258707,2.83110039572334,-5.40370901618498,337.171747998494
738359.42022955673746764660,2.81879126356802,-5.36678161971903,337.233293659271
738359.42022964719217270613,2.83110039572334,-5.40370901618498,337.073274941252
738359.42022973764687776566,2.81879126356802,-5.4160181483403,337.060965809097
738359.42022982798516750336,2.79417299925738,-5.48987294127221,337.18405713065
738359.42022991843987256289,2.76955473494675,-5.57603686635945,337.171747998494
738359.42023000889457762241,2.72031820632547,-5.63758252713604,337.20867539496
738359.42023009934928268194,2.68339080985951,-5.73605558437859,337.147129734184
738359.42023018980398774147,2.65877254554888,-5.76067384868923,337.20867539496
738359.42023028014227747917,2.64646341339356,-5.76067384868923,337.20867539496
738359.42023037059698253870,2.63415428123824,-5.79760124515519,337.20867539496
738359.42023046105168759823,2.58491775261696,-5.84683777377646,337.171747998494
738359.42023055150639265776,2.58491775261696,-5.85914690593178,337.18405713065
738359.42023064196109771729,2.59722688477228,-5.88376517024242,337.220984527116
738359.42023073241580277681,2.57260862046164,-5.84683777377646,337.122511469873
738359.42023082275409251451,2.56029948830632,-5.89607430239774,337.147129734184
738359.42023091320879757404,2.54799035615101,-5.92069256670838,336.974801884009
738359.42023100366350263357,2.57260862046164,-5.8714560380871,337.085584073407
738359.42023109411820769310,2.56029948830632,-5.85914690593178,337.110202337718
738359.42023118457291275263,2.58491775261696,-5.93300169886369,337.097893205563
738359.42023127491120249033,2.57260862046164,-5.84683777377646,337.110202337718
738359.42023136536590754986,2.58491775261696,-5.8714560380871,337.147129734184
738359.42023145582061260939,2.54799035615101,-5.89607430239774,337.048656676941
738359.42023154627531766891,2.54799035615101,-5.8714560380871,337.073274941252
738359.42023163673002272844,2.58491775261696,-5.85914690593178,337.159438866339
738359.42023172718472778797,2.58491775261696,-5.96992909532965,337.147129734184
738359.42023181752301752567,2.53568122399569,-5.84683777377646,337.134820602028
738359.42023190797772258520,2.58491775261696,-5.84683777377646,337.073274941252
738359.42023199843242764473,2.58491775261696,-5.8714560380871,337.18405713065
738359.42023208888713270426,2.58491775261696,-5.8714560380871,337.18405713065
738359.42023217934183776379,2.57260862046164,-5.88376517024242,337.18405713065
738359.42023226968012750149,2.59722688477228,-5.88376517024242,337.110202337718
738359.42023236013483256102,2.57260862046164,-5.8714560380871,337.20867539496
738359.42023245058953762054,2.57260862046164,-5.8714560380871,337.171747998494
738359.42023254104424268007,2.56029948830632,-5.90838343455306,337.085584073407
738359.42023263149894773960,2.57260862046164,-5.93300169886369,337.18405713065
738359.42023272195365279913,2.57260862046164,-5.85914690593178,337.196366262805
738359.42023281229194253683,2.57260862046164,-5.8714560380871,337.171747998494
738359.42023290274664759636,2.57260862046164,-5.92069256670838,337.159438866339
738359.42023299320135265589,2.56029948830632,-5.89607430239774,337.18405713065
738359.42023308365605771542,2.56029948830632,-5.89607430239774,337.196366262805
738359.42023317411076277494,2.57260862046164,-5.88376517024242,336.99942014832
738359.42023326444905251265,2.54799035615101,-5.90838343455306,337.011729280475
738359.42023335490375757217,2.57260862046164,-5.90838343455306,337.233293659271
738359.42023344535846263170,2.57260862046164,-5.90838343455306,337.220984527116
738359.42023353581316769123,2.57260862046164,-5.89607430239774,337.134820602028
738359.42023362626787275076,2.57260862046164,-5.92069256670838,337.159438866339
738359.42023371660616248846,2.54799035615101,-5.92069256670838,337.20867539496
738359.42023380706086754799,2.53568122399569,-5.92069256670838,337.171747998494
738359.42023389751557260752,2.57260862046164,-5.92069256670838,337.159438866339
738359.42023398797027766705,2.57260862046164,-5.89607430239774,337.20867539496
738359.42023407842498272657,2.56029948830632,-5.89607430239774,337.220984527116
738359.42023416887968778610,2.57260862046164,-5.89607430239774,337.159438866339
738359.42023425921797752380,2.57260862046164,-5.92069256670838,337.159438866339
738359.42023434967268258333,2.54799035615101,-5.90838343455306,337.159438866339
738359.42023444012738764286,2.54799035615101,-5.90838343455306,337.122511469873
738359.42023453058209270239,2.56029948830632,-5.92069256670838,337.159438866339
738359.42023462103679776192,2.56029948830632,-5.96992909532965,337.159438866339
738359.42023471137508749962,2.56029948830632,-5.88376517024242,337.110202337718
738359.42023480182979255915,2.57260862046164,-5.89607430239774,337.159438866339
738359.42023489228449761868,2.56029948830632,-5.92069256670838,337.159438866339
738359.42023498273920267820,2.56029948830632,-5.90838343455306,337.036347544786
738359.42023507319390773773,2.56029948830632,-5.92069256670838,337.134820602028
738359.42023516364861279726,2.56029948830632,-5.92069256670838,337.085584073407
738359.42023525398690253496,2.56029948830632,-5.90838343455306,337.122511469873
738359.42023534444160759449,2.56029948830632,-5.93300169886369,337.134820602028
738359.42023543489631265402,2.57260862046164,-5.90838343455306,337.097893205563
738359.42023552535101771355,2.57260862046164,-5.89607430239774,337.060965809097
738359.42023561580572277308,2.54799035615101,-5.94531083101901,337.097893205563
738359.42023570614401251078,2.56029948830632,-5.94531083101901,337.097893205563
738359.42023579659871757030,2.54799035615101,-5.92069256670838,337.073274941252
738359.42023588705342262983,2.57260862046164,-5.88376517024242,337.097893205563
738359.42023597750812768936,2.57260862046164,-5.90838343455306,337.110202337718
738359.42023606796283274889,2.57260862046164,-5.90838343455306,337.097893205563
738359.42023615830112248659,2.56029948830632,-5.90838343455306,337.036347544786
738359.42023624875582754612,2.56029948830632,-5.92069256670838,337.159438866339
738359.42023633921053260565,2.57260862046164,-5.89607430239774,337.159438866339
738359.42023642966523766518,2.54799035615101,-5.93300169886369,337.134820602028
738359.42023652011994272470,2.54799035615101,-5.90838343455306,337.171747998494
738359.42023661057464778423,2.57260862046164,-5.90838343455306,337.196366262805
738359.42023670091293752193,2.56029948830632,-5.93300169886369,336.974801884009
738359.42023679136764258146,2.57260862046164,-5.90838343455306,336.987111016165
738359.42023688182234764099,2.56029948830632,-5.90838343455306,337.134820602028
738359.42023697227705270052,2.56029948830632,-5.92069256670838,337.147129734184
738359.42023706273175776005,2.56029948830632,-5.89607430239774,337.134820602028
738359.42023715307004749775,2.56029948830632,-5.88376517024242,337.085584073407
738359.42023724352475255728,2.57260862046164,-5.89607430239774,337.110202337718
738359.42023733397945761681,2.6095360169276,-5.88376517024242,337.159438866339
738359.42023742443416267633,2.6095360169276,-5.89607430239774,337.134820602028
738359.42023751488886773586,2.64646341339356,-5.82221950946582,337.134820602028
738359.42023760534357279539,2.65877254554888,-5.80991037731051,337.18405713065
738359.42023769568186253309,2.69569994201483,-5.76067384868923,337.233293659271
738359.42023778613656759262,2.68339080985951,-5.73605558437859,337.233293659271
738359.42023787659127265215,2.63415428123824,-5.84683777377646,337.060965809097
738359.42023796704597771168,2.62184514908292,-5.83452864162114,337.20867539496
738359.42023805750068277121,2.59722688477228,-5.85914690593178,337.18405713065
738359.42023814783897250891,2.59722688477228,-5.83452864162114,337.134820602028
738359.42023823829367756844,2.58491775261696,-5.85914690593178,337.18405713065
738359.42023832874838262796,2.59722688477228,-5.85914690593178,337.20867539496
738359.42023841920308768749,2.57260862046164,-5.94531083101901,337.18405713065
738359.42023850965779274702,2.54799035615101,-5.89607430239774,337.171747998494
738359.42023860011249780655,2.54799035615101,-5.95761996317433,337.20867539496
738359.42023869045078754425,2.54799035615101,-5.92069256670838,337.20867539496
738359.42023878090549260378,2.57260862046164,-5.90838343455306,337.122511469873
738359.42023887136019766331,2.56029948830632,-5.90838343455306,337.196366262805
738359.42023896181490272284,2.54799035615101,-5.94531083101901,337.20867539496
738359.42023905226960778236,2.56029948830632,-5.93300169886369,337.147129734184
738359.42023914260789752007,2.70800907417015,-5.73605558437859,337.20867539496
738359.42023923306260257959,2.88033692434461,-5.32985422325307,337.245602791426
738359.42023932351730763912,3.20037436038291,-4.80056154057436,337.122511469873
738359.42023941397201269865,3.21268349253822,-4.68977935117649,337.024038412631
738359.42023950442671775818,3.10190130314035,-4.81287067272968,336.99942014832
738359.42023959476500749588,2.58491775261696,-5.53910946989349,337.196366262805
738359.42023968521971255541,2.24026205226803,-6.19149347412539,337.18405713065
738359.42023977567441761494,2.43720816675314,-6.00685649179561,337.233293659271
738359.42023986612912267447,2.53568122399569,-5.84683777377646,337.257911923582
738359.42023995658382773399,2.57260862046164,-5.90838343455306,337.147129734184
738359.42024004703853279352,2.57260862046164,-5.84683777377646,337.097893205563
738359.42024013737682253122,2.57260862046164,-5.89607430239774,337.122511469873
738359.42024022783152759075,2.57260862046164,-5.89607430239774,337.048656676941
738359.42024031828623265028,2.57260862046164,-5.88376517024242,336.962492751854
738359.42024040874093770981,2.57260862046164,-5.89607430239774,337.073274941252
738359.42024049919564276934,2.54799035615101,-5.88376517024242,337.134820602028
738359.42024058953393250704,2.58491775261696,-5.88376517024242,337.134820602028
738359.42024067998863756657,2.58491775261696,-5.88376517024242,337.147129734184
738359.42024077044334262609,2.58491775261696,-5.84683777377646,337.122511469873
738359.42024086089804768562,2.59722688477228,-5.85914690593178,337.134820602028
738359.42024095135275274515,2.58491775261696,-5.8714560380871,337.196366262805
738359.42024104180745780468,2.6095360169276,-5.84683777377646,337.20867539496
738359.42024113214574754238,2.62184514908292,-5.80991037731051,337.147129734184
738359.42024122260045260191,2.6095360169276,-5.82221950946582,337.20867539496
738359.42024131305515766144,2.59722688477228,-5.84683777377646,337.134820602028
738359.42024140350986272097,2.62184514908292,-5.79760124515519,337.110202337718
738359.42024149396456778049,2.62184514908292,-5.80991037731051,337.147129734184
738359.42024158430285751820,2.64646341339356,-5.79760124515519,337.122511469873
738359.42024167475756257772,2.65877254554888,-5.74836471653391,337.110202337718
738359.42024176521226763725,2.67108167770419,-5.76067384868923,337.097893205563
738359.42024185566697269678,2.67108167770419,-5.71143732006795,337.134820602028
738359.42024194612167775631,2.65877254554888,-5.69912818791264,337.18405713065
738359.42024203657638281584,2.69569994201483,-5.72374645222327,337.196366262805
738359.42024212691467255354,2.72031820632547,-5.62527339498072,337.18405713065
738359.42024221736937761307,2.72031820632547,-5.60065513067009,337.233293659271
738359.42024230782408267260,2.70800907417015,-5.60065513067009,337.245602791426
738359.42024239827878773212,2.79417299925738,-5.50218207342753,337.147129734184
738359.42024248873349279165,2.79417299925738,-5.48987294127221,337.233293659271
738359.42024257907178252935,2.78186386710206,-5.48987294127221,337.233293659271
738359.42024266952648758888,2.8680277921893,-5.35447248756371,337.147129734184
738359.42024275998119264841,2.83110039572334,-5.40370901618498,337.233293659271
738359.42024285043589770794,2.8680277921893,-5.34216335540839,337.257911923582
738359.42024294089060276747,2.84340952787866,-5.4160181483403,337.233293659271
738359.42024303122889250517,2.84340952787866,-5.4160181483403,337.171747998494
738359.42024312168359756470,2.85571866003398,-5.45294554480626,337.20867539496
738359.42024321213830262423,2.83110039572334,-5.4775638091169,337.196366262805
738359.42024330259300768375,2.79417299925738,-5.56372773420413,337.20867539496
738359.42024339304771274328,2.79417299925738,-5.60065513067009,337.134820602028
738359.42024348350241780281,2.72031820632547,-5.69912818791264,337.20867539496
738359.42024357384070754051,2.70800907417015,-5.72374645222327,337.220984527116
738359.42024366429541260004,2.65877254554888,-5.80991037731051,337.085584073407
738359.42024375475011765957,2.68339080985951,-5.74836471653391,337.110202337718
738359.42024384520482271910,2.6095360169276,-5.90838343455306,337.024038412631
738359.42024393565952777863,2.63415428123824,-5.82221950946582,337.134820602028
738359.42024402599781751633,2.62184514908292,-5.82221950946582,337.18405713065
738359.42024411645252257586,2.63415428123824,-5.85914690593178,337.233293659271
738359.42024420690722763538,2.62184514908292,-5.85914690593178,337.257911923582
738359.42024429736193269491,2.63415428123824,-5.83452864162114,337.159438866339
738359.42024438781663775444,2.62184514908292,-5.8714560380871,337.171747998494
738359.42024447827134281397,2.59722688477228,-5.88376517024242,337.097893205563
738359.42024456860963255167,2.6095360169276,-5.8714560380871,337.085584073407
738359.42024465906433761120,2.6095360169276,-5.8714560380871,337.20867539496
738359.42024474951904267073,2.6095360169276,-5.88376517024242,337.171747998494
738359.42024483997374773026,2.6095360169276,-5.85914690593178,337.147129734184
738359.42024493042845278978,2.6095360169276,-5.88376517024242,337.147129734184
738359.42024502076674252748,2.62184514908292,-5.8714560380871,337.147129734184
738359.42024511122144758701,2.59722688477228,-5.89607430239774,337.060965809097
738359.42024520167615264654,2.62184514908292,-5.8714560380871,337.085584073407
738359.42024529213085770607,2.62184514908292,-5.88376517024242,337.085584073407
738359.42024538258556276560,2.62184514908292,-5.85914690593178,337.073274941252
738359.42024547292385250330,2.62184514908292,-5.8714560380871,337.036347544786
738359.42024556337855756283,2.62184514908292,-5.85914690593178,337.110202337718
738359.42024565383326262236,2.6095360169276,-5.8714560380871,337.110202337718
738359.42024574428796768188,2.59722688477228,-5.90838343455306,337.097893205563
738359.42024583474267274141,2.62184514908292,-5.88376517024242,337.134820602028
738359.42024592519737780094,2.62184514908292,-5.8714560380871,337.18405713065
738359.42024601553566753864,2.6095360169276,-5.88376517024242,337.147129734184
738359.42024610599037259817,2.6095360169276,-5.88376517024242,337.18405713065
738359.42024619644507765770,2.6095360169276,-5.88376517024242,337.196366262805
738359.42024628689978271723,2.59722688477228,-5.90838343455306,337.122511469873
738359.42024637735448777676,2.59722688477228,-5.89607430239774,337.18405713065
738359.42024646769277751446,2.6095360169276,-5.89607430239774,337.20867539496
738359.42024655814748257399,2.62184514908292,-5.88376517024242,337.159438866339
738359.42024664860218763351,2.62184514908292,-5.8714560380871,337.220984527116
738359.42024673905689269304,2.59722688477228,-5.90838343455306,337.171747998494
738359.42024682951159775257,2.6095360169276,-5.92069256670838,337.196366262805
738359.42024691996630281210,2.6095360169276,-5.90838343455306,337.159438866339
738359.42024701030459254980,2.59722688477228,-5.90838343455306,337.196366262805
738359.42024710075929760933,2.59722688477228,-5.90838343455306,337.20867539496
738359.42024719121400266886,2.59722688477228,-5.90838343455306,337.171747998494
738359.42024728166870772839,2.62184514908292,-5.90838343455306,337.147129734184
738359.42024737212341278791,2.62184514908292,-5.90838343455306,337.036347544786
738359.42024746246170252562,2.6095360169276,-5.92069256670838,337.171747998494
738359.42024755291640758514,2.6095360169276,-5.88376517024242,337.220984527116
738359.42024764337111264467,2.6095360169276,-5.92069256670838,337.18405713065
738359.42024773382581770420,2.59722688477228,-5.92069256670838,337.122511469873
738359.42024782428052276373,2.6095360169276,-5.89607430239774,337.122511469873
738359.42024791473522782326,2.6095360169276,-5.92069256670838,337.085584073407
738359.42024800507351756096,2.6095360169276,-5.90838343455306,337.134820602028
738359.42024809552822262049,2.6095360169276,-5.90838343455306,337.18405713065
738359.42024818598292768002,2.6095360169276,-5.90838343455306,337.122511469873
738359.42024827643763273954,2.62184514908292,-5.92069256670838,337.085584073407
738359.42024836689233779907,2.62184514908292,-5.89607430239774,337.073274941252
738359.42024845723062753677,2.59722688477228,-5.93300169886369,337.147129734184
738359.42024854768533259630,2.6095360169276,-5.90838343455306,337.196366262805
738359.42024863814003765583,2.58491775261696,-5.93300169886369,337.134820602028
738359.42024872859474271536,2.59722688477228,-5.93300169886369,337.122511469873
738359.42024881904944777489,2.64646341339356,-5.88376517024242,337.18405713065
738359.42024890938773751259,2.58491775261696,-5.94531083101901,337.220984527116
738359.42024899984244257212,2.6095360169276,-5.90838343455306,337.097893205563
738359.42024909029714763165,2.59722688477228,-5.94531083101901,337.159438866339
738359.42024918075185269117,2.63415428123824,-5.89607430239774,337.220984527116
738359.42024927120655775070,2.6095360169276,-5.90838343455306,337.159438866339
738359.42024936166126281023,2.62184514908292,-5.89607430239774,337.171747998494
738359.42024945199955254793,2.62184514908292,-5.92069256670838,337.220984527116
738359.42024954245425760746,2.62184514908292,-5.94531083101901,337.233293659271
738359.42024963290896266699,2.62184514908292,-5.88376517024242,337.110202337718
738359.42024972336366772652,2.63415428123824,-5.92069256670838,337.18405713065
738359.42024981381837278605,2.59722688477228,-5.90838343455306,337.20867539496
738359.42024990415666252375,2.6095360169276,-5.94531083101901,337.097893205563
738359.42024999461136758327,2.63415428123824,-5.89607430239774,337.048656676941
738359.42025008506607264280,2.6095360169276,-5.90838343455306,337.097893205563
738359.42025017552077770233,2.62184514908292,-5.93300169886369,337.073274941252
738359.42025026597548276186,2.6095360169276,-5.89607430239774,337.097893205563
738359.42025035643018782139,2.62184514908292,-5.92069256670838,337.097893205563
738359.42025044676847755909,2.64646341339356,-5.90838343455306,337.073274941252
738359.42025053722318261862,2.62184514908292,-5.92069256670838,337.134820602028
738359.42025062767788767815,2.6095360169276,-5.90838343455306,337.171747998494
738359.42025071813259273767,2.67108167770419,-5.8714560380871,337.18405713065
738359.42025080858729779720,2.67108167770419,-5.8714560380871,337.048656676941
738359.42025089892558753490,2.69569994201483,-5.82221950946582,337.048656676941
738359.42025098938029259443,2.74493647063611,-5.78529211299987,337.270221055737
738359.42025107983499765396,2.72031820632547,-5.77298298084455,337.147129734184
738359.42025117028970271349,2.73262733848079,-5.79760124515519,337.171747998494
738359.42025126074440777302,2.68339080985951,-5.83452864162114,337.171747998494
738359.42025135108269751072,2.65877254554888,-5.8714560380871,337.171747998494
738359.42025144153740257025,2.67108167770419,-5.85914690593178,337.18405713065
738359.42025153199210762978,2.63415428123824,-5.8714560380871,337.196366262805
738359.42025162244681268930,2.62184514908292,-5.89607430239774,337.18405713065
738359.42025171290151774883,2.62184514908292,-5.92069256670838,337.171747998494
738359.42025180335622280836,2.6095360169276,-5.94531083101901,337.171747998494
738359.42025189369451254606,2.6095360169276,-5.93300169886369,337.18405713065
738359.42025198414921760559,2.58491775261696,-5.93300169886369,337.147129734184
738359.42025207460392266512,2.64646341339356,-5.90838343455306,337.159438866339
738359.42025216505862772465,2.6095360169276,-5.94531083101901,337.159438866339
738359.42025225551333278418,2.57260862046164,-5.95761996317433,337.122511469873
738359.42025234585162252188,2.62184514908292,-5.95761996317433,337.159438866339
738359.42025243630632758141,2.70800907417015,-5.88376517024242,337.18405713065
738359.42025252676103264093,2.78186386710206,-5.62527339498072,337.196366262805
738359.42025261721573770046,3.05266477451908,-5.15752637307861,337.147129734184
738359.42025270767044275999,3.33577481409141,-4.75132501195308,336.962492751854
738359.42025279812514781952,3.21268349253822,-4.86210720135095,336.913256223233
738359.42025288846343755722,2.73262733848079,-5.52680033773817,337.011729280475
738359.42025297891814261675,2.33873510951058,-6.24073000274667,337.060965809097
738359.42025306937284767628,2.44951729890845,-6.0684021525722,337.122511469873
738359.42025315982755273581,2.56029948830632,-5.93300169886369,337.20867539496
738359.42025325028225779533,2.6095360169276,-5.92069256670838,337.024038412631
738359.42025334062054753304,2.63415428123824,-5.89607430239774,337.085584073407
738359.42025343107525259256,2.57260862046164,-5.95761996317433,337.171747998494
738359.42025352152995765209,2.63415428123824,-5.92069256670838,337.18405713065
738359.42025361198466271162,2.64646341339356,-5.90838343455306,337.18405713065
738359.42025370243936777115,2.58491775261696,-5.92069256670838,337.060965809097
738359.42025379289407283068,2.65877254554888,-5.84683777377646,337.18405713065
738359.42025388323236256838,2.62184514908292,-5.95761996317433,337.20867539496
738359.42025397368706762791,2.63415428123824,-5.8714560380871,337.196366262805
738359.42025406414177268744,2.67108167770419,-5.84683777377646,337.134820602028
738359.42025415459647774696,2.65877254554888,-5.89607430239774,337.220984527116
738359.42025424505118280649,2.64646341339356,-5.89607430239774,337.220984527116
738359.42025433538947254419,2.64646341339356,-5.85914690593178,337.20867539496
738359.42025442584417760372,2.67108167770419,-5.8714560380871,337.036347544786
738359.42025451629888266325,2.65877254554888,-5.85914690593178,337.20867539496
738359.42025460675358772278,2.68339080985951,-5.82221950946582,337.233293659271
738359.42025469720829278231,2.67108167770419,-5.8714560380871,337.122511469873
738359.42025478754658252001,2.65877254554888,-5.83452864162114,337.220984527116
738359.42025487800128757954,2.72031820632547,-5.77298298084455,337.196366262805
738359.42025496845599263906,2.70800907417015,-5.77298298084455,337.122511469873
738359.42025505891069769859,2.72031820632547,-5.80991037731051,337.18405713065
738359.42025514936540275812,2.72031820632547,-5.73605558437859,337.171747998494
738359.42025523982010781765,2.74493647063611,-5.72374645222327,337.147129734184
738359.42025533015839755535,2.75724560279143,-5.71143732006795,337.159438866339
738359.42025542061310261488,2.76955473494675,-5.63758252713604,337.18405713065
738359.42025551106780767441,2.8064821314127,-5.62527339498072,337.122511469873
738359.42025560152251273394,2.83110039572334,-5.56372773420413,337.073274941252
738359.42025569197721779346,2.84340952787866,-5.52680033773817,337.097893205563
738359.42025578231550753117,2.88033692434461,-5.50218207342753,337.110202337718
738359.42025587277021259069,2.90495518865525,-5.4160181483403,337.085584073407
738359.42025596322491765022,2.91726432081057,-5.44063641265094,337.122511469873
738359.42025605367962270975,2.94188258512121,-5.37909075187434,337.159438866339
738359.42025614413432776928,2.94188258512121,-5.34216335540839,337.159438866339
738359.42025623458903282881,2.92957345296589,-5.36678161971903,337.085584073407
738359.42025632492732256651,2.94188258512121,-5.40370901618498,337.159438866339
738359.42025641538202762604,2.92957345296589,-5.40370901618498,337.147129734184
738359.42025650583673268557,2.92957345296589,-5.50218207342753,337.122511469873
738359.42025659629143774509,2.88033692434461,-5.56372773420413,337.134820602028
738359.42025668674614280462,2.85571866003398,-5.62527339498072,337.048656676941
738359.42025677708443254232,2.8064821314127,-5.69912818791264,337.147129734184
738359.42025686753913760185,2.76955473494675,-5.76067384868923,337.085584073407
738359.42025695799384266138,2.76955473494675,-5.77298298084455,337.147129734184
738359.42025704844854772091,2.75724560279143,-5.84683777377646,337.048656676941
738359.42025713890325278044,2.73262733848079,-5.82221950946582,337.159438866339
738359.42025722935795783997,2.69569994201483,-5.85914690593178,337.110202337718
738359.42025731969624757767,2.72031820632547,-5.8714560380871,337.110202337718
738359.42025741015095263720,2.69569994201483,-5.8714560380871,337.060965809097
738359.42025750060565769672,2.67108167770419,-5.89607430239774,337.073274941252
738359.42025759106036275625,2.69569994201483,-5.90838343455306,337.122511469873
738359.42025768151506781578,2.67108167770419,-5.88376517024242,337.110202337718
738359.42025777185335755348,2.68339080985951,-5.88376517024242,337.122511469873
738359.42025786230806261301,2.68339080985951,-5.90838343455306,336.925565355388
738359.42025795276276767254,2.69569994201483,-5.90838343455306,336.974801884009
738359.42025804321747273207,2.69569994201483,-5.85914690593178,337.134820602028
738359.42025813367217779160,2.67108167770419,-5.89607430239774,337.110202337718
738359.42025822401046752930,2.69569994201483,-5.89607430239774,337.110202337718
738359.42025831446517258883,2.70800907417015,-5.8714560380871,337.147129734184
738359.42025840491987764835,2.68339080985951,-5.85914690593178,337.196366262805
738359.42025849537458270788,2.67108167770419,-5.89607430239774,337.196366262805
738359.42025858582928776741,2.67108167770419,-5.90838343455306,337.097893205563
738359.42025867628399282694,2.69569994201483,-5.85914690593178,337.220984527116
738359.42025876662228256464,2.70800907417015,-5.85914690593178,337.20867539496
738359.42025885707698762417,2.69569994201483,-5.85914690593178,337.147129734184
738359.42025894753169268370,2.69569994201483,-5.8714560380871,337.18405713065
738359.42025903798639774323,2.69569994201483,-5.8714560380871,337.20867539496
738359.42025912844110280275,2.69569994201483,-5.84683777377646,337.20867539496
738359.42025921877939254045,2.69569994201483,-5.85914690593178,337.159438866339
738359.42025930923409759998,2.69569994201483,-5.90838343455306,337.20867539496
738359.42025939968880265951,2.69569994201483,-5.88376517024242,337.20867539496
738359.42025949014350771904,2.69569994201483,-5.88376517024242,337.147129734184
738359.42025958059821277857,2.68339080985951,-5.88376517024242,337.20867539496
738359.42025967105291783810,2.70800907417015,-5.88376517024242,337.196366262805
738359.42025976139120757580,2.68339080985951,-5.89607430239774,337.220984527116
738359.42025985184591263533,2.67108167770419,-5.92069256670838,337.171747998494
738359.42025994230061769485,2.70800907417015,-5.8714560380871,337.20867539496
738359.42026003275532275438,2.67108167770419,-5.90838343455306,337.233293659271
738359.42026012321002781391,2.67108167770419,-5.90838343455306,337.159438866339
738359.42026021354831755161,2.70800907417015,-5.84683777377646,337.110202337718
738359.42026030400302261114,2.68339080985951,-5.93300169886369,337.097893205563
738359.42026039445772767067,2.64646341339356,-5.94531083101901,337.073274941252
738359.42026048491243273020,2.68339080985951,-5.89607430239774,337.060965809097
738359.42026057536713778973,2.69569994201483,-5.89607430239774,337.097893205563
738359.42026066570542752743,2.68339080985951,-5.89607430239774,337.196366262805
738359.42026075616013258696,2.68339080985951,-5.90838343455306,337.134820602028
738359.42026084661483764648,2.67108167770419,-5.92069256670838,337.159438866339
738359.42026093706954270601,2.69569994201483,-5.8714560380871,337.196366262805
738359.42026102752424776554,2.68339080985951,-5.90838343455306,337.085584073407
738359.42026111797895282507,2.67108167770419,-5.92069256670838,337.18405713065
738359.42026120831724256277,2.67108167770419,-5.89607430239774,337.171747998494
738359.42026129877194762230,2.68339080985951,-5.88376517024242,337.097893205563
738359.42026138922665268183,2.70800907417015,-5.8714560380871,336.962492751854
738359.42026147968135774136,2.69569994201483,-5.90838343455306,337.036347544786
738359.42026157013606280088,2.68339080985951,-5.90838343455306,337.085584073407
738359.42026166047435253859,2.68339080985951,-5.93300169886369,337.097893205563
738359.42026175092905759811,2.69569994201483,-5.89607430239774,337.134820602028
738359.42026184138376265764,2.72031820632547,-5.85914690593178,337.085584073407
738359.42026193183846771717,2.69569994201483,-5.90838343455306,337.085584073407
738359.42026202229317277670,2.67108167770419,-5.95761996317433,337.073274941252
738359.42026211274787783623,2.68339080985951,-5.85914690593178,337.097893205563
738359.42026220308616757393,2.72031820632547,-5.88376517024242,337.073274941252
738359.42026229354087263346,2.70800907417015,-5.88376517024242,337.122511469873
738359.42026238399557769299,2.72031820632547,-5.88376517024242,337.134820602028
738359.42026247445028275251,2.68339080985951,-5.92069256670838,337.122511469873
738359.42026256490498781204,2.68339080985951,-5.89607430239774,337.122511469873
738359.42026265524327754974,2.69569994201483,-5.90838343455306,337.134820602028
738359.42026274569798260927,2.70800907417015,-5.89607430239774,337.196366262805
738359.42026283615268766880,2.69569994201483,-5.88376517024242,337.196366262805
738359.42026292660739272833,2.70800907417015,-5.88376517024242,337.110202337718
738359.42026301706209778786,2.70800907417015,-5.95761996317433,337.18405713065
738359.42026310751680284739,2.72031820632547,-5.84683777377646,337.245602791426
738359.42026319785509258509,2.72031820632547,-5.8714560380871,337.171747998494
738359.42026328830979764462,2.69569994201483,-5.88376517024242,337.171747998494
738359.42026337876450270414,2.73262733848079,-5.8714560380871,337.220984527116
738359.42026346921920776367,2.75724560279143,-5.84683777377646,337.220984527116
738359.42026355967391282320,2.74493647063611,-5.83452864162114,337.159438866339
738359.42026365001220256090,2.75724560279143,-5.85914690593178,337.18405713065
738359.42026374046690762043,2.79417299925738,-5.78529211299987,337.233293659271
738359.42026383092161267996,2.84340952787866,-5.69912818791264,337.257911923582
738359.42026392137631773949,2.81879126356802,-5.74836471653391,337.196366262805
738359.42026401183102279902,2.78186386710206,-5.78529211299987,337.245602791426
738359.42026410216931253672,2.74493647063611,-5.83452864162114,337.233293659271
738359.42026419262401759624,2.75724560279143,-5.79760124515519,337.159438866339
738359.42026428307872265577,2.74493647063611,-5.82221950946582,337.220984527116
738359.42026437353342771530,2.74493647063611,-5.85914690593178,337.245602791426
738359.42026446398813277483,2.70800907417015,-5.8714560380871,337.171747998494
738359.42026455444283783436,2.72031820632547,-5.85914690593178,337.196366262805
738359.42026464478112757206,2.72031820632547,-5.88376517024242,337.245602791426
738359.42026473523583263159,2.69569994201483,-5.89607430239774,337.220984527116
738359.42026482569053769112,2.70800907417015,-5.88376517024242,337.233293659271
738359.42026491614524275064,2.69569994201483,-5.90838343455306,336.962492751854
738359.42026500659994781017,2.70800907417015,-5.8714560380871,337.011729280475
738359.42026509693823754787,2.69569994201483,-5.94531083101901,337.134820602028
738359.42026518739294260740,2.72031820632547,-5.92069256670838,337.134820602028
738359.42026527784764766693,2.83110039572334,-5.72374645222327,337.122511469873
738359.42026536830235272646,2.91726432081057,-5.53910946989349,337.171747998494
738359.42026545875705778599,3.17575609607227,-5.03443505152542,337.122511469873
738359.42026554921176284552,3.44655700348928,-4.61592455824458,337.036347544786
738359.42026563955005258322,3.28653828547014,-4.80056154057436,336.99942014832
738359.42026573000475764275,2.74493647063611,-5.45294554480626,337.134820602028
738359.42026582045946270227,2.43720816675314,-6.11763868119348,337.196366262805
738359.42026591091416776180,2.56029948830632,-6.00685649179561,337.282530187892
738359.42026600136887282133,2.70800907417015,-5.80991037731051,337.294839320048
738359.42026609170716255903,2.72031820632547,-5.88376517024242,337.20867539496
738359.42026618216186761856,2.72031820632547,-5.82221950946582,337.18405713065
738359.42026627261657267809,2.72031820632547,-5.88376517024242,337.245602791426
738359.42026636307127773762,2.72031820632547,-5.83452864162114,337.220984527116
738359.42026645352598279715,2.74493647063611,-5.85914690593178,337.134820602028
738359.42026654398068785667,2.72031820632547,-5.8714560380871,337.233293659271
738359.42026663431897759438,2.74493647063611,-5.82221950946582,337.245602791426
738359.42026672477368265390,2.74493647063611,-5.85914690593178,337.171747998494
738359.42026681522838771343,2.72031820632547,-5.85914690593178,337.159438866339
738359.42026690568309277296,2.76955473494675,-5.80991037731051,337.233293659271
738359.42026699613779783249,2.74493647063611,-5.83452864162114,337.282530187892
738359.42026708647608757019,2.78186386710206,-5.80991037731051,337.134820602028
738359.42026717693079262972,2.75724560279143,-5.80991037731051,337.122511469873
738359.42026726738549768925,2.75724560279143,-5.78529211299987,337.220984527116
738359.42026735784020274878,2.76955473494675,-5.79760124515519,337.282530187892
738359.42026744829490780830,2.79417299925738,-5.77298298084455,337.270221055737
738359.42026753863319754601,2.81879126356802,-5.76067384868923,337.20867539496
738359.42026762908790260553,2.8064821314127,-5.74836471653391,337.233293659271
738359.42026771954260766506,2.8064821314127,-5.74836471653391,337.319457584358
738359.42026780999731272459,2.8064821314127,-5.72374645222327,337.220984527116
738359.42026790045201778412,2.85571866003398,-5.674509923602,337.270221055737
738359.42026799090672284365,2.85571866003398,-5.674509923602,337.20867539496
738359.42026808124501258135,2.8680277921893,-5.64989165929136,337.159438866339
738359.42026817169971764088,2.8680277921893,-5.63758252713604,337.159438866339
738359.42026826215442270041,2.88033692434461,-5.62527339498072,337.171747998494
738359.42026835260912775993,2.85571866003398,-5.58834599851477,337.159438866339
738359.42026844306383281946,2.89264605649993,-5.55141860204881,337.060965809097
738359.42026853340212255716,2.92957345296589,-5.4775638091169,337.122511469873
738359.42026862385682761669,2.97880998158717,-5.46525467696158,337.220984527116
738359.42026871431153267622,2.99111911374248,-5.36678161971903,337.159438866339
738359.42026880476623773575,3.01573737805312,-5.35447248756371,337.233293659271
738359.42026889522094279528,3.05266477451908,-5.31754509109775,337.220984527116
738359.42026898567564785480,3.04035564236376,-5.29292682678711,337.220984527116
738359.42026907601393759251,3.04035564236376,-5.28061769463179,337.196366262805
738359.42026916646864265203,3.04035564236376,-5.35447248756371,337.20867539496
738359.42026925692334771156,3.02804651020844,-5.39139988402966,337.20867539496
738359.42026934737805277109,3.0034282458978,-5.42832728049562,337.147129734184
