time_dn,ecg_projection_ll_ra_mV,ecg_projection_la_ra_mV,ecg_projection_vx_rl_mV
738360.44649448175914585590,-4.16048666849778,0.76316619362977,342.070782596311
738360.44649457221385091543,-4.14817753634246,0.775475325785089,342.009236935535
738360.44649466266855597496,-4.13586840418714,0.750857061474451,342.058473464156
738360.44649475312326103449,-4.04970447909991,0.886257515182958,342.144637389243
738360.44649484357796609402,-3.80352183599353,1.37862280139571,341.972309539069
738360.44649493403267115355,-3.47117526779992,2.09255246640421,342.083091728467
738360.44649502448737621307,-3.64350311797438,1.73558763389996,342.033855199845
738360.44649511482566595078,-3.97584968616799,0.898566647338277,341.996927803379
738360.44649520528037101030,-4.14817753634246,0.76316619362977,342.181564785709
738360.44649529573507606983,-4.1727958006531,0.935494043804234,342.292346975107
738360.44649538618978112936,-4.09894100772118,0.910875779493596,342.144637389243
738360.44649547664448618889,-4.08663187556586,0.849330118717002,342.095400860622
738360.44649556709919124842,-4.08663187556586,0.837020986561683,342.107709992777
738360.44649565755389630795,-4.09894100772118,0.837020986561683,342.132328257088
738360.44649574800860136747,-4.09894100772118,0.837020986561683,342.033855199845
738360.44649583846330642700,-4.08663187556586,0.837020986561683,342.058473464156
738360.44649592891801148653,-4.07432274341055,0.787784457940408,342.058473464156
738360.44649601937271654606,-4.09894100772118,0.849330118717002,342.095400860622
738360.44649610982742160559,-4.09894100772118,0.861639250872321,342.132328257088
738360.44649620016571134329,-4.08663187556586,0.849330118717002,342.120019124933
738360.44649629062041640282,-4.08663187556586,0.861639250872321,342.120019124933
738360.44649638107512146235,-4.07432274341055,0.861639250872321,342.033855199845
738360.44649647152982652187,-4.08663187556586,0.886257515182958,341.984618671224
738360.44649656198453158140,-4.06201361125523,0.886257515182958,341.960000406913
738360.44649665243923664093,-4.07432274341055,0.886257515182958,341.960000406913
738360.44649674289394170046,-4.06201361125523,0.886257515182958,341.947691274758
738360.44649683334864675999,-4.03739534694459,0.910875779493596,341.947691274758
738360.44649692380335181952,-4.01277708263395,0.923184911648915,341.935382142603
738360.44649701425805687904,-4.01277708263395,0.923184911648915,341.947691274758
738360.44649710471276193857,-4.00046795047863,1.02165796889147,342.033855199845
738360.44649719505105167627,-4.00046795047863,1.03396710104678,342.02154606769
738360.44649728550575673580,-3.97584968616799,1.07089449751274,342.02154606769
738360.44649737596046179533,-3.95123142185736,1.12013102613402,342.107709992777
738360.44649746641516685486,-3.90199489323608,1.18167668691061,342.083091728467
738360.44649755686987191439,-3.88968576108076,1.21860408337657,342.083091728467
738360.44649764732457697392,-3.86506749677012,1.29245887630848,342.046164332001
738360.44649773777928203344,-3.82814010030417,1.36631366924039,342.107709992777
738360.44649782823398709297,-3.79121270383821,1.42785933001699,342.156946521399
738360.44649791868869215250,-3.74197617521694,1.47709585863826,342.193873917864
738360.44649800914339721203,-3.72966704306162,1.51402325510422,342.107709992777
738360.44649809959810227156,-3.7173579109063,1.46478672648295,342.058473464156
738360.44649818993639200926,-3.76659443952757,1.36631366924039,342.120019124933
738360.44649828039109706879,-3.82814010030417,1.28014974415316,342.083091728467
738360.44649837084580212831,-3.9143040253914,1.14474929044465,341.972309539069
738360.44649846130050718784,-3.93892228970204,1.03396710104678,341.910763878292
738360.44649855175521224737,-4.00046795047863,0.984730572425509,342.058473464156
738360.44649864220991730690,-4.02508621478927,0.886257515182958,342.070782596311
738360.44649873266462236643,-4.04970447909991,0.861639250872321,342.070782596311
738360.44649882311932742596,-4.07432274341055,0.837020986561683,342.02154606769
738360.44649891357403248549,-4.08663187556586,0.812402722251045,342.083091728467
738360.44649900402873754501,-4.07432274341055,0.812402722251045,342.058473464156
738360.44649909448344260454,-4.09894100772118,0.787784457940408,341.972309539069
738360.44649918482173234224,-4.08663187556586,0.800093590095726,342.046164332001
738360.44649927527643740177,-4.09894100772118,0.812402722251045,342.058473464156
738360.44649936573114246130,-4.1112501398765,0.800093590095726,342.070782596311
738360.44649945618584752083,-4.1112501398765,0.800093590095726,341.947691274758
738360.44649954664055258036,-4.1112501398765,0.787784457940408,342.046164332001
738360.44649963709525763988,-4.08663187556586,0.800093590095726,342.046164332001
738360.44649972754996269941,-4.08663187556586,0.800093590095726,341.972309539069
738360.44649981800466775894,-4.07432274341055,0.800093590095726,342.009236935535
738360.44649990845937281847,-4.09894100772118,0.800093590095726,342.083091728467
738360.44649999891407787800,-4.07432274341055,0.800093590095726,342.046164332001
738360.44650008936878293753,-4.09894100772118,0.812402722251045,342.033855199845
738360.44650017970707267523,-4.08663187556586,0.800093590095726,342.033855199845
738360.44650027016177773476,-4.08663187556586,0.800093590095726,342.033855199845
738360.44650036061648279428,-4.08663187556586,0.812402722251045,341.972309539069
738360.44650045107118785381,-4.1112501398765,0.800093590095726,342.095400860622
738360.44650054152589291334,-4.09894100772118,0.787784457940408,342.095400860622
738360.44650063198059797287,-4.1112501398765,0.800093590095726,341.935382142603
738360.44650072243530303240,-4.08663187556586,0.812402722251045,342.033855199845
738360.44650081289000809193,-4.08663187556586,0.800093590095726,342.033855199845
738360.44650090334471315145,-4.09894100772118,0.775475325785089,341.996927803379
738360.44650099379941821098,-4.08663187556586,0.775475325785089,342.070782596311
738360.44650108425412327051,-4.07432274341055,0.787784457940408,342.058473464156
738360.44650117459241300821,-4.1112501398765,0.800093590095726,342.02154606769
738360.44650126504711806774,-4.1112501398765,0.812402722251045,341.996927803379
738360.44650135550182312727,-4.07432274341055,0.775475325785089,342.02154606769
738360.44650144595652818680,-4.1112501398765,0.76316619362977,342.095400860622
738360.44650153641123324633,-4.12355927203182,0.787784457940408,341.972309539069
738360.44650162686593830585,-4.12355927203182,0.787784457940408,342.033855199845
738360.44650171732064336538,-4.1112501398765,0.775475325785089,342.070782596311
738360.44650180777534842491,-4.12355927203182,0.76316619362977,341.984618671224
738360.44650189823005348444,-4.1112501398765,0.775475325785089,341.947691274758
738360.44650198868475854397,-4.1112501398765,0.775475325785089,341.873836481826
738360.44650207913946360350,-4.1112501398765,0.76316619362977,341.996927803379
738360.44650216959416866302,-4.1112501398765,0.775475325785089,341.960000406913
738360.44650225993245840073,-4.1112501398765,0.750857061474451,341.923073010448
738360.44650235038716346025,-4.12355927203182,0.76316619362977,341.910763878292
738360.44650244084186851978,-4.1112501398765,0.775475325785089,341.972309539069
738360.44650253129657357931,-4.1112501398765,0.787784457940408,341.947691274758
738360.44650262175127863884,-4.1112501398765,0.775475325785089,341.947691274758
738360.44650271220598369837,-4.09894100772118,0.775475325785089,341.910763878292
738360.44650280266068875790,-4.09894100772118,0.76316619362977,341.947691274758
738360.44650289311539381742,-4.08663187556586,0.750857061474451,341.984618671224
738360.44650298357009887695,-4.09894100772118,0.738547929319132,341.935382142603
738360.44650307402480393648,-4.08663187556586,0.738547929319132,341.984618671224
738360.44650316447950899601,-4.07432274341055,0.750857061474451,341.972309539069
738360.44650325481779873371,-4.03739534694459,0.787784457940408,341.984618671224
738360.44650334527250379324,-4.00046795047863,0.849330118717002,341.960000406913
738360.44650343572720885277,-4.00046795047863,0.849330118717002,342.033855199845
738360.44650352618191391230,-4.02508621478927,0.812402722251045,342.033855199845
738360.44650361663661897182,-4.08663187556586,0.800093590095726,341.984618671224
738360.44650370709132403135,-4.08663187556586,0.812402722251045,342.02154606769
738360.44650379754602909088,-4.12355927203182,0.775475325785089,342.070782596311
738360.44650388800073415041,-4.1112501398765,0.775475325785089,342.120019124933
738360.44650397845543920994,-4.1112501398765,0.787784457940408,342.033855199845
738360.44650406891014426947,-4.09894100772118,0.787784457940408,342.058473464156
738360.44650415936484932899,-4.1112501398765,0.750857061474451,342.120019124933
738360.44650424970313906670,-4.1112501398765,0.775475325785089,341.935382142603
738360.44650434015784412622,-4.1112501398765,0.775475325785089,342.033855199845
738360.44650443061254918575,-4.13586840418714,0.837020986561683,342.120019124933
738360.44650452106725424528,-4.14817753634246,0.787784457940408,342.083091728467
738360.44650461152195930481,-4.03739534694459,1.02165796889147,342.144637389243
738360.44650470197666436434,-3.70504877875098,1.60018718019145,342.169255653554
738360.44650479243136942387,-3.47117526779992,2.22795292011272,342.193873917864
738360.44650488288607448339,-3.72966704306162,1.58787804803613,342.033855199845
738360.44650497334077954292,-4.03739534694459,0.787784457940408,342.058473464156
738360.44650506379548460245,-4.13586840418714,0.738547929319132,342.107709992777
738360.44650515425018966198,-4.18510493280842,0.910875779493596,342.193873917864
738360.44650524458847939968,-4.04970447909991,0.935494043804234,342.083091728467
738360.44650533504318445921,-4.06201361125523,0.849330118717002,342.046164332001
738360.44650542549788951874,-4.09894100772118,0.898566647338277,341.996927803379
738360.44650551595259457827,-4.07432274341055,0.837020986561683,341.947691274758
738360.44650560640729963779,-4.09894100772118,0.886257515182958,342.070782596311
738360.44650569686200469732,-4.1112501398765,0.849330118717002,342.058473464156
738360.44650578731670975685,-4.09894100772118,0.837020986561683,342.070782596311
738360.44650587777141481638,-4.08663187556586,0.849330118717002,342.058473464156
738360.44650596822611987591,-4.07432274341055,0.849330118717002,342.02154606769
738360.44650605868082493544,-4.08663187556586,0.861639250872321,342.033855199845
738360.44650614913552999496,-4.07432274341055,0.861639250872321,342.02154606769
738360.44650623947381973267,-4.06201361125523,0.861639250872321,342.046164332001
738360.44650632992852479219,-4.04970447909991,0.886257515182958,341.972309539069
738360.44650642038322985172,-4.04970447909991,0.861639250872321,342.046164332001
738360.44650651083793491125,-4.08663187556586,0.935494043804234,341.996927803379
738360.44650660129263997078,-4.04970447909991,0.898566647338277,341.972309539069
738360.44650669174734503031,-4.02508621478927,0.935494043804234,342.046164332001
738360.44650678220205008984,-4.02508621478927,0.960112308114872,341.996927803379
738360.44650687265675514936,-4.03739534694459,1.00934883673615,342.02154606769
738360.44650696311146020889,-4.02508621478927,1.00934883673615,342.02154606769
738360.44650705356616526842,-4.02508621478927,1.00934883673615,342.046164332001
738360.44650714402087032795,-3.97584968616799,1.0462762332021,342.02154606769
738360.44650723435916006565,-3.95123142185736,1.1078218939787,342.120019124933
738360.44650732481386512518,-3.9143040253914,1.16936755475529,342.120019124933
738360.44650741526857018471,-3.88968576108076,1.24322234768721,342.132328257088
738360.44650750572327524424,-3.85275836461481,1.3047680084638,342.120019124933
738360.44650759617798030376,-3.80352183599353,1.37862280139571,342.193873917864
738360.44650768663268536329,-3.77890357168289,1.46478672648295,342.181564785709
738360.44650777708739042282,-3.74197617521694,1.48940499079358,342.144637389243
738360.44650786754209548235,-3.74197617521694,1.55095065157018,342.243110446486
738360.44650795799680054188,-3.75428530737225,1.5017141229489,342.243110446486
738360.44650804845150560141,-3.80352183599353,1.40324106570635,342.144637389243
738360.44650813890621066093,-3.85275836461481,1.24322234768721,342.132328257088
738360.44650822936091572046,-3.88968576108076,1.12013102613402,342.107709992777
738360.44650831969920545816,-3.95123142185736,1.05858536535742,342.009236935535
738360.44650841015391051769,-4.00046795047863,0.984730572425509,342.070782596311
738360.44650850060861557722,-4.02508621478927,0.935494043804234,342.107709992777
738360.44650859106332063675,-4.06201361125523,0.886257515182958,342.095400860622
738360.44650868151802569628,-4.07432274341055,0.861639250872321,342.070782596311
738360.44650877197273075581,-4.08663187556586,0.861639250872321,342.083091728467
738360.44650886242743581533,-4.09894100772118,0.849330118717002,342.120019124933
738360.44650895288214087486,-4.1112501398765,0.824711854406364,341.984618671224
738360.44650904333684593439,-4.09894100772118,0.824711854406364,341.923073010448
738360.44650913379155099392,-4.09894100772118,0.824711854406364,342.107709992777
738360.44650922424625605345,-4.08663187556586,0.824711854406364,341.996927803379
738360.44650931458454579115,-4.07432274341055,0.800093590095726,341.996927803379
738360.44650940503925085068,-4.08663187556586,0.812402722251045,342.058473464156
738360.44650949549395591021,-4.08663187556586,0.837020986561683,342.058473464156
738360.44650958594866096973,-4.09894100772118,0.824711854406364,342.033855199845
738360.44650967640336602926,-4.12355927203182,0.849330118717002,342.107709992777
738360.44650976685807108879,-4.09894100772118,0.849330118717002,342.058473464156
738360.44650985731277614832,-4.08663187556586,0.824711854406364,341.972309539069
738360.44650994776748120785,-4.08663187556586,0.824711854406364,342.058473464156
738360.44651003822218626738,-4.09894100772118,0.800093590095726,342.009236935535
738360.44651012867689132690,-4.09894100772118,0.837020986561683,342.033855199845
738360.44651021913159638643,-4.08663187556586,0.824711854406364,341.984618671224
738360.44651030946988612413,-4.08663187556586,0.837020986561683,341.984618671224
738360.44651039992459118366,-4.07432274341055,0.824711854406364,341.947691274758
738360.44651049037929624319,-4.06201361125523,0.812402722251045,341.972309539069
738360.44651058083400130272,-4.06201361125523,0.812402722251045,341.996927803379
738360.44651067128870636225,-4.09894100772118,0.824711854406364,342.009236935535
738360.44651076174341142178,-4.08663187556586,0.812402722251045,342.009236935535
738360.44651085219811648130,-4.09894100772118,0.824711854406364,341.960000406913
738360.44651094265282154083,-4.13586840418714,0.824711854406364,342.046164332001
738360.44651103310752660036,-4.1112501398765,0.812402722251045,342.009236935535
738360.44651112356223165989,-4.1112501398765,0.812402722251045,342.046164332001
738360.44651121401693671942,-4.09894100772118,0.800093590095726,342.02154606769
738360.44651130435522645712,-4.1112501398765,0.800093590095726,342.02154606769
738360.44651139480993151665,-4.09894100772118,0.800093590095726,342.009236935535
738360.44651148526463657618,-4.1112501398765,0.812402722251045,342.058473464156
738360.44651157571934163570,-4.09894100772118,0.787784457940408,341.972309539069
738360.44651166617404669523,-4.1112501398765,0.800093590095726,341.984618671224
738360.44651175662875175476,-4.1112501398765,0.787784457940408,341.972309539069
738360.44651184708345681429,-4.1112501398765,0.787784457940408,341.960000406913
738360.44651193753816187382,-4.1112501398765,0.787784457940408,341.996927803379
738360.44651202799286693335,-4.12355927203182,0.787784457940408,342.070782596311
738360.44651211844757199287,-4.1112501398765,0.800093590095726,342.070782596311
738360.44651220890227705240,-4.1112501398765,0.787784457940408,342.083091728467
738360.44651229924056679010,-4.12355927203182,0.787784457940408,342.083091728467
738360.44651238969527184963,-4.12355927203182,0.775475325785089,342.033855199845
738360.44651248014997690916,-4.12355927203182,0.800093590095726,342.058473464156
738360.44651257060468196869,-4.1112501398765,0.800093590095726,341.910763878292
738360.44651266105938702822,-4.09894100772118,0.775475325785089,342.046164332001
738360.44651275151409208775,-4.09894100772118,0.775475325785089,342.033855199845
738360.44651284196879714727,-4.1112501398765,0.775475325785089,342.046164332001
738360.44651293242350220680,-4.07432274341055,0.738547929319132,341.83690908536
738360.44651302287820726633,-4.08663187556586,0.738547929319132,341.873836481826
738360.44651311333291232586,-4.03739534694459,0.800093590095726,341.873836481826
738360.44651320378761738539,-4.02508621478927,0.837020986561683,341.960000406913
738360.44651329412590712309,-4.01277708263395,0.849330118717002,341.972309539069
738360.44651338458061218262,-4.01277708263395,0.861639250872321,341.972309539069
738360.44651347503531724215,-4.04970447909991,0.837020986561683,341.972309539069
738360.44651356549002230167,-4.09894100772118,0.800093590095726,341.984618671224
738360.44651365594472736120,-4.1112501398765,0.800093590095726,342.058473464156
738360.44651374639943242073,-4.1112501398765,0.775475325785089,341.972309539069
738360.44651383685413748026,-4.1112501398765,0.775475325785089,341.996927803379
738360.44651392730884253979,-4.13586840418714,0.824711854406364,341.996927803379
738360.44651401776354759932,-4.14817753634246,0.800093590095726,342.02154606769
738360.44651410821825265884,-4.12355927203182,0.775475325785089,342.046164332001
738360.44651419867295771837,-4.13586840418714,0.800093590095726,342.070782596311
738360.44651428912766277790,-4.13586840418714,0.787784457940408,342.033855199845
738360.44651437946595251560,-4.14817753634246,0.775475325785089,342.083091728467
738360.44651446992065757513,-4.12355927203182,0.800093590095726,342.046164332001
738360.44651456037536263466,-3.92661315754672,1.19398581906593,342.144637389243
738360.44651465083006769419,-3.54503006073183,1.90791548407442,342.20618305002
738360.44651474128477275372,-3.54503006073183,2.1540981271808,342.181564785709
738360.44651483173947781324,-3.86506749677012,1.23091321553189,342.058473464156
738360.44651492219418287277,-4.1727958006531,0.726238797163813,342.070782596311
738360.44651501264888793230,-4.18510493280842,0.935494043804234,342.23080131433
738360.44651510310359299183,-4.06201361125523,0.960112308114872,342.169255653554
738360.44651519355829805136,-4.07432274341055,0.87394838302764,342.070782596311
738360.44651528401300311089,-4.09894100772118,0.849330118717002,342.046164332001
738360.44651537435129284859,-4.09894100772118,0.824711854406364,342.095400860622
738360.44651546480599790812,-4.1112501398765,0.849330118717002,342.083091728467
738360.44651555526070296764,-4.1112501398765,0.849330118717002,342.02154606769
738360.44651564571540802717,-4.09894100772118,0.849330118717002,342.070782596311
738360.44651573617011308670,-4.1112501398765,0.837020986561683,342.120019124933
738360.44651582662481814623,-4.09894100772118,0.849330118717002,342.083091728467
738360.44651591707952320576,-4.09894100772118,0.861639250872321,342.156946521399
738360.44651600753422826529,-4.07432274341055,0.861639250872321,342.070782596311
738360.44651609798893332481,-4.09894100772118,0.87394838302764,342.095400860622
738360.44651618844363838434,-4.09894100772118,0.861639250872321,342.144637389243
738360.44651627889834344387,-4.07432274341055,0.87394838302764,342.095400860622
738360.44651636923663318157,-4.08663187556586,0.898566647338277,342.083091728467
738360.44651645969133824110,-4.06201361125523,0.886257515182958,342.120019124933
738360.44651655014604330063,-4.06201361125523,0.910875779493596,342.132328257088
738360.44651664060074836016,-4.04970447909991,0.923184911648915,342.070782596311
738360.44651673105545341969,-4.03739534694459,0.935494043804234,342.144637389243
738360.44651682151015847921,-4.01277708263395,0.972421440270191,342.083091728467
738360.44651691196486353874,-4.01277708263395,1.00934883673615,342.083091728467
738360.44651700241956859827,-4.00046795047863,1.02165796889147,342.132328257088
738360.44651709287427365780,-3.97584968616799,1.09551276182338,342.169255653554
738360.44651718332897871733,-3.93892228970204,1.14474929044465,342.169255653554
738360.44651727378368377686,-3.90199489323608,1.24322234768721,342.132328257088
738360.44651736412197351456,-3.86506749677012,1.3047680084638,342.20618305002
738360.44651745457667857409,-3.81583096814885,1.39093193355103,342.193873917864
738360.44651754503138363361,-3.79121270383821,1.44016846217231,342.181564785709
738360.44651763548608869314,-3.76659443952757,1.5017141229489,342.280037842952
738360.44651772594079375267,-3.74197617521694,1.5017141229489,342.193873917864
738360.44651781639549881220,-3.75428530737225,1.46478672648295,342.169255653554
738360.44651790685020387173,-3.79121270383821,1.39093193355103,342.120019124933
738360.44651799730490893126,-3.81583096814885,1.32938627277444,342.107709992777
738360.44651808775961399078,-3.88968576108076,1.19398581906593,342.120019124933
738360.44651817821431905031,-3.93892228970204,1.1078218939787,342.083091728467
738360.44651826866902410984,-3.98815881832331,1.03396710104678,342.095400860622
738360.44651835900731384754,-4.01277708263395,0.935494043804234,341.886145613982
738360.44651844946201890707,-4.03739534694459,0.886257515182958,341.972309539069
738360.44651853991672396660,-4.07432274341055,0.861639250872321,341.972309539069
738360.44651863037142902613,-4.08663187556586,0.824711854406364,341.984618671224
738360.44651872082613408566,-4.1112501398765,0.837020986561683,341.984618671224
738360.44651881128083914518,-4.1112501398765,0.837020986561683,342.02154606769
738360.44651890173554420471,-4.08663187556586,0.837020986561683,342.033855199845
738360.44651899219024926424,-4.1112501398765,0.812402722251045,341.972309539069
738360.44651908264495432377,-4.13586840418714,0.787784457940408,341.996927803379
738360.44651917309965938330,-4.1112501398765,0.812402722251045,341.947691274758
738360.44651926355436444283,-4.1112501398765,0.824711854406364,342.033855199845
738360.44651935389265418053,-4.09894100772118,0.812402722251045,341.984618671224
738360.44651944434735924006,-4.1112501398765,0.812402722251045,341.972309539069
738360.44651953480206429958,-4.1112501398765,0.812402722251045,341.787672556739
738360.44651962525676935911,-4.09894100772118,0.824711854406364,341.886145613982
738360.44651971571147441864,-4.1112501398765,0.812402722251045,342.033855199845
738360.44651980616617947817,-4.09894100772118,0.812402722251045,342.02154606769
738360.44651989662088453770,-4.08663187556586,0.824711854406364,341.984618671224
738360.44651998707558959723,-4.12355927203182,0.800093590095726,342.02154606769
738360.44652007753029465675,-4.1112501398765,0.812402722251045,342.046164332001
738360.44652016798499971628,-4.09894100772118,0.812402722251045,342.058473464156
738360.44652025843970477581,-4.1112501398765,0.812402722251045,342.120019124933
738360.44652034889440983534,-4.12355927203182,0.800093590095726,342.095400860622
738360.44652043923269957304,-4.12355927203182,0.812402722251045,342.02154606769
738360.44652052968740463257,-4.1112501398765,0.812402722251045,342.107709992777
738360.44652062014210969210,-4.12355927203182,0.800093590095726,342.107709992777
738360.44652071059681475163,-4.1112501398765,0.800093590095726,342.120019124933
738360.44652080105151981115,-4.09894100772118,0.812402722251045,342.095400860622
738360.44652089150622487068,-4.12355927203182,0.800093590095726,342.107709992777
738360.44652098196092993021,-4.13586840418714,0.800093590095726,342.083091728467
738360.44652107241563498974,-4.12355927203182,0.787784457940408,342.046164332001
738360.44652116287034004927,-4.12355927203182,0.800093590095726,342.070782596311
738360.44652125332504510880,-4.12355927203182,0.787784457940408,342.107709992777
738360.44652134377975016832,-4.14817753634246,0.775475325785089,342.046164332001
738360.44652143411803990602,-4.13586840418714,0.787784457940408,342.058473464156
738360.44652152457274496555,-4.12355927203182,0.787784457940408,342.033855199845
738360.44652161502745002508,-4.13586840418714,0.800093590095726,342.02154606769
738360.44652170548215508461,-4.14817753634246,0.787784457940408,342.02154606769
738360.44652179593686014414,-4.12355927203182,0.800093590095726,341.996927803379
738360.44652188639156520367,-4.13586840418714,0.787784457940408,342.02154606769
738360.44652197684627026320,-4.13586840418714,0.800093590095726,342.02154606769
738360.44652206730097532272,-4.13586840418714,0.775475325785089,342.009236935535
738360.44652215775568038225,-4.14817753634246,0.775475325785089,342.02154606769
738360.44652224821038544178,-4.12355927203182,0.787784457940408,342.033855199845
738360.44652233866509050131,-4.12355927203182,0.787784457940408,342.095400860622
738360.44652242900338023901,-4.13586840418714,0.775475325785089,341.996927803379
738360.44652251945808529854,-4.13586840418714,0.775475325785089,342.046164332001
738360.44652260991279035807,-4.12355927203182,0.738547929319132,342.033855199845
738360.44652270036749541759,-4.14817753634246,0.76316619362977,342.02154606769
738360.44652279082220047712,-4.12355927203182,0.738547929319132,342.046164332001
738360.44652288127690553665,-4.12355927203182,0.76316619362977,341.996927803379
738360.44652297173161059618,-4.09894100772118,0.76316619362977,341.960000406913
738360.44652306218631565571,-4.08663187556586,0.775475325785089,341.81229082105
738360.44652315264102071524,-4.01277708263395,0.837020986561683,341.861527349671
738360.44652324309572577477,-4.04970447909991,0.837020986561683,341.960000406913
738360.44652333355043083429,-4.03739534694459,0.837020986561683,341.935382142603
738360.44652342388872057199,-4.07432274341055,0.824711854406364,341.935382142603
738360.44652351434342563152,-4.1112501398765,0.812402722251045,341.972309539069
738360.44652360479813069105,-4.12355927203182,0.812402722251045,342.02154606769
738360.44652369525283575058,-4.13586840418714,0.787784457940408,342.058473464156
738360.44652378570754081011,-4.13586840418714,0.775475325785089,342.058473464156
738360.44652387616224586964,-4.16048666849778,0.787784457940408,342.058473464156
738360.44652396661695092916,-4.16048666849778,0.76316619362977,342.070782596311
738360.44652405707165598869,-4.16048666849778,0.787784457940408,342.02154606769
738360.44652414752636104822,-4.13586840418714,0.775475325785089,342.02154606769
738360.44652423798106610775,-4.14817753634246,0.800093590095726,342.083091728467
738360.44652432843577116728,-4.1727958006531,0.775475325785089,342.095400860622
738360.44652441877406090498,-4.13586840418714,0.76316619362977,342.095400860622
738360.44652450922876596451,-4.03739534694459,1.05858536535742,342.181564785709
738360.44652459968347102404,-3.68043051444034,1.73558763389996,342.267728710796
738360.44652469013817608356,-3.50810266426588,2.25257118442335,342.193873917864
738360.44652478059288114309,-3.82814010030417,1.42785933001699,342.083091728467
738360.44652487104758620262,-4.13586840418714,0.713929665008494,342.132328257088
738360.44652496150229126215,-4.20972319711905,0.886257515182958,342.243110446486
738360.44652505195699632168,-4.12355927203182,0.984730572425509,342.23080131433
738360.44652514241170138121,-4.09894100772118,0.861639250872321,342.132328257088
738360.44652523286640644073,-4.12355927203182,0.861639250872321,342.070782596311
738360.44652532332111150026,-4.13586840418714,0.824711854406364,342.070782596311
738360.44652541365940123796,-4.13586840418714,0.812402722251045,342.120019124933
738360.44652550411410629749,-4.13586840418714,0.837020986561683,342.046164332001
738360.44652559456881135702,-4.14817753634246,0.824711854406364,342.070782596311
738360.44652568502351641655,-4.12355927203182,0.837020986561683,342.144637389243
738360.44652577547822147608,-4.1112501398765,0.837020986561683,342.132328257088
738360.44652586593292653561,-4.12355927203182,0.849330118717002,342.033855199845
738360.44652595638763159513,-4.13586840418714,0.861639250872321,342.009236935535
738360.44652604684233665466,-4.12355927203182,0.849330118717002,341.984618671224
738360.44652613729704171419,-4.12355927203182,0.861639250872321,342.046164332001
738360.44652622775174677372,-4.09894100772118,0.861639250872321,342.058473464156
738360.44652631820645183325,-4.09894100772118,0.886257515182958,342.046164332001
738360.44652640866115689278,-4.08663187556586,0.886257515182958,342.02154606769
738360.44652649899944663048,-4.08663187556586,0.886257515182958,342.033855199845
738360.44652658945415169001,-4.09894100772118,0.923184911648915,341.886145613982
738360.44652667990885674953,-4.07432274341055,0.935494043804234,341.960000406913
738360.44652677036356180906,-4.07432274341055,0.947803175959553,342.095400860622
738360.44652686081826686859,-4.03739534694459,0.997039704580828,342.058473464156
738360.44652695127297192812,-4.02508621478927,1.0462762332021,342.070782596311
738360.44652704172767698765,-3.97584968616799,1.07089449751274,342.070782596311
738360.44652713218238204718,-3.96354055401268,1.13244015828934,342.132328257088
738360.44652722263708710670,-3.9143040253914,1.18167668691061,342.132328257088
738360.44652731309179216623,-3.90199489323608,1.20629495122125,342.144637389243
738360.44652740354649722576,-3.87737662892544,1.31707714061912,342.083091728467
738360.44652749388478696346,-3.84044923245949,1.37862280139571,342.193873917864
738360.44652758433949202299,-3.81583096814885,1.44016846217231,342.156946521399
738360.44652767479419708252,-3.79121270383821,1.48940499079358,342.107709992777
738360.44652776524890214205,-3.76659443952757,1.5017141229489,342.144637389243
738360.44652785570360720158,-3.77890357168289,1.45247759432763,342.132328257088
738360.44652794615831226110,-3.81583096814885,1.35400453708508,342.070782596311
738360.44652803661301732063,-3.87737662892544,1.24322234768721,342.046164332001
738360.44652812706772238016,-3.96354055401268,1.14474929044465,342.033855199845
738360.44652821752242743969,-3.98815881832331,1.03396710104678,341.935382142603
738360.44652830797713249922,-4.03739534694459,0.947803175959553,341.972309539069
738360.44652839843183755875,-4.07432274341055,0.898566647338277,341.947691274758
738360.44652848877012729645,-4.08663187556586,0.87394838302764,342.058473464156
738360.44652857922483235598,-4.1112501398765,0.837020986561683,342.070782596311
738360.44652866967953741550,-4.12355927203182,0.837020986561683,342.033855199845
738360.44652876013424247503,-4.09894100772118,0.824711854406364,342.033855199845
738360.44652885058894753456,-4.13586840418714,0.824711854406364,342.058473464156
738360.44652894104365259409,-4.1112501398765,0.824711854406364,342.009236935535
738360.44652903149835765362,-4.14817753634246,0.824711854406364,342.009236935535
738360.44652912195306271315,-4.13586840418714,0.812402722251045,342.009236935535
738360.44652921240776777267,-4.13586840418714,0.800093590095726,342.033855199845
738360.44652930286247283220,-4.1112501398765,0.849330118717002,342.046164332001
738360.44652939331717789173,-4.12355927203182,0.800093590095726,342.046164332001
738360.44652948365546762943,-4.12355927203182,0.812402722251045,342.033855199845
738360.44652957411017268896,-4.1112501398765,0.812402722251045,341.984618671224
738360.44652966456487774849,-4.12355927203182,0.800093590095726,342.009236935535
738360.44652975501958280802,-4.12355927203182,0.824711854406364,342.046164332001
738360.44652984547428786755,-4.12355927203182,0.824711854406364,341.984618671224
738360.44652993592899292707,-4.1112501398765,0.812402722251045,341.935382142603
738360.44653002638369798660,-4.1112501398765,0.837020986561683,341.935382142603
738360.44653011683840304613,-4.13586840418714,0.800093590095726,341.824599953205
738360.44653020729310810566,-4.12355927203182,0.824711854406364,341.898454746137
738360.44653029774781316519,-4.12355927203182,0.812402722251045,341.947691274758
738360.44653038820251822472,-4.14817753634246,0.812402722251045,341.960000406913
738360.44653047854080796242,-4.1112501398765,0.824711854406364,342.083091728467
738360.44653056899551302195,-4.12355927203182,0.800093590095726,342.070782596311
738360.44653065945021808147,-4.13586840418714,0.787784457940408,341.996927803379
738360.44653074990492314100,-4.13586840418714,0.800093590095726,342.02154606769
738360.44653084035962820053,-4.13586840418714,0.812402722251045,341.996927803379
738360.44653093081433326006,-4.13586840418714,0.787784457940408,341.947691274758
738360.44653102126903831959,-4.13586840418714,0.812402722251045,341.984618671224
738360.44653111172374337912,-4.13586840418714,0.800093590095726,341.960000406913
738360.44653120217844843864,-4.13586840418714,0.787784457940408,341.984618671224
738360.44653129263315349817,-4.14817753634246,0.787784457940408,341.996927803379
738360.44653138308785855770,-4.13586840418714,0.812402722251045,342.046164332001
738360.44653147342614829540,-4.14817753634246,0.750857061474451,342.009236935535
738360.44653156388085335493,-4.14817753634246,0.812402722251045,341.984618671224
738360.44653165433555841446,-4.13586840418714,0.800093590095726,342.02154606769
738360.44653174479026347399,-4.14817753634246,0.76316619362977,341.996927803379
738360.44653183524496853352,-4.14817753634246,0.787784457940408,341.947691274758
738360.44653192569967359304,-4.13586840418714,0.787784457940408,341.984618671224
738360.44653201615437865257,-4.13586840418714,0.800093590095726,341.996927803379
738360.44653210660908371210,-4.14817753634246,0.800093590095726,342.02154606769
738360.44653219706378877163,-4.13586840418714,0.787784457940408,341.996927803379
738360.44653228751849383116,-4.16048666849778,0.750857061474451,341.996927803379
738360.44653237797319889069,-4.13586840418714,0.775475325785089,342.009236935535
738360.44653246842790395021,-4.14817753634246,0.775475325785089,342.009236935535
738360.44653255876619368792,-4.14817753634246,0.750857061474451,341.947691274758
738360.44653264922089874744,-4.12355927203182,0.76316619362977,341.935382142603
738360.44653273967560380697,-4.1112501398765,0.750857061474451,341.873836481826
738360.44653283013030886650,-4.08663187556586,0.738547929319132,341.861527349671
738360.44653292058501392603,-4.06201361125523,0.800093590095726,341.861527349671
738360.44653301103971898556,-4.02508621478927,0.861639250872321,341.873836481826
738360.44653310149442404509,-4.03739534694459,0.849330118717002,341.960000406913
738360.44653319194912910461,-4.02508621478927,0.87394838302764,341.996927803379
738360.44653328240383416414,-4.09894100772118,0.824711854406364,341.947691274758
738360.44653337285853922367,-4.12355927203182,0.812402722251045,342.033855199845
738360.44653346331324428320,-4.12355927203182,0.800093590095726,342.046164332001
738360.44653355365153402090,-4.13586840418714,0.787784457940408,342.009236935535
738360.44653364410623908043,-4.14817753634246,0.787784457940408,341.935382142603
738360.44653373456094413996,-4.16048666849778,0.787784457940408,341.947691274758
738360.44653382501564919949,-4.13586840418714,0.787784457940408,342.033855199845
738360.44653391547035425901,-4.14817753634246,0.800093590095726,341.984618671224
738360.44653400592505931854,-4.16048666849778,0.787784457940408,342.02154606769
738360.44653409637976437807,-4.16048666849778,0.800093590095726,342.095400860622
738360.44653418683446943760,-4.13586840418714,0.750857061474451,341.935382142603
738360.44653427728917449713,-4.06201361125523,1.00934883673615,342.083091728467
738360.44653436774387955666,-3.72966704306162,1.62480544450209,342.156946521399
738360.44653445819858461618,-3.5204117964212,2.25257118442335,342.193873917864
738360.44653454853687435389,-3.79121270383821,1.55095065157018,341.972309539069
738360.44653463899157941341,-4.1112501398765,0.750857061474451,341.996927803379
738360.44653472944628447294,-4.19741406496373,0.738547929319132,342.033855199845
738360.44653481990098953247,-4.19741406496373,0.923184911648915,342.181564785709
738360.44653491035569459200,-4.1112501398765,0.923184911648915,342.083091728467
738360.44653500081039965153,-4.08663187556586,0.87394838302764,341.972309539069
738360.44653509126510471106,-4.1112501398765,0.849330118717002,342.009236935535
738360.44653518171980977058,-4.1112501398765,0.849330118717002,341.984618671224
738360.44653527217451483011,-4.1112501398765,0.837020986561683,342.02154606769
738360.44653536262921988964,-4.14817753634246,0.849330118717002,341.996927803379
738360.44653545308392494917,-4.12355927203182,0.849330118717002,342.02154606769
738360.44653554342221468687,-4.12355927203182,0.837020986561683,342.009236935535
738360.44653563387691974640,-4.13586840418714,0.837020986561683,342.070782596311
738360.44653572433162480593,-4.09894100772118,0.861639250872321,342.070782596311
738360.44653581478632986546,-4.09894100772118,0.861639250872321,341.984618671224
738360.44653590524103492498,-4.09894100772118,0.861639250872321,342.033855199845
738360.44653599569573998451,-4.09894100772118,0.886257515182958,342.070782596311
738360.44653608615044504404,-4.09894100772118,0.886257515182958,342.033855199845
738360.44653617660515010357,-4.09894100772118,0.910875779493596,342.070782596311
738360.44653626705985516310,-4.08663187556586,0.898566647338277,342.058473464156
738360.44653635751456022263,-4.06201361125523,0.947803175959553,342.02154606769
738360.44653644796926528215,-4.07432274341055,0.923184911648915,341.996927803379
738360.44653653830755501986,-4.06201361125523,0.935494043804234,341.984618671224
738360.44653662876226007938,-4.04970447909991,0.972421440270191,341.960000406913
738360.44653671921696513891,-4.01277708263395,1.03396710104678,341.984618671224
738360.44653680967167019844,-4.01277708263395,1.05858536535742,341.996927803379
738360.44653690012637525797,-3.97584968616799,1.09551276182338,342.02154606769
738360.44653699058108031750,-3.95123142185736,1.18167668691061,342.033855199845
738360.44653708103578537703,-3.92661315754672,1.23091321553189,341.984618671224
738360.44653717149049043655,-3.90199489323608,1.31707714061912,341.996927803379
738360.44653726194519549608,-3.82814010030417,1.35400453708508,341.984618671224
738360.44653735239990055561,-3.81583096814885,1.41555019786167,342.181564785709
738360.44653744285460561514,-3.80352183599353,1.5017141229489,342.107709992777
738360.44653753319289535284,-3.79121270383821,1.5017141229489,342.144637389243
738360.44653762364760041237,-3.77890357168289,1.45247759432763,342.120019124933
738360.44653771410230547190,-3.82814010030417,1.36631366924039,342.095400860622
738360.44653780455701053143,-3.88968576108076,1.24322234768721,342.095400860622
738360.44653789501171559095,-3.92661315754672,1.13244015828934,342.095400860622
738360.44653798546642065048,-3.96354055401268,1.03396710104678,342.046164332001
738360.44653807592112571001,-4.03739534694459,0.960112308114872,342.033855199845
738360.44653816637583076954,-4.07432274341055,0.910875779493596,342.02154606769
738360.44653825683053582907,-4.08663187556586,0.849330118717002,342.046164332001
738360.44653834728524088860,-4.1112501398765,0.849330118717002,342.058473464156
738360.44653843773994594812,-4.13586840418714,0.837020986561683,341.996927803379
738360.44653852819465100765,-4.1112501398765,0.837020986561683,342.046164332001
738360.44653861853294074535,-4.1112501398765,0.824711854406364,341.984618671224
738360.44653870898764580488,-4.14817753634246,0.787784457940408,342.02154606769
738360.44653879944235086441,-4.13586840418714,0.800093590095726,341.984618671224
738360.44653888989705592394,-4.1112501398765,0.812402722251045,342.046164332001
738360.44653898035176098347,-4.09894100772118,0.812402722251045,342.033855199845
738360.44653907080646604300,-4.12355927203182,0.800093590095726,341.972309539069
738360.44653916126117110252,-4.12355927203182,0.812402722251045,341.910763878292
738360.44653925171587616205,-4.12355927203182,0.812402722251045,341.947691274758
738360.44653934217058122158,-4.12355927203182,0.824711854406364,341.923073010448
738360.44653943262528628111,-4.1112501398765,0.812402722251045,341.947691274758
738360.44653952307999134064,-4.13586840418714,0.800093590095726,341.947691274758
738360.44653961341828107834,-4.12355927203182,0.800093590095726,341.935382142603
738360.44653970387298613787,-4.14817753634246,0.800093590095726,341.960000406913
738360.44653979432769119740,-4.12355927203182,0.812402722251045,341.935382142603
738360.44653988478239625692,-4.12355927203182,0.800093590095726,341.984618671224
738360.44653997523710131645,-4.1112501398765,0.812402722251045,341.935382142603
738360.44654006569180637598,-4.1112501398765,0.824711854406364,341.935382142603
738360.44654015614651143551,-4.12355927203182,0.787784457940408,341.935382142603
738360.44654024660121649504,-4.13586840418714,0.800093590095726,341.947691274758
738360.44654033705592155457,-4.12355927203182,0.800093590095726,341.935382142603
738360.44654042751062661409,-4.13586840418714,0.812402722251045,342.02154606769
738360.44654051796533167362,-4.14817753634246,0.800093590095726,341.947691274758
738360.44654060830362141132,-4.13586840418714,0.800093590095726,341.984618671224
738360.44654069875832647085,-4.12355927203182,0.800093590095726,341.910763878292
738360.44654078921303153038,-4.16048666849778,0.76316619362977,341.83690908536
738360.44654087966773658991,-4.13586840418714,0.812402722251045,341.972309539069
738360.44654097012244164944,-4.13586840418714,0.775475325785089,341.923073010448
738360.44654106057714670897,-4.16048666849778,0.800093590095726,342.009236935535
738360.44654115103185176849,-4.14817753634246,0.76316619362977,341.972309539069
738360.44654124148655682802,-4.14817753634246,0.787784457940408,342.009236935535
738360.44654133194126188755,-4.13586840418714,0.775475325785089,341.984618671224
738360.44654142239596694708,-4.14817753634246,0.800093590095726,342.009236935535
738360.44654151285067200661,-4.13586840418714,0.787784457940408,341.972309539069
738360.44654160318896174431,-4.13586840418714,0.800093590095726,342.033855199845
738360.44654169364366680384,-4.12355927203182,0.76316619362977,341.972309539069
738360.44654178409837186337,-4.13586840418714,0.787784457940408,341.960000406913
738360.44654187455307692289,-4.12355927203182,0.76316619362977,341.947691274758
738360.44654196500778198242,-4.13586840418714,0.775475325785089,341.923073010448
738360.44654205546248704195,-4.1112501398765,0.76316619362977,341.873836481826
738360.44654214591719210148,-4.09894100772118,0.76316619362977,341.861527349671
738360.44654223637189716101,-4.09894100772118,0.76316619362977,341.861527349671
738360.44654232682660222054,-4.02508621478927,0.837020986561683,341.873836481826
738360.44654241728130728006,-4.01277708263395,0.861639250872321,341.886145613982
738360.44654250773601233959,-4.01277708263395,0.87394838302764,341.935382142603
738360.44654259807430207729,-4.06201361125523,0.849330118717002,342.009236935535
738360.44654268852900713682,-4.08663187556586,0.812402722251045,341.935382142603
738360.44654277898371219635,-4.13586840418714,0.800093590095726,341.996927803379
738360.44654286943841725588,-4.12355927203182,0.787784457940408,341.910763878292
738360.44654295989312231541,-4.13586840418714,0.787784457940408,341.972309539069
738360.44654305034782737494,-4.14817753634246,0.775475325785089,341.960000406913
738360.44654314080253243446,-4.14817753634246,0.800093590095726,341.960000406913
738360.44654323125723749399,-4.16048666849778,0.787784457940408,341.923073010448
738360.44654332171194255352,-4.16048666849778,0.800093590095726,341.947691274758
738360.44654341216664761305,-4.13586840418714,0.812402722251045,341.947691274758
738360.44654350262135267258,-4.18510493280842,0.812402722251045,341.960000406913
738360.44654359295964241028,-4.12355927203182,0.824711854406364,342.046164332001
738360.44654368341434746981,-4.03739534694459,1.08320362966806,342.107709992777
738360.44654377386905252934,-3.6558122501297,1.66173284096805,342.083091728467
738360.44654386432375758886,-3.49579353211056,2.03100680562761,342.046164332001
738360.44654395477846264839,-3.64350311797438,1.73558763389996,342.033855199845
738360.44654404523316770792,-3.96354055401268,0.898566647338277,341.960000406913
738360.44654413568787276745,-4.16048666849778,0.750857061474451,342.120019124933
738360.44654422614257782698,-4.1112501398765,0.947803175959553,341.83690908536
738360.44654431659728288651,-4.09894100772118,0.861639250872321,341.750745160273
738360.44654440705198794603,-4.13586840418714,0.861639250872321,341.923073010448
738360.44654449750669300556,-4.12355927203182,0.861639250872321,341.984618671224
738360.44654458796139806509,-4.12355927203182,0.87394838302764,342.009236935535
738360.44654467829968780279,-4.12355927203182,0.861639250872321,341.996927803379
738360.44654476875439286232,-4.1112501398765,0.849330118717002,341.984618671224
738360.44654485920909792185,-4.12355927203182,0.87394838302764,342.02154606769
738360.44654494966380298138,-4.12355927203182,0.87394838302764,342.009236935535
738360.44654504011850804090,-4.08663187556586,0.87394838302764,342.033855199845
738360.44654513057321310043,-4.12355927203182,0.87394838302764,342.083091728467
738360.44654522102791815996,-4.1112501398765,0.910875779493596,341.960000406913
738360.44654531148262321949,-4.09894100772118,0.910875779493596,342.083091728467
738360.44654540193732827902,-4.09894100772118,0.910875779493596,342.046164332001
738360.44654549239203333855,-4.07432274341055,0.910875779493596,342.009236935535
738360.44654558284673839808,-4.07432274341055,0.935494043804234,342.033855199845
738360.44654567318502813578,-4.07432274341055,0.947803175959553,342.033855199845
738360.44654576363973319530,-4.07432274341055,0.960112308114872,342.033855199845
738360.44654585409443825483,-4.02508621478927,0.997039704580828,342.070782596311
738360.44654594454914331436,-4.03739534694459,1.00934883673615,342.083091728467
738360.44654603500384837389,-4.03739534694459,1.05858536535742,342.070782596311
738360.44654612545855343342,-4.00046795047863,1.07089449751274,342.083091728467
738360.44654621591325849295,-3.98815881832331,1.15705842259997,342.009236935535
738360.44654630636796355247,-3.95123142185736,1.21860408337657,342.144637389243
738360.44654639682266861200,-3.92661315754672,1.28014974415316,342.156946521399
738360.44654648727737367153,-3.86506749677012,1.39093193355103,342.120019124933
738360.44654657773207873106,-3.86506749677012,1.40324106570635,342.156946521399
738360.44654666807036846876,-3.80352183599353,1.48940499079358,342.144637389243
738360.44654675852507352829,-3.79121270383821,1.53864151941486,342.156946521399
738360.44654684897977858782,-3.77890357168289,1.55095065157018,342.169255653554
738360.44654693943448364735,-3.80352183599353,1.47709585863826,342.169255653554
738360.44654702988918870687,-3.84044923245949,1.34169540492976,342.095400860622
738360.44654712034389376640,-3.9143040253914,1.21860408337657,342.083091728467
738360.44654721079859882593,-3.93892228970204,1.15705842259997,342.070782596311
738360.44654730125330388546,-3.98815881832331,1.03396710104678,342.107709992777
738360.44654739170800894499,-4.03739534694459,0.947803175959553,342.02154606769
738360.44654748216271400452,-4.06201361125523,0.923184911648915,342.083091728467
738360.44654757261741906404,-4.06201361125523,0.898566647338277,342.070782596311
738360.44654766295570880175,-4.1112501398765,0.87394838302764,341.935382142603
738360.44654775341041386127,-4.1112501398765,0.849330118717002,341.886145613982
738360.44654784386511892080,-4.09894100772118,0.849330118717002,341.750745160273
738360.44654793431982398033,-4.1112501398765,0.837020986561683,341.923073010448
738360.44654802477452903986,-4.13586840418714,0.800093590095726,341.960000406913
738360.44654811522923409939,-4.12355927203182,0.824711854406364,341.972309539069
738360.44654820568393915892,-4.1112501398765,0.812402722251045,341.947691274758
738360.44654829613864421844,-4.13586840418714,0.824711854406364,341.972309539069
738360.44654838659334927797,-4.12355927203182,0.812402722251045,341.923073010448
738360.44654847704805433750,-4.12355927203182,0.824711854406364,341.960000406913
738360.44654856750275939703,-4.1112501398765,0.824711854406364,341.910763878292
738360.44654865784104913473,-4.1112501398765,0.849330118717002,341.984618671224
738360.44654874829575419426,-4.1112501398765,0.824711854406364,341.947691274758
738360.44654883875045925379,-4.1112501398765,0.812402722251045,341.972309539069
738360.44654892920516431332,-4.14817753634246,0.812402722251045,341.984618671224
738360.44654901965986937284,-4.13586840418714,0.824711854406364,342.033855199845
738360.44654911011457443237,-4.1112501398765,0.837020986561683,342.009236935535
738360.44654920056927949190,-4.13586840418714,0.837020986561683,342.009236935535
738360.44654929102398455143,-4.1112501398765,0.812402722251045,341.984618671224
738360.44654938147868961096,-4.12355927203182,0.837020986561683,342.009236935535
738360.44654947193339467049,-4.12355927203182,0.849330118717002,342.033855199845
738360.44654956238809973001,-4.12355927203182,0.837020986561683,341.923073010448
738360.44654965272638946772,-4.13586840418714,0.837020986561683,342.033855199845
738360.44654974318109452724,-4.13586840418714,0.824711854406364,342.009236935535
738360.44654983363579958677,-4.14817753634246,0.787784457940408,341.996927803379
738360.44654992409050464630,-4.12355927203182,0.824711854406364,342.033855199845
738360.44655001454520970583,-4.16048666849778,0.812402722251045,342.083091728467
738360.44655010499991476536,-4.14817753634246,0.800093590095726,342.02154606769
738360.44655019545461982489,-4.13586840418714,0.800093590095726,342.02154606769
738360.44655028590932488441,-4.14817753634246,0.800093590095726,341.996927803379
738360.44655037636402994394,-4.16048666849778,0.800093590095726,342.033855199845
738360.44655046681873500347,-4.14817753634246,0.812402722251045,342.046164332001
738360.44655055727344006300,-4.16048666849778,0.787784457940408,342.009236935535
738360.44655064772814512253,-4.14817753634246,0.787784457940408,341.910763878292
738360.44655073806643486023,-4.13586840418714,0.812402722251045,341.910763878292
738360.44655082852113991976,-4.12355927203182,0.787784457940408,341.886145613982
738360.44655091897584497929,-4.13586840418714,0.775475325785089,341.886145613982
738360.44655100943055003881,-4.1112501398765,0.76316619362977,341.886145613982
738360.44655109988525509834,-4.09894100772118,0.775475325785089,341.947691274758
738360.44655119033996015787,-4.08663187556586,0.800093590095726,341.984618671224
738360.44655128079466521740,-4.07432274341055,0.837020986561683,341.947691274758
738360.44655137124937027693,-4.03739534694459,0.849330118717002,341.787672556739
738360.44655146170407533646,-4.03739534694459,0.886257515182958,341.799981688894
738360.44655155215878039598,-4.07432274341055,0.87394838302764,341.910763878292
738360.44655164261348545551,-4.1112501398765,0.824711854406364,341.873836481826
738360.44655173295177519321,-4.13586840418714,0.812402722251045,342.009236935535
738360.44655182340648025274,-4.14817753634246,0.812402722251045,342.009236935535
738360.44655191386118531227,-4.14817753634246,0.800093590095726,342.009236935535
738360.44655200431589037180,-4.14817753634246,0.812402722251045,341.960000406913
738360.44655209477059543133,-4.16048666849778,0.812402722251045,341.996927803379
738360.44655218522530049086,-4.1727958006531,0.787784457940408,342.009236935535
738360.44655227568000555038,-4.16048666849778,0.800093590095726,341.935382142603
738360.44655236613471060991,-4.14817753634246,0.824711854406364,342.009236935535
738360.44655245658941566944,-4.1727958006531,0.800093590095726,342.033855199845
738360.44655254704412072897,-4.1727958006531,0.812402722251045,342.009236935535
738360.44655263749882578850,-4.03739534694459,1.07089449751274,342.070782596311
738360.44655272783711552620,-3.69273964659566,1.66173284096805,342.169255653554
738360.44655281829182058573,-3.49579353211056,2.12947986287016,342.156946521399
738360.44655290874652564526,-3.80352183599353,1.44016846217231,341.996927803379
738360.44655299920123070478,-4.07432274341055,0.750857061474451,342.009236935535
738360.44655308965593576431,-4.22203232927437,0.861639250872321,342.120019124933
738360.44655318011064082384,-4.23434146142969,0.910875779493596,342.132328257088
738360.44655327056534588337,-4.13586840418714,0.960112308114872,342.144637389243
738360.44655336102005094290,-4.1112501398765,0.898566647338277,342.058473464156
738360.44655345147475600243,-4.1112501398765,0.87394838302764,341.960000406913
738360.44655354192946106195,-4.13586840418714,0.87394838302764,342.009236935535
738360.44655363238416612148,-4.13586840418714,0.861639250872321,341.972309539069
738360.44655372272245585918,-4.14817753634246,0.861639250872321,341.947691274758
738360.44655381317716091871,-4.1112501398765,0.849330118717002,341.923073010448
738360.44655390363186597824,-4.14817753634246,0.861639250872321,341.972309539069
738360.44655399408657103777,-4.13586840418714,0.886257515182958,341.935382142603
738360.44655408454127609730,-4.13586840418714,0.886257515182958,341.910763878292
738360.44655417499598115683,-4.12355927203182,0.886257515182958,341.984618671224
738360.44655426545068621635,-4.12355927203182,0.886257515182958,342.033855199845
738360.44655435590539127588,-4.1112501398765,0.910875779493596,342.070782596311
738360.44655444636009633541,-4.12355927203182,0.910875779493596,342.058473464156
738360.44655453681480139494,-4.09894100772118,0.923184911648915,342.033855199845
738360.44655462726950645447,-4.08663187556586,0.935494043804234,342.083091728467
738360.44655471760779619217,-4.08663187556586,0.947803175959553,341.996927803379
738360.44655480806250125170,-4.08663187556586,0.984730572425509,341.849218217516
738360.44655489851720631123,-4.04970447909991,1.00934883673615,341.960000406913
738360.44655498897191137075,-4.04970447909991,1.02165796889147,342.070782596311
738360.44655507942661643028,-4.03739534694459,1.03396710104678,342.046164332001
738360.44655516988132148981,-4.00046795047863,1.08320362966806,342.083091728467
738360.44655526033602654934,-3.98815881832331,1.14474929044465,342.132328257088
738360.44655535079073160887,-3.95123142185736,1.20629495122125,342.046164332001
738360.44655544124543666840,-3.93892228970204,1.28014974415316,342.009236935535
738360.44655553170014172792,-3.87737662892544,1.34169540492976,342.009236935535
738360.44655562215484678745,-3.85275836461481,1.41555019786167,342.083091728467
738360.44655571249313652515,-3.81583096814885,1.48940499079358,342.083091728467
738360.44655580294784158468,-3.80352183599353,1.52633238725954,342.083091728467
738360.44655589340254664421,-3.76659443952757,1.52633238725954,342.046164332001
738360.44655598385725170374,-3.82814010030417,1.46478672648295,342.083091728467
738360.44655607431195676327,-3.85275836461481,1.36631366924039,342.058473464156
738360.44655616476666182280,-3.9143040253914,1.23091321553189,342.083091728467
738360.44655625522136688232,-3.96354055401268,1.12013102613402,341.984618671224
738360.44655634567607194185,-4.01277708263395,1.03396710104678,341.996927803379
738360.44655643613077700138,-4.03739534694459,0.972421440270191,341.996927803379
738360.44655652658548206091,-4.08663187556586,0.898566647338277,342.009236935535
738360.44655661704018712044,-4.09894100772118,0.87394838302764,341.898454746137
738360.44655670749489217997,-4.12355927203182,0.849330118717002,341.935382142603
738360.44655679783318191767,-4.12355927203182,0.849330118717002,341.960000406913
738360.44655688828788697720,-4.1112501398765,0.849330118717002,341.923073010448
738360.44655697874259203672,-4.13586840418714,0.837020986561683,341.984618671224
738360.44655706919729709625,-4.13586840418714,0.837020986561683,341.960000406913
738360.44655715965200215578,-4.16048666849778,0.824711854406364,341.984618671224
738360.44655725010670721531,-4.16048666849778,0.812402722251045,342.009236935535
738360.44655734056141227484,-4.16048666849778,0.824711854406364,342.009236935535
738360.44655743101611733437,-4.14817753634246,0.824711854406364,341.923073010448
738360.44655752147082239389,-4.14817753634246,0.800093590095726,342.033855199845
738360.44655761192552745342,-4.14817753634246,0.824711854406364,341.960000406913
738360.44655770238023251295,-4.14817753634246,0.837020986561683,341.960000406913
738360.44655779271852225065,-4.14817753634246,0.824711854406364,341.996927803379
738360.44655788317322731018,-4.14817753634246,0.824711854406364,342.009236935535
738360.44655797362793236971,-4.14817753634246,0.837020986561683,341.910763878292
738360.44655806408263742924,-4.14817753634246,0.824711854406364,341.972309539069
738360.44655815453734248877,-4.16048666849778,0.812402722251045,341.996927803379
738360.44655824499204754829,-4.12355927203182,0.849330118717002,341.996927803379
738360.44655833544675260782,-4.1727958006531,0.824711854406364,341.83690908536
738360.44655842590145766735,-4.14817753634246,0.812402722251045,341.861527349671
738360.44655851635616272688,-4.14817753634246,0.824711854406364,342.046164332001
738360.44655860681086778641,-4.16048666849778,0.837020986561683,342.009236935535
738360.44655869726557284594,-4.16048666849778,0.800093590095726,342.058473464156
738360.44655878760386258364,-4.14817753634246,0.812402722251045,341.947691274758
738360.44655887805856764317,-4.1727958006531,0.824711854406364,342.046164332001
738360.44655896851327270269,-4.1727958006531,0.812402722251045,342.02154606769
738360.44655905896797776222,-4.1727958006531,0.812402722251045,341.947691274758
738360.44655914942268282175,-4.14817753634246,0.837020986561683,341.923073010448
738360.44655923987738788128,-4.16048666849778,0.800093590095726,341.935382142603
738360.44655933033209294081,-4.1727958006531,0.787784457940408,341.898454746137
738360.44655942078679800034,-4.18510493280842,0.800093590095726,341.910763878292
738360.44655951124150305986,-4.1727958006531,0.800093590095726,341.984618671224
738360.44655960169620811939,-4.16048666849778,0.800093590095726,342.02154606769
738360.44655969215091317892,-4.18510493280842,0.775475325785089,341.947691274758
738360.44655978248920291662,-4.16048666849778,0.787784457940408,341.923073010448
738360.44655987294390797615,-4.1727958006531,0.787784457940408,341.849218217516
738360.44655996339861303568,-4.14817753634246,0.775475325785089,341.910763878292
738360.44656005385331809521,-4.16048666849778,0.76316619362977,341.972309539069
738360.44656014430802315474,-4.13586840418714,0.750857061474451,341.984618671224
738360.44656023476272821426,-4.12355927203182,0.787784457940408,341.898454746137
738360.44656032521743327379,-4.08663187556586,0.849330118717002,341.947691274758
738360.44656041567213833332,-4.07432274341055,0.849330118717002,341.984618671224
738360.44656050612684339285,-4.07432274341055,0.886257515182958,341.910763878292
738360.44656059658154845238,-4.09894100772118,0.861639250872321,341.873836481826
738360.44656068703625351191,-4.13586840418714,0.837020986561683,341.947691274758
738360.44656077737454324961,-4.16048666849778,0.800093590095726,341.984618671224
738360.44656086782924830914,-4.19741406496373,0.800093590095726,341.947691274758
738360.44656095828395336866,-4.18510493280842,0.812402722251045,341.972309539069
738360.44656104873865842819,-4.20972319711905,0.800093590095726,342.033855199845
738360.44656113919336348772,-4.19741406496373,0.800093590095726,342.033855199845
738360.44656122964806854725,-4.20972319711905,0.800093590095726,342.046164332001
738360.44656132010277360678,-4.18510493280842,0.812402722251045,341.947691274758
738360.44656141055747866631,-4.22203232927437,0.775475325785089,341.960000406913
738360.44656150101218372583,-4.19741406496373,0.824711854406364,342.02154606769
738360.44656159146688878536,-4.19741406496373,0.800093590095726,342.083091728467
738360.44656168192159384489,-4.08663187556586,1.0462762332021,342.02154606769
738360.44656177225988358259,-3.7173579109063,1.66173284096805,342.083091728467
738360.44656186271458864212,-3.54503006073183,2.16640725933612,341.960000406913
738360.44656195316929370165,-3.82814010030417,1.46478672648295,341.910763878292
738360.44656204362399876118,-4.1112501398765,0.738547929319132,342.058473464156
738360.44656213407870382071,-4.25895972574033,0.923184911648915,342.169255653554
738360.44656222453340888023,-4.19741406496373,0.984730572425509,342.181564785709
738360.44656231498811393976,-4.14817753634246,0.910875779493596,342.083091728467
738360.44656240544281899929,-4.16048666849778,0.861639250872321,342.083091728467
738360.44656249589752405882,-4.16048666849778,0.861639250872321,342.046164332001
738360.44656258635222911835,-4.1727958006531,0.861639250872321,342.033855199845
738360.44656267680693417788,-4.16048666849778,0.849330118717002,342.02154606769
738360.44656276726163923740,-4.1727958006531,0.861639250872321,342.058473464156
738360.44656285759992897511,-4.16048666849778,0.861639250872321,342.083091728467
738360.44656294805463403463,-4.18510493280842,0.861639250872321,342.033855199845
738360.44656303850933909416,-4.14817753634246,0.87394838302764,342.070782596311
738360.44656312896404415369,-4.1727958006531,0.87394838302764,342.046164332001
738360.44656321941874921322,-4.13586840418714,0.898566647338277,341.972309539069
738360.44656330987345427275,-4.14817753634246,0.87394838302764,342.107709992777
738360.44656340032815933228,-4.16048666849778,0.898566647338277,342.107709992777
738360.44656349078286439180,-4.14817753634246,0.910875779493596,342.033855199845
738360.44656358123756945133,-4.12355927203182,0.935494043804234,342.046164332001
738360.44656367169227451086,-4.1112501398765,0.935494043804234,342.083091728467
738360.44656376214697957039,-4.1112501398765,0.935494043804234,342.033855199845
738360.44656385248526930809,-4.07432274341055,0.997039704580828,342.107709992777
738360.44656394293997436762,-4.07432274341055,0.997039704580828,342.083091728467
738360.44656403339467942715,-4.09894100772118,1.00934883673615,342.095400860622
738360.44656412384938448668,-4.03739534694459,1.07089449751274,341.960000406913
738360.44656421430408954620,-4.02508621478927,1.1078218939787,341.984618671224
738360.44656430475879460573,-4.01277708263395,1.14474929044465,342.046164332001
738360.44656439521349966526,-3.96354055401268,1.19398581906593,341.960000406913
738360.44656448566820472479,-3.95123142185736,1.29245887630848,342.02154606769
738360.44656457612290978432,-3.9143040253914,1.35400453708508,342.046164332001
738360.44656466657761484385,-3.86506749677012,1.44016846217231,342.058473464156
738360.44656475703231990337,-3.85275836461481,1.45247759432763,342.02154606769
738360.44656484737060964108,-3.81583096814885,1.5017141229489,342.120019124933
738360.44656493782531470060,-3.77890357168289,1.55095065157018,342.132328257088
738360.44656502828001976013,-3.84044923245949,1.44016846217231,342.132328257088
738360.44656511873472481966,-3.87737662892544,1.36631366924039,342.033855199845
738360.44656520918942987919,-3.9143040253914,1.24322234768721,342.058473464156
738360.44656529964413493872,-3.97584968616799,1.13244015828934,342.033855199845
738360.44656539009883999825,-4.02508621478927,1.02165796889147,341.898454746137
738360.44656548055354505777,-4.08663187556586,0.960112308114872,341.923073010448
738360.44656557100825011730,-4.1112501398765,0.886257515182958,341.873836481826
738360.44656566146295517683,-4.12355927203182,0.87394838302764,341.984618671224
738360.44656575191766023636,-4.13586840418714,0.849330118717002,341.935382142603
738360.44656584225594997406,-4.14817753634246,0.837020986561683,341.984618671224
738360.44656593271065503359,-4.1727958006531,0.837020986561683,341.960000406913
738360.44656602316536009312,-4.18510493280842,0.824711854406364,341.984618671224
738360.44656611362006515265,-4.1727958006531,0.812402722251045,341.996927803379
738360.44656620407477021217,-4.14817753634246,0.837020986561683,342.046164332001
738360.44656629452947527170,-4.14817753634246,0.824711854406364,342.009236935535
738360.44656638498418033123,-4.19741406496373,0.775475325785089,341.947691274758
738360.44656647543888539076,-4.1727958006531,0.812402722251045,341.972309539069
738360.44656656589359045029,-4.16048666849778,0.824711854406364,341.960000406913
738360.44656665634829550982,-4.16048666849778,0.812402722251045,342.009236935535
738360.44656674680300056934,-4.16048666849778,0.812402722251045,341.996927803379
738360.44656683714129030704,-4.1727958006531,0.800093590095726,342.02154606769
738360.44656692759599536657,-4.16048666849778,0.812402722251045,342.02154606769
738360.44656701805070042610,-4.14817753634246,0.812402722251045,342.033855199845
738360.44656710850540548563,-4.16048666849778,0.812402722251045,342.046164332001
738360.44656719896011054516,-4.1727958006531,0.812402722251045,342.009236935535
738360.44656728941481560469,-4.1727958006531,0.837020986561683,342.02154606769
738360.44656737986952066422,-4.1727958006531,0.812402722251045,342.058473464156
738360.44656747032422572374,-4.16048666849778,0.837020986561683,341.984618671224
738360.44656756077893078327,-4.16048666849778,0.824711854406364,342.070782596311
738360.44656765123363584280,-4.1727958006531,0.812402722251045,342.033855199845
738360.44656774168834090233,-4.18510493280842,0.812402722251045,342.033855199845
738360.44656783202663064003,-4.14817753634246,0.812402722251045,341.996927803379
738360.44656792248133569956,-4.18510493280842,0.812402722251045,342.02154606769
738360.44656801293604075909,-4.18510493280842,0.812402722251045,342.02154606769
738360.44656810339074581861,-4.1727958006531,0.812402722251045,342.009236935535
738360.44656819384545087814,-4.18510493280842,0.812402722251045,342.033855199845
738360.44656828430015593767,-4.18510493280842,0.787784457940408,342.070782596311
738360.44656837475486099720,-4.1727958006531,0.800093590095726,342.070782596311
738360.44656846520956605673,-4.1727958006531,0.800093590095726,341.984618671224
738360.44656855566427111626,-4.1727958006531,0.812402722251045,342.046164332001
738360.44656864611897617579,-4.14817753634246,0.824711854406364,342.046164332001
738360.44656873657368123531,-4.18510493280842,0.738547929319132,341.972309539069
738360.44656882702838629484,-4.1727958006531,0.787784457940408,342.02154606769
738360.44656891736667603254,-4.1727958006531,0.787784457940408,341.873836481826
738360.44656900782138109207,-4.14817753634246,0.775475325785089,341.799981688894
738360.44656909827608615160,-4.12355927203182,0.750857061474451,341.935382142603
738360.44656918873079121113,-4.07432274341055,0.824711854406364,341.935382142603
738360.44656927918549627066,-4.07432274341055,0.861639250872321,341.972309539069
738360.44656936964020133018,-4.06201361125523,0.87394838302764,341.947691274758
738360.44656946009490638971,-4.1112501398765,0.886257515182958,342.009236935535
738360.44656955054961144924,-4.14817753634246,0.849330118717002,341.984618671224
738360.44656964100431650877,-4.1727958006531,0.812402722251045,341.935382142603
738360.44656973145902156830,-4.1727958006531,0.800093590095726,341.947691274758
738360.44656982191372662783,-4.18510493280842,0.812402722251045,341.960000406913
738360.44656991225201636553,-4.19741406496373,0.800093590095726,341.960000406913
738360.44657000270672142506,-4.19741406496373,0.787784457940408,341.960000406913
738360.44657009316142648458,-4.19741406496373,0.812402722251045,341.947691274758
738360.44657018361613154411,-4.18510493280842,0.824711854406364,341.898454746137
738360.44657027407083660364,-4.19741406496373,0.812402722251045,341.947691274758
738360.44657036452554166317,-4.20972319711905,0.824711854406364,341.984618671224
738360.44657045498024672270,-4.23434146142969,0.76316619362977,342.02154606769
738360.44657054543495178223,-4.12355927203182,0.886257515182958,342.009236935535
738360.44657063588965684175,-3.92661315754672,1.32938627277444,342.070782596311
738360.44657072634436190128,-3.50810266426588,2.06793420209357,342.144637389243
738360.44657081679906696081,-3.6558122501297,1.9571520126957,342.033855199845
738360.44657090713735669851,-4.02508621478927,1.05858536535742,342.02154606769
738360.44657099759206175804,-4.25895972574033,0.775475325785089,342.144637389243
738360.44657108804676681757,-4.23434146142969,0.972421440270191,342.181564785709
738360.44657117850147187710,-4.13586840418714,0.947803175959553,342.120019124933
738360.44657126895617693663,-4.13586840418714,0.87394838302764,342.058473464156
738360.44657135941088199615,-4.16048666849778,0.87394838302764,342.058473464156
738360.44657144986558705568,-4.16048666849778,0.87394838302764,342.083091728467
738360.44657154032029211521,-4.18510493280842,0.849330118717002,342.083091728467
738360.44657163077499717474,-4.1727958006531,0.861639250872321,342.046164332001
738360.44657172122970223427,-4.18510493280842,0.849330118717002,341.984618671224
738360.44657181168440729380,-4.16048666849778,0.861639250872321,342.083091728467
738360.44657190202269703150,-4.14817753634246,0.87394838302764,342.107709992777
738360.44657199247740209103,-4.16048666849778,0.886257515182958,342.120019124933
738360.44657208293210715055,-4.16048666849778,0.87394838302764,342.046164332001
738360.44657217338681221008,-4.13586840418714,0.886257515182958,342.095400860622
738360.44657226384151726961,-4.16048666849778,0.87394838302764,342.095400860622
738360.44657235429622232914,-4.13586840418714,0.923184911648915,342.046164332001
738360.44657244475092738867,-4.13586840418714,0.923184911648915,341.947691274758
738360.44657253520563244820,-4.12355927203182,0.910875779493596,341.947691274758
738360.44657262566033750772,-4.13586840418714,0.947803175959553,342.033855199845
738360.44657271611504256725,-4.09894100772118,0.960112308114872,341.996927803379
738360.44657280656974762678,-4.1112501398765,0.972421440270191,342.046164332001
738360.44657289690803736448,-4.06201361125523,0.997039704580828,341.947691274758
738360.44657298736274242401,-4.04970447909991,1.03396710104678,342.02154606769
738360.44657307781744748354,-4.04970447909991,1.08320362966806,342.02154606769
738360.44657316827215254307,-4.02508621478927,1.15705842259997,342.070782596311
738360.44657325872685760260,-3.98815881832331,1.20629495122125,341.996927803379
738360.44657334918156266212,-3.97584968616799,1.25553147984252,342.058473464156
738360.44657343963626772165,-3.90199489323608,1.34169540492976,342.033855199845
738360.44657353009097278118,-3.88968576108076,1.40324106570635,342.070782596311
738360.44657362054567784071,-3.87737662892544,1.40324106570635,342.070782596311
738360.44657371100038290024,-3.80352183599353,1.51402325510422,342.046164332001
738360.44657380145508795977,-3.82814010030417,1.5017141229489,342.046164332001
738360.44657389179337769747,-3.85275836461481,1.47709585863826,342.070782596311
738360.44657398224808275700,-3.86506749677012,1.40324106570635,342.009236935535
738360.44657407270278781652,-3.9143040253914,1.28014974415316,342.058473464156
738360.44657416315749287605,-3.97584968616799,1.15705842259997,341.996927803379
738360.44657425361219793558,-4.01277708263395,1.05858536535742,341.972309539069
738360.44657434406690299511,-4.08663187556586,0.972421440270191,341.972309539069
738360.44657443452160805464,-4.1112501398765,0.935494043804234,341.960000406913
738360.44657452497631311417,-4.12355927203182,0.87394838302764,342.02154606769
738360.44657461543101817369,-4.16048666849778,0.861639250872321,341.972309539069
738360.44657470588572323322,-4.1727958006531,0.849330118717002,342.02154606769
738360.44657479634042829275,-4.14817753634246,0.837020986561683,341.984618671224
738360.44657488679513335228,-4.16048666849778,0.849330118717002,342.058473464156
738360.44657497713342308998,-4.1727958006531,0.824711854406364,342.058473464156
738360.44657506758812814951,-4.1727958006531,0.824711854406364,341.947691274758
738360.44657515804283320904,-4.16048666849778,0.824711854406364,342.009236935535
738360.44657524849753826857,-4.19741406496373,0.800093590095726,342.02154606769
738360.44657533895224332809,-4.18510493280842,0.824711854406364,341.935382142603
738360.44657542940694838762,-4.1727958006531,0.812402722251045,341.960000406913
738360.44657551986165344715,-4.1727958006531,0.824711854406364,342.033855199845
738360.44657561031635850668,-4.16048666849778,0.812402722251045,342.033855199845
738360.44657570077106356621,-4.1727958006531,0.824711854406364,341.947691274758
738360.44657579122576862574,-4.16048666849778,0.812402722251045,342.058473464156
738360.44657588168047368526,-4.1727958006531,0.824711854406364,342.046164332001
738360.44657597201876342297,-4.16048666849778,0.812402722251045,341.898454746137
738360.44657606247346848249,-4.1727958006531,0.824711854406364,341.898454746137
738360.44657615292817354202,-4.16048666849778,0.812402722251045,341.984618671224
738360.44657624338287860155,-4.18510493280842,0.800093590095726,342.046164332001
738360.44657633383758366108,-4.16048666849778,0.824711854406364,342.009236935535
738360.44657642429228872061,-4.1727958006531,0.812402722251045,342.046164332001
738360.44657651474699378014,-4.18510493280842,0.787784457940408,342.058473464156
738360.44657660520169883966,-4.1727958006531,0.812402722251045,341.972309539069
738360.44657669565640389919,-4.18510493280842,0.812402722251045,342.02154606769
738360.44657678611110895872,-4.18510493280842,0.787784457940408,342.033855199845
738360.44657687656581401825,-4.18510493280842,0.812402722251045,341.947691274758
738360.44657696690410375595,-4.19741406496373,0.787784457940408,342.033855199845
738360.44657705735880881548,-4.18510493280842,0.800093590095726,341.996927803379
738360.44657714781351387501,-4.1727958006531,0.787784457940408,341.947691274758
738360.44657723826821893454,-4.18510493280842,0.775475325785089,341.947691274758
738360.44657732872292399406,-4.1727958006531,0.76316619362977,341.984618671224
738360.44657741917762905359,-4.1727958006531,0.775475325785089,341.923073010448
738360.44657750963233411312,-4.16048666849778,0.76316619362977,341.898454746137
738360.44657760008703917265,-4.14817753634246,0.76316619362977,341.910763878292
738360.44657769054174423218,-4.09894100772118,0.824711854406364,341.886145613982
738360.44657778099644929171,-4.08663187556586,0.849330118717002,341.910763878292
738360.44657787145115435123,-4.07432274341055,0.87394838302764,341.935382142603
738360.44657796178944408894,-4.07432274341055,0.886257515182958,341.947691274758
738360.44657805224414914846,-4.12355927203182,0.837020986561683,341.935382142603
738360.44657814269885420799,-4.1727958006531,0.800093590095726,341.972309539069
738360.44657823315355926752,-4.18510493280842,0.800093590095726,341.984618671224
738360.44657832360826432705,-4.1727958006531,0.812402722251045,342.009236935535
738360.44657841406296938658,-4.20972319711905,0.787784457940408,342.033855199845
738360.44657850451767444611,-4.20972319711905,0.775475325785089,342.009236935535
738360.44657859497237950563,-4.20972319711905,0.800093590095726,342.033855199845
738360.44657868542708456516,-4.20972319711905,0.76316619362977,342.058473464156
738360.44657877588178962469,-4.23434146142969,0.787784457940408,341.984618671224
738360.44657886633649468422,-4.19741406496373,0.800093590095726,342.058473464156
738360.44657895667478442192,-4.19741406496373,0.787784457940408,342.009236935535
738360.44657904712948948145,-4.14817753634246,0.910875779493596,342.02154606769
738360.44657913758419454098,-4.04970447909991,1.14474929044465,342.132328257088
738360.44657922803889960051,-3.6558122501297,1.85867895545315,342.169255653554
738360.44657931849360466003,-3.61888485366375,2.16640725933612,342.169255653554
738360.44657940894830971956,-3.95123142185736,1.24322234768721,341.947691274758
738360.44657949940301477909,-4.24665059358501,0.713929665008494,342.058473464156
738360.44657958985771983862,-4.27126885789565,0.923184911648915,342.144637389243
738360.44657968031242489815,-4.1727958006531,0.947803175959553,342.070782596311
738360.44657977076712995768,-4.16048666849778,0.898566647338277,342.083091728467
738360.44657986122183501720,-4.1727958006531,0.849330118717002,342.083091728467
738360.44657995156012475491,-4.18510493280842,0.849330118717002,342.070782596311
738360.44658004201482981443,-4.20972319711905,0.812402722251045,342.046164332001
738360.44658013246953487396,-4.1727958006531,0.87394838302764,342.120019124933
738360.44658022292423993349,-4.1727958006531,0.849330118717002,342.083091728467
738360.44658031337894499302,-4.20972319711905,0.837020986561683,342.058473464156
738360.44658040383365005255,-4.18510493280842,0.837020986561683,342.083091728467
738360.44658049428835511208,-4.18510493280842,0.861639250872321,342.083091728467
738360.44658058474306017160,-4.1727958006531,0.861639250872321,341.972309539069
738360.44658067519776523113,-4.1727958006531,0.886257515182958,342.083091728467
738360.44658076565247029066,-4.16048666849778,0.87394838302764,342.107709992777
738360.44658085610717535019,-4.1727958006531,0.886257515182958,341.996927803379
738360.44658094656188040972,-4.14817753634246,0.910875779493596,341.996927803379
738360.44658103690017014742,-4.13586840418714,0.923184911648915,341.972309539069
738360.44658112735487520695,-4.14817753634246,0.935494043804234,341.996927803379
738360.44658121780958026648,-4.12355927203182,0.910875779493596,341.935382142603
738360.44658130826428532600,-4.1112501398765,0.960112308114872,342.009236935535
738360.44658139871899038553,-4.12355927203182,0.960112308114872,341.984618671224
738360.44658148917369544506,-4.09894100772118,0.997039704580828,341.996927803379
738360.44658157962840050459,-4.06201361125523,1.07089449751274,342.083091728467
738360.44658167008310556412,-4.04970447909991,1.1078218939787,342.120019124933
738360.44658176053781062365,-4.00046795047863,1.18167668691061,342.132328257088
738360.44658185099251568317,-3.98815881832331,1.23091321553189,342.107709992777
738360.44658194144722074270,-3.93892228970204,1.3047680084638,342.156946521399
738360.44658203178551048040,-3.9143040253914,1.36631366924039,342.156946521399
738360.44658212224021553993,-3.86506749677012,1.46478672648295,342.120019124933
738360.44658221269492059946,-3.84044923245949,1.47709585863826,342.156946521399
738360.44658230314962565899,-3.85275836461481,1.47709585863826,342.193873917864
738360.44658239360433071852,-3.86506749677012,1.44016846217231,342.144637389243
738360.44658248405903577805,-3.9143040253914,1.32938627277444,342.156946521399
738360.44658257451374083757,-3.96354055401268,1.20629495122125,342.033855199845
738360.44658266496844589710,-4.01277708263395,1.09551276182338,342.033855199845
738360.44658275542315095663,-4.08663187556586,0.997039704580828,342.009236935535
738360.44658284587785601616,-4.09894100772118,0.960112308114872,341.996927803379
738360.44658293633256107569,-4.1112501398765,0.910875779493596,341.984618671224
738360.44658302667085081339,-4.1727958006531,0.861639250872321,342.009236935535
738360.44658311712555587292,-4.14817753634246,0.849330118717002,341.849218217516
738360.44658320758026093245,-4.18510493280842,0.837020986561683,341.935382142603
738360.44658329803496599197,-4.1727958006531,0.824711854406364,341.984618671224
738360.44658338848967105150,-4.18510493280842,0.824711854406364,342.046164332001
738360.44658347894437611103,-4.18510493280842,0.824711854406364,341.935382142603
738360.44658356939908117056,-4.1727958006531,0.824711854406364,341.996927803379
738360.44658365985378623009,-4.18510493280842,0.812402722251045,342.033855199845
738360.44658375030849128962,-4.18510493280842,0.837020986561683,342.033855199845
738360.44658384076319634914,-4.1727958006531,0.812402722251045,341.996927803379
738360.44658393121790140867,-4.18510493280842,0.824711854406364,342.046164332001
738360.44658402155619114637,-4.19741406496373,0.812402722251045,342.033855199845
738360.44658411201089620590,-4.18510493280842,0.812402722251045,341.996927803379
738360.44658420246560126543,-4.19741406496373,0.812402722251045,342.070782596311
738360.44658429292030632496,-4.19741406496373,0.812402722251045,342.033855199845
738360.44658438337501138449,-4.18510493280842,0.812402722251045,342.009236935535
738360.44658447382971644402,-4.1727958006531,0.800093590095726,342.02154606769
738360.44658456428442150354,-4.18510493280842,0.824711854406364,342.058473464156
738360.44658465473912656307,-4.18510493280842,0.800093590095726,342.033855199845
738360.44658474519383162260,-4.18510493280842,0.800093590095726,341.984618671224
738360.44658483564853668213,-4.19741406496373,0.812402722251045,342.02154606769
738360.44658492610324174166,-4.19741406496373,0.812402722251045,342.058473464156
738360.44658501644153147936,-4.20972319711905,0.775475325785089,342.02154606769
738360.44658510689623653889,-4.19741406496373,0.812402722251045,342.009236935535
738360.44658519735094159842,-4.19741406496373,0.812402722251045,342.046164332001
738360.44658528780564665794,-4.19741406496373,0.787784457940408,341.960000406913
738360.44658537826035171747,-4.19741406496373,0.787784457940408,341.996927803379
738360.44658546871505677700,-4.19741406496373,0.787784457940408,341.947691274758
738360.44658555916976183653,-4.22203232927437,0.800093590095726,341.947691274758
738360.44658564962446689606,-4.20972319711905,0.812402722251045,341.947691274758
738360.44658574007917195559,-4.22203232927437,0.787784457940408,342.009236935535
738360.44658583053387701511,-4.22203232927437,0.775475325785089,341.984618671224
738360.44658592098858207464,-4.20972319711905,0.800093590095726,341.935382142603
738360.44658601132687181234,-4.19741406496373,0.775475325785089,341.972309539069
738360.44658610178157687187,-4.20972319711905,0.775475325785089,341.972309539069
738360.44658619223628193140,-4.20972319711905,0.76316619362977,341.898454746137
738360.44658628269098699093,-4.19741406496373,0.775475325785089,341.923073010448
738360.44658637314569205046,-4.18510493280842,0.750857061474451,341.947691274758
738360.44658646360039710999,-4.18510493280842,0.750857061474451,341.910763878292
738360.44658655405510216951,-4.16048666849778,0.775475325785089,341.873836481826
738360.44658664450980722904,-4.08663187556586,0.861639250872321,341.738436028118
738360.44658673496451228857,-4.1112501398765,0.849330118717002,341.898454746137
738360.44658682541921734810,-4.1112501398765,0.861639250872321,341.898454746137
738360.44658691587392240763,-4.16048666849778,0.824711854406364,341.935382142603
738360.44658700632862746716,-4.1727958006531,0.824711854406364,341.935382142603
738360.44658709666691720486,-4.20972319711905,0.812402722251045,341.935382142603
738360.44658718712162226439,-4.22203232927437,0.775475325785089,341.960000406913
738360.44658727757632732391,-4.22203232927437,0.812402722251045,342.009236935535
738360.44658736803103238344,-4.22203232927437,0.800093590095726,341.972309539069
738360.44658745848573744297,-4.23434146142969,0.800093590095726,342.02154606769
738360.44658754894044250250,-4.23434146142969,0.775475325785089,341.984618671224
738360.44658763939514756203,-4.24665059358501,0.76316619362977,342.083091728467
738360.44658772984985262156,-4.22203232927437,0.812402722251045,342.033855199845
738360.44658782030455768108,-4.25895972574033,0.775475325785089,341.996927803379
738360.44658791075926274061,-4.18510493280842,0.87394838302764,342.132328257088
738360.44658800121396780014,-3.93892228970204,1.36631366924039,342.181564785709
738360.44658809155225753784,-3.59426658935311,2.09255246640421,342.169255653554
738360.44658818200696259737,-3.76659443952757,1.85867895545315,342.070782596311
738360.44658827246166765690,-4.07432274341055,0.935494043804234,342.058473464156
738360.44658836291637271643,-4.3081962543616,0.775475325785089,342.058473464156
738360.44658845337107777596,-4.3081962543616,0.910875779493596,342.193873917864
738360.44658854382578283548,-4.19741406496373,0.947803175959553,342.218492182175
738360.44658863428048789501,-4.1727958006531,0.886257515182958,342.107709992777
738360.44658872473519295454,-4.19741406496373,0.849330118717002,342.009236935535
738360.44658881518989801407,-4.20972319711905,0.824711854406364,342.083091728467
738360.44658890564460307360,-4.20972319711905,0.861639250872321,342.083091728467
738360.44658899609930813313,-4.22203232927437,0.837020986561683,342.009236935535
738360.44658908643759787083,-4.19741406496373,0.837020986561683,342.070782596311
738360.44658917689230293036,-4.19741406496373,0.849330118717002,342.095400860622
738360.44658926734700798988,-4.19741406496373,0.861639250872321,342.033855199845
738360.44658935780171304941,-4.18510493280842,0.861639250872321,342.095400860622
738360.44658944825641810894,-4.19741406496373,0.861639250872321,342.095400860622
738360.44658953871112316847,-4.18510493280842,0.87394838302764,342.070782596311
738360.44658962916582822800,-4.1727958006531,0.886257515182958,342.070782596311
738360.44658971962053328753,-4.18510493280842,0.87394838302764,342.095400860622
738360.44658981007523834705,-4.16048666849778,0.923184911648915,342.083091728467
738360.44658990052994340658,-4.1727958006531,0.898566647338277,342.095400860622
738360.44658999098464846611,-4.16048666849778,0.923184911648915,342.058473464156
738360.44659008132293820381,-4.13586840418714,0.947803175959553,341.824599953205
738360.44659017177764326334,-4.13586840418714,0.972421440270191,341.935382142603
738360.44659026223234832287,-4.12355927203182,0.984730572425509,341.984618671224
738360.44659035268705338240,-4.1112501398765,1.02165796889147,342.046164332001
738360.44659044314175844193,-4.07432274341055,1.03396710104678,342.033855199845
738360.44659053359646350145,-4.07432274341055,1.1078218939787,342.058473464156
738360.44659062405116856098,-4.03739534694459,1.16936755475529,342.046164332001
738360.44659071450587362051,-4.00046795047863,1.23091321553189,342.058473464156
738360.44659080496057868004,-3.96354055401268,1.3047680084638,342.009236935535
738360.44659089541528373957,-3.95123142185736,1.35400453708508,342.070782596311
738360.44659098586998879910,-3.90199489323608,1.45247759432763,342.070782596311
738360.44659107620827853680,-3.88968576108076,1.46478672648295,342.046164332001
738360.44659116666298359632,-3.85275836461481,1.48940499079358,342.095400860622
738360.44659125711768865585,-3.87737662892544,1.46478672648295,342.070782596311
738360.44659134757239371538,-3.9143040253914,1.34169540492976,342.046164332001
738360.44659143802709877491,-3.96354055401268,1.24322234768721,342.046164332001
738360.44659152848180383444,-4.01277708263395,1.16936755475529,342.107709992777
738360.44659161893650889397,-4.06201361125523,1.0462762332021,342.107709992777
738360.44659170939121395350,-4.1112501398765,0.947803175959553,341.996927803379
738360.44659179984591901302,-4.12355927203182,0.923184911648915,342.046164332001
738360.44659189030062407255,-4.16048666849778,0.886257515182958,342.070782596311
738360.44659198075532913208,-4.1727958006531,0.87394838302764,341.947691274758
738360.44659207109361886978,-4.19741406496373,0.837020986561683,342.033855199845
738360.44659216154832392931,-4.19741406496373,0.849330118717002,342.058473464156
738360.44659225200302898884,-4.19741406496373,0.849330118717002,342.095400860622
738360.44659234245773404837,-4.18510493280842,0.849330118717002,341.996927803379
738360.44659243291243910789,-4.1727958006531,0.849330118717002,342.058473464156
738360.44659252336714416742,-4.18510493280842,0.812402722251045,342.095400860622
738360.44659261382184922695,-4.1727958006531,0.824711854406364,342.009236935535
738360.44659270427655428648,-4.18510493280842,0.824711854406364,342.070782596311
738360.44659279473125934601,-4.16048666849778,0.837020986561683,342.107709992777
738360.44659288518596440554,-4.14817753634246,0.824711854406364,342.009236935535
738360.44659297564066946507,-4.16048666849778,0.837020986561683,342.009236935535
738360.44659306609537452459,-4.14817753634246,0.861639250872321,342.033855199845
738360.44659315643366426229,-4.14817753634246,0.824711854406364,341.996927803379
738360.44659324688836932182,-4.14817753634246,0.812402722251045,342.033855199845
738360.44659333734307438135,-4.13586840418714,0.837020986561683,341.996927803379
738360.44659342779777944088,-4.14817753634246,0.837020986561683,342.058473464156
738360.44659351825248450041,-4.13586840418714,0.812402722251045,341.984618671224
738360.44659360870718955994,-4.14817753634246,0.837020986561683,341.824599953205
738360.44659369916189461946,-4.13586840418714,0.824711854406364,341.923073010448
738360.44659378961659967899,-4.13586840418714,0.837020986561683,342.033855199845
738360.44659388007130473852,-4.13586840418714,0.824711854406364,341.972309539069
738360.44659397052600979805,-4.13586840418714,0.800093590095726,341.996927803379
738360.44659406098071485758,-4.13586840418714,0.837020986561683,341.972309539069
738360.44659415131900459528,-4.12355927203182,0.824711854406364,341.849218217516
738360.44659424177370965481,-4.16048666849778,0.800093590095726,341.923073010448
738360.44659433222841471434,-4.13586840418714,0.812402722251045,341.898454746137
738360.44659442268311977386,-4.13586840418714,0.824711854406364,341.923073010448
738360.44659451313782483339,-4.13586840418714,0.800093590095726,341.910763878292
738360.44659460359252989292,-4.16048666849778,0.800093590095726,341.910763878292
738360.44659469404723495245,-4.14817753634246,0.812402722251045,341.960000406913
738360.44659478450194001198,-4.16048666849778,0.812402722251045,341.984618671224
738360.44659487495664507151,-4.14817753634246,0.800093590095726,341.984618671224
738360.44659496541135013103,-4.1727958006531,0.787784457940408,341.960000406913
738360.44659505586605519056,-4.14817753634246,0.812402722251045,341.984618671224
738360.44659514620434492826,-4.13586840418714,0.800093590095726,341.984618671224
738360.44659523665904998779,-4.16048666849778,0.800093590095726,341.947691274758
738360.44659532711375504732,-4.1727958006531,0.812402722251045,341.947691274758
738360.44659541756846010685,-4.16048666849778,0.800093590095726,341.923073010448
738360.44659550802316516638,-4.16048666849778,0.787784457940408,341.996927803379
738360.44659559847787022591,-4.16048666849778,0.787784457940408,341.873836481826
738360.44659568893257528543,-4.16048666849778,0.76316619362977,341.886145613982
738360.44659577938728034496,-4.09894100772118,0.787784457940408,341.910763878292
738360.44659586984198540449,-4.07432274341055,0.787784457940408,341.923073010448
738360.44659596029669046402,-4.07432274341055,0.861639250872321,341.935382142603
738360.44659605075139552355,-4.06201361125523,0.87394838302764,341.947691274758
738360.44659614108968526125,-4.06201361125523,0.898566647338277,341.947691274758
738360.44659623154439032078,-4.08663187556586,0.886257515182958,341.996927803379
738360.44659632199909538031,-4.16048666849778,0.812402722251045,342.033855199845
738360.44659641245380043983,-4.14817753634246,0.824711854406364,341.960000406913
738360.44659650290850549936,-4.1727958006531,0.837020986561683,342.070782596311
738360.44659659336321055889,-4.18510493280842,0.812402722251045,342.046164332001
738360.44659668381791561842,-4.18510493280842,0.812402722251045,341.984618671224
738360.44659677427262067795,-4.18510493280842,0.824711854406364,342.009236935535
738360.44659686472732573748,-4.18510493280842,0.800093590095726,342.058473464156
738360.44659695518203079700,-4.20972319711905,0.824711854406364,342.046164332001
738360.44659704563673585653,-4.19741406496373,0.812402722251045,342.033855199845
738360.44659713597502559423,-4.22203232927437,0.812402722251045,341.898454746137
738360.44659722642973065376,-4.16048666849778,0.824711854406364,341.972309539069
738360.44659731688443571329,-4.02508621478927,1.16936755475529,342.132328257088
738360.44659740733914077282,-3.6558122501297,1.88329721976379,342.144637389243
738360.44659749779384583235,-3.63119398581907,2.16640725933612,342.169255653554
738360.44659758824855089188,-3.92661315754672,1.24322234768721,341.996927803379
738360.44659767870325595140,-4.1112501398765,0.837020986561683,341.984618671224
738360.44659776915796101093,-4.27126885789565,0.849330118717002,342.20618305002
738360.44659785961266607046,-4.19741406496373,1.00934883673615,342.280037842952
738360.44659795006737112999,-4.13586840418714,0.935494043804234,342.095400860622
738360.44659804052207618952,-4.16048666849778,0.886257515182958,342.033855199845
738360.44659813086036592722,-4.18510493280842,0.861639250872321,342.058473464156
738360.44659822131507098675,-4.1727958006531,0.87394838302764,341.898454746137
738360.44659831176977604628,-4.1727958006531,0.87394838302764,341.996927803379
738360.44659840222448110580,-4.18510493280842,0.849330118717002,341.984618671224
738360.44659849267918616533,-4.1727958006531,0.886257515182958,342.009236935535
738360.44659858313389122486,-4.16048666849778,0.886257515182958,341.996927803379
738360.44659867358859628439,-4.1727958006531,0.87394838302764,341.996927803379
738360.44659876404330134392,-4.16048666849778,0.87394838302764,341.996927803379
738360.44659885449800640345,-4.16048666849778,0.898566647338277,342.009236935535
738360.44659894495271146297,-4.13586840418714,0.898566647338277,342.009236935535
738360.44659903540741652250,-4.14817753634246,0.923184911648915,342.083091728467
738360.44659912586212158203,-4.14817753634246,0.910875779493596,341.947691274758
738360.44659921620041131973,-4.1112501398765,0.935494043804234,341.947691274758
738360.44659930665511637926,-4.12355927203182,0.947803175959553,341.984618671224
738360.44659939710982143879,-4.1112501398765,0.960112308114872,341.996927803379
738360.44659948756452649832,-4.09894100772118,0.984730572425509,341.947691274758
738360.44659957801923155785,-4.08663187556586,0.997039704580828,341.960000406913
738360.44659966847393661737,-4.08663187556586,1.00934883673615,341.996927803379
738360.44659975892864167690,-4.03739534694459,1.07089449751274,341.960000406913
738360.44659984938334673643,-4.04970447909991,1.1078218939787,342.009236935535
738360.44659993983805179596,-4.00046795047863,1.14474929044465,342.033855199845
738360.44660003029275685549,-3.98815881832331,1.20629495122125,342.083091728467
738360.44660012074746191502,-3.95123142185736,1.26784061199784,342.058473464156
738360.44660021108575165272,-3.88968576108076,1.35400453708508,342.169255653554
738360.44660030154045671225,-3.87737662892544,1.41555019786167,342.120019124933
738360.44660039199516177177,-3.87737662892544,1.46478672648295,342.070782596311
738360.44660048244986683130,-3.84044923245949,1.5017141229489,342.144637389243
738360.44660057290457189083,-3.84044923245949,1.5017141229489,342.120019124933
738360.44660066335927695036,-3.82814010030417,1.41555019786167,341.886145613982
738360.44660075381398200989,-3.90199489323608,1.35400453708508,341.984618671224
738360.44660084426868706942,-3.95123142185736,1.19398581906593,342.083091728467
738360.44660093472339212894,-3.98815881832331,1.1078218939787,342.009236935535
738360.44660102517809718847,-4.01277708263395,1.02165796889147,342.02154606769
738360.44660111563280224800,-4.09894100772118,0.935494043804234,342.02154606769
738360.44660120597109198570,-4.12355927203182,0.935494043804234,341.947691274758
738360.44660129642579704523,-4.09894100772118,0.910875779493596,342.009236935535
738360.44660138688050210476,-4.1112501398765,0.898566647338277,342.02154606769
738360.44660147733520716429,-4.13586840418714,0.861639250872321,342.009236935535
738360.44660156778991222382,-4.16048666849778,0.849330118717002,341.996927803379
738360.44660165824461728334,-4.16048666849778,0.849330118717002,342.046164332001
738360.44660174869932234287,-4.1727958006531,0.837020986561683,342.046164332001
738360.44660183915402740240,-4.16048666849778,0.837020986561683,342.033855199845
738360.44660192960873246193,-4.16048666849778,0.87394838302764,341.984618671224
738360.44660202006343752146,-4.14817753634246,0.849330118717002,341.972309539069
738360.44660211051814258099,-4.16048666849778,0.837020986561683,341.947691274758
738360.44660220085643231869,-4.14817753634246,0.837020986561683,341.910763878292
738360.44660229131113737822,-4.16048666849778,0.861639250872321,341.910763878292
738360.44660238176584243774,-4.1727958006531,0.837020986561683,341.935382142603
738360.44660247222054749727,-4.16048666849778,0.837020986561683,341.972309539069
738360.44660256267525255680,-4.16048666849778,0.849330118717002,341.972309539069
738360.44660265312995761633,-4.14817753634246,0.861639250872321,341.923073010448
738360.44660274358466267586,-4.16048666849778,0.849330118717002,341.935382142603
738360.44660283403936773539,-4.16048666849778,0.849330118717002,341.947691274758
738360.44660292449407279491,-4.16048666849778,0.837020986561683,341.960000406913
738360.44660301494877785444,-4.1727958006531,0.849330118717002,341.886145613982
738360.44660310540348291397,-4.18510493280842,0.849330118717002,341.947691274758
738360.44660319574177265167,-4.1727958006531,0.824711854406364,341.910763878292
738360.44660328619647771120,-4.18510493280842,0.837020986561683,341.935382142603
738360.44660337665118277073,-4.1727958006531,0.812402722251045,341.923073010448
738360.44660346710588783026,-4.1727958006531,0.837020986561683,341.935382142603
738360.44660355756059288979,-4.18510493280842,0.812402722251045,341.910763878292
738360.44660364801529794931,-4.1727958006531,0.837020986561683,341.923073010448
738360.44660373847000300884,-4.19741406496373,0.812402722251045,341.923073010448
738360.44660382892470806837,-4.19741406496373,0.800093590095726,341.972309539069
738360.44660391937941312790,-4.18510493280842,0.824711854406364,342.02154606769
738360.44660400983411818743,-4.19741406496373,0.824711854406364,341.972309539069
738360.44660410028882324696,-4.18510493280842,0.824711854406364,341.984618671224
738360.44660419062711298466,-4.18510493280842,0.812402722251045,341.849218217516
738360.44660428108181804419,-4.19741406496373,0.800093590095726,341.799981688894
738360.44660437153652310371,-4.18510493280842,0.812402722251045,341.910763878292
738360.44660446199122816324,-4.18510493280842,0.837020986561683,342.02154606769
738360.44660455244593322277,-4.18510493280842,0.812402722251045,341.996927803379
738360.44660464290063828230,-4.22203232927437,0.787784457940408,342.02154606769
738360.44660473335534334183,-4.19741406496373,0.812402722251045,341.972309539069
738360.44660482381004840136,-4.20972319711905,0.800093590095726,341.972309539069
738360.44660491426475346088,-4.1727958006531,0.812402722251045,341.996927803379
738360.44660500471945852041,-4.19741406496373,0.824711854406364,342.033855199845
738360.44660509517416357994,-4.19741406496373,0.824711854406364,342.009236935535
738360.44660518562886863947,-4.18510493280842,0.775475325785089,341.947691274758
738360.44660527596715837717,-4.19741406496373,0.775475325785089,341.972309539069
738360.44660536642186343670,-4.18510493280842,0.76316619362977,341.972309539069
738360.44660545687656849623,-4.18510493280842,0.787784457940408,341.972309539069
738360.44660554733127355576,-4.13586840418714,0.775475325785089,341.910763878292
738360.44660563778597861528,-4.07432274341055,0.886257515182958,342.02154606769
738360.44660572824068367481,-4.09894100772118,0.886257515182958,341.972309539069
738360.44660581869538873434,-4.09894100772118,0.898566647338277,341.960000406913
738360.44660590915009379387,-4.1112501398765,0.87394838302764,342.009236935535
738360.44660599960479885340,-4.1727958006531,0.861639250872321,341.996927803379
738360.44660609005950391293,-4.18510493280842,0.837020986561683,341.923073010448
738360.44660618051420897245,-4.19741406496373,0.812402722251045,341.996927803379
738360.44660627085249871016,-4.18510493280842,0.824711854406364,342.02154606769
738360.44660636130720376968,-4.19741406496373,0.837020986561683,342.02154606769
738360.44660645176190882921,-4.19741406496373,0.812402722251045,342.046164332001
738360.44660654221661388874,-4.20972319711905,0.824711854406364,342.046164332001
738360.44660663267131894827,-4.20972319711905,0.837020986561683,342.02154606769
738360.44660672312602400780,-4.23434146142969,0.787784457940408,342.009236935535
738360.44660681358072906733,-4.24665059358501,0.800093590095726,342.058473464156
738360.44660690403543412685,-4.18510493280842,0.861639250872321,342.02154606769
738360.44660699449013918638,-4.12355927203182,1.02165796889147,341.984618671224
738360.44660708494484424591,-3.80352183599353,1.64942370881273,342.033855199845
738360.44660717539954930544,-3.59426658935311,2.22795292011272,342.095400860622
738360.44660726573783904314,-3.86506749677012,1.51402325510422,341.910763878292
738360.44660735619254410267,-4.18510493280842,0.775475325785089,341.960000406913
738360.44660744664724916220,-4.27126885789565,0.898566647338277,342.132328257088
738360.44660753710195422173,-4.18510493280842,0.997039704580828,342.120019124933
738360.44660762755665928125,-4.14817753634246,0.923184911648915,341.984618671224
738360.44660771801136434078,-4.19741406496373,0.898566647338277,341.886145613982
738360.44660780846606940031,-4.1727958006531,0.861639250872321,341.861527349671
738360.44660789892077445984,-4.18510493280842,0.87394838302764,341.984618671224
738360.44660798937547951937,-4.18510493280842,0.87394838302764,341.960000406913
738360.44660807983018457890,-4.19741406496373,0.849330118717002,342.009236935535
738360.44660817028488963842,-4.16048666849778,0.886257515182958,341.996927803379
738360.44660826062317937613,-4.18510493280842,0.886257515182958,342.033855199845
738360.44660835107788443565,-4.18510493280842,0.886257515182958,342.046164332001
738360.44660844153258949518,-4.1727958006531,0.87394838302764,342.009236935535
738360.44660853198729455471,-4.16048666849778,0.886257515182958,341.960000406913
738360.44660862244199961424,-4.1727958006531,0.910875779493596,342.033855199845
738360.44660871289670467377,-4.1727958006531,0.898566647338277,341.960000406913
738360.44660880335140973330,-4.16048666849778,0.886257515182958,342.009236935535
738360.44660889380611479282,-4.14817753634246,0.935494043804234,342.009236935535
738360.44660898426081985235,-4.14817753634246,0.947803175959553,341.996927803379
738360.44660907471552491188,-4.14817753634246,0.947803175959553,342.02154606769
738360.44660916517022997141,-4.12355927203182,0.972421440270191,342.083091728467
738360.44660925550851970911,-4.12355927203182,0.984730572425509,342.095400860622
738360.44660934596322476864,-4.1112501398765,1.00934883673615,342.046164332001
738360.44660943641792982817,-4.07432274341055,1.05858536535742,342.058473464156
738360.44660952687263488770,-4.06201361125523,1.1078218939787,342.107709992777
738360.44660961732733994722,-4.03739534694459,1.15705842259997,342.107709992777
738360.44660970778204500675,-4.00046795047863,1.23091321553189,342.033855199845
738360.44660979823675006628,-3.96354055401268,1.29245887630848,342.02154606769
738360.44660988869145512581,-3.93892228970204,1.35400453708508,342.046164332001
738360.44660997914616018534,-3.90199489323608,1.41555019786167,341.996927803379
738360.44661006960086524487,-3.90199489323608,1.45247759432763,342.058473464156
738360.44661016005557030439,-3.85275836461481,1.48940499079358,342.095400860622
738360.44661025039386004210,-3.87737662892544,1.48940499079358,342.107709992777
738360.44661034084856510162,-3.88968576108076,1.42785933001699,342.107709992777
738360.44661043130327016115,-3.9143040253914,1.3047680084638,342.107709992777
738360.44661052175797522068,-3.98815881832331,1.20629495122125,342.070782596311
738360.44661061221268028021,-4.04970447909991,1.09551276182338,342.046164332001
738360.44661070266738533974,-4.04970447909991,1.05858536535742,342.095400860622
738360.44661079312209039927,-4.09894100772118,0.972421440270191,342.058473464156
738360.44661088357679545879,-4.13586840418714,0.947803175959553,341.910763878292
738360.44661097403150051832,-4.14817753634246,0.898566647338277,341.996927803379
738360.44661106448620557785,-4.18510493280842,0.87394838302764,341.935382142603
738360.44661115494091063738,-4.18510493280842,0.849330118717002,341.947691274758
738360.44661124539561569691,-4.19741406496373,0.861639250872321,341.923073010448
738360.44661133573390543461,-4.1727958006531,0.861639250872321,341.849218217516
738360.44661142618861049414,-4.19741406496373,0.849330118717002,341.960000406913
738360.44661151664331555367,-4.19741406496373,0.861639250872321,341.996927803379
738360.44661160709802061319,-4.20972319711905,0.837020986561683,341.996927803379
738360.44661169755272567272,-4.18510493280842,0.837020986561683,341.984618671224
738360.44661178800743073225,-4.18510493280842,0.849330118717002,341.996927803379
738360.44661187846213579178,-4.18510493280842,0.849330118717002,341.984618671224
738360.44661196891684085131,-4.18510493280842,0.837020986561683,341.996927803379
738360.44661205937154591084,-4.18510493280842,0.837020986561683,341.996927803379
738360.44661214982625097036,-4.18510493280842,0.861639250872321,342.009236935535
738360.44661224028095602989,-4.1727958006531,0.849330118717002,341.923073010448
738360.44661233061924576759,-4.18510493280842,0.861639250872321,341.947691274758
738360.44661242107395082712,-4.18510493280842,0.837020986561683,341.935382142603
738360.44661251152865588665,-4.18510493280842,0.837020986561683,341.960000406913
738360.44661260198336094618,-4.18510493280842,0.837020986561683,341.947691274758
738360.44661269243806600571,-4.18510493280842,0.837020986561683,341.947691274758
738360.44661278289277106524,-4.20972319711905,0.837020986561683,341.984618671224
738360.44661287334747612476,-4.18510493280842,0.824711854406364,341.935382142603
738360.44661296380218118429,-4.20972319711905,0.824711854406364,341.935382142603
738360.44661305425688624382,-4.20972319711905,0.812402722251045,341.984618671224
738360.44661314471159130335,-4.20972319711905,0.812402722251045,342.02154606769
738360.44661323516629636288,-4.20972319711905,0.824711854406364,342.02154606769
738360.44661332550458610058,-4.20972319711905,0.800093590095726,342.046164332001
738360.44661341595929116011,-4.18510493280842,0.824711854406364,341.972309539069
738360.44661350641399621964,-4.20972319711905,0.837020986561683,342.046164332001
738360.44661359686870127916,-4.19741406496373,0.800093590095726,342.009236935535
738360.44661368732340633869,-4.20972319711905,0.812402722251045,341.947691274758
738360.44661377777811139822,-4.19741406496373,0.800093590095726,341.972309539069
738360.44661386823281645775,-4.22203232927437,0.824711854406364,342.046164332001
738360.44661395868752151728,-4.22203232927437,0.787784457940408,341.960000406913
738360.44661404914222657681,-4.20972319711905,0.824711854406364,342.009236935535
738360.44661413959693163633,-4.22203232927437,0.800093590095726,342.009236935535
738360.44661423005163669586,-4.20972319711905,0.800093590095726,341.996927803379
738360.44661432038992643356,-4.22203232927437,0.800093590095726,341.935382142603
738360.44661441084463149309,-4.20972319711905,0.800093590095726,342.009236935535
738360.44661450129933655262,-4.22203232927437,0.812402722251045,342.02154606769
738360.44661459175404161215,-4.20972319711905,0.812402722251045,341.996927803379
738360.44661468220874667168,-4.20972319711905,0.787784457940408,342.009236935535
738360.44661477266345173120,-4.22203232927437,0.800093590095726,341.960000406913
738360.44661486311815679073,-4.20972319711905,0.812402722251045,341.83690908536
738360.44661495357286185026,-4.19741406496373,0.775475325785089,341.898454746137
738360.44661504402756690979,-4.22203232927437,0.800093590095726,341.910763878292
738360.44661513448227196932,-4.20972319711905,0.787784457940408,341.898454746137
738360.44661522493697702885,-4.18510493280842,0.775475325785089,341.849218217516
738360.44661531527526676655,-4.1727958006531,0.76316619362977,341.910763878292
738360.44661540572997182608,-4.1727958006531,0.787784457940408,341.947691274758
738360.44661549618467688560,-4.1112501398765,0.898566647338277,341.886145613982
738360.44661558663938194513,-4.09894100772118,0.87394838302764,341.923073010448
738360.44661567709408700466,-4.1112501398765,0.898566647338277,341.972309539069
738360.44661576754879206419,-4.14817753634246,0.861639250872321,341.996927803379
738360.44661585800349712372,-4.19741406496373,0.849330118717002,341.947691274758
738360.44661594845820218325,-4.19741406496373,0.824711854406364,342.009236935535
738360.44661603891290724277,-4.19741406496373,0.824711854406364,342.046164332001
738360.44661612936761230230,-4.22203232927437,0.812402722251045,341.984618671224
738360.44661621982231736183,-4.24665059358501,0.812402722251045,341.960000406913
738360.44661631016060709953,-4.23434146142969,0.800093590095726,342.02154606769
738360.44661640061531215906,-4.23434146142969,0.812402722251045,342.009236935535
738360.44661649107001721859,-4.23434146142969,0.812402722251045,341.972309539069
738360.44661658152472227812,-4.23434146142969,0.787784457940408,341.972309539069
738360.44661667197942733765,-4.25895972574033,0.800093590095726,341.984618671224
738360.44661676243413239717,-4.23434146142969,0.812402722251045,341.972309539069
738360.44661685288883745670,-4.13586840418714,1.0462762332021,342.02154606769
738360.44661694334354251623,-3.79121270383821,1.66173284096805,342.058473464156
738360.44661703379824757576,-3.63119398581907,2.24026205226803,342.120019124933
738360.44661712425295263529,-3.9143040253914,1.45247759432763,341.935382142603
738360.44661721470765769482,-4.22203232927437,0.713929665008494,341.996927803379
738360.44661730516236275434,-4.28357799005097,0.910875779493596,342.169255653554
738360.44661739550065249205,-4.19741406496373,0.984730572425509,342.156946521399
738360.44661748595535755157,-4.1727958006531,0.910875779493596,342.058473464156
738360.44661757641006261110,-4.20972319711905,0.886257515182958,342.033855199845
738360.44661766686476767063,-4.19741406496373,0.849330118717002,341.923073010448
738360.44661775731947273016,-4.20972319711905,0.898566647338277,342.083091728467
738360.44661784777417778969,-4.19741406496373,0.861639250872321,342.033855199845
738360.44661793822888284922,-4.20972319711905,0.861639250872321,341.996927803379
738360.44661802868358790874,-4.18510493280842,0.87394838302764,341.996927803379
738360.44661811913829296827,-4.19741406496373,0.87394838302764,342.046164332001
738360.44661820959299802780,-4.20972319711905,0.898566647338277,342.058473464156
738360.44661830004770308733,-4.20972319711905,0.87394838302764,341.960000406913
738360.44661839038599282503,-4.18510493280842,0.886257515182958,341.898454746137
738360.44661848084069788456,-4.18510493280842,0.886257515182958,342.033855199845
738360.44661857129540294409,-4.19741406496373,0.898566647338277,342.058473464156
738360.44661866175010800362,-4.1727958006531,0.910875779493596,342.046164332001
738360.44661875220481306314,-4.1727958006531,0.935494043804234,342.058473464156
738360.44661884265951812267,-4.1727958006531,0.923184911648915,342.070782596311
738360.44661893311422318220,-4.16048666849778,0.947803175959553,342.009236935535
738360.44661902356892824173,-4.13586840418714,0.972421440270191,342.033855199845
738360.44661911402363330126,-4.13586840418714,0.984730572425509,342.107709992777
738360.44661920447833836079,-4.1112501398765,1.02165796889147,341.935382142603
738360.44661929493304342031,-4.12355927203182,1.0462762332021,341.996927803379
738360.44661938527133315802,-4.07432274341055,1.12013102613402,341.996927803379
738360.44661947572603821754,-4.04970447909991,1.14474929044465,342.009236935535
738360.44661956618074327707,-4.01277708263395,1.21860408337657,342.009236935535
738360.44661965663544833660,-4.02508621478927,1.24322234768721,342.107709992777
738360.44661974709015339613,-3.96354055401268,1.34169540492976,342.144637389243
738360.44661983754485845566,-3.95123142185736,1.40324106570635,342.144637389243
738360.44661992799956351519,-3.9143040253914,1.42785933001699,342.144637389243
738360.44662001845426857471,-3.90199489323608,1.45247759432763,342.144637389243
738360.44662010890897363424,-3.87737662892544,1.5017141229489,342.169255653554
738360.44662019936367869377,-3.88968576108076,1.44016846217231,342.083091728467
738360.44662028981838375330,-3.93892228970204,1.35400453708508,342.120019124933
738360.44662038015667349100,-4.00046795047863,1.23091321553189,342.120019124933
738360.44662047061137855053,-4.04970447909991,1.13244015828934,341.984618671224
738360.44662056106608361006,-4.08663187556586,1.0462762332021,342.046164332001
738360.44662065152078866959,-4.13586840418714,0.972421440270191,341.947691274758
738360.44662074197549372911,-4.14817753634246,0.910875779493596,341.923073010448
738360.44662083243019878864,-4.18510493280842,0.886257515182958,341.972309539069
738360.44662092288490384817,-4.22203232927437,0.849330118717002,341.972309539069
738360.44662101333960890770,-4.20972319711905,0.824711854406364,342.009236935535
738360.44662110379431396723,-4.22203232927437,0.849330118717002,341.996927803379
738360.44662119424901902676,-4.19741406496373,0.861639250872321,341.972309539069
738360.44662128470372408628,-4.22203232927437,0.787784457940408,341.923073010448
738360.44662137504201382399,-4.24665059358501,0.812402722251045,341.935382142603
738360.44662146549671888351,-4.22203232927437,0.837020986561683,341.923073010448
738360.44662155595142394304,-4.20972319711905,0.824711854406364,341.923073010448
738360.44662164640612900257,-4.22203232927437,0.824711854406364,341.935382142603
738360.44662173686083406210,-4.22203232927437,0.824711854406364,341.996927803379
738360.44662182731553912163,-4.22203232927437,0.824711854406364,341.947691274758
738360.44662191777024418116,-4.20972319711905,0.824711854406364,341.824599953205
738360.44662200822494924068,-4.22203232927437,0.812402722251045,341.996927803379
738360.44662209867965430021,-4.19741406496373,0.837020986561683,341.947691274758
738360.44662218913435935974,-4.22203232927437,0.812402722251045,342.02154606769
738360.44662227958906441927,-4.23434146142969,0.800093590095726,342.02154606769
738360.44662236992735415697,-4.22203232927437,0.824711854406364,341.996927803379
738360.44662246038205921650,-4.23434146142969,0.812402722251045,342.009236935535
738360.44662255083676427603,-4.22203232927437,0.824711854406364,342.033855199845
738360.44662264129146933556,-4.23434146142969,0.812402722251045,342.02154606769
738360.44662273174617439508,-4.22203232927437,0.800093590095726,341.984618671224
738360.44662282220087945461,-4.22203232927437,0.824711854406364,342.058473464156
738360.44662291265558451414,-4.23434146142969,0.812402722251045,342.009236935535
738360.44662300311028957367,-4.22203232927437,0.812402722251045,341.960000406913
738360.44662309356499463320,-4.22203232927437,0.787784457940408,341.996927803379
738360.44662318401969969273,-4.24665059358501,0.787784457940408,341.996927803379
738360.44662327447440475225,-4.24665059358501,0.800093590095726,341.923073010448
738360.44662336492910981178,-4.24665059358501,0.800093590095726,341.886145613982
738360.44662345526739954948,-4.24665059358501,0.800093590095726,341.873836481826
738360.44662354572210460901,-4.24665059358501,0.787784457940408,341.910763878292
738360.44662363617680966854,-4.23434146142969,0.800093590095726,341.886145613982
738360.44662372663151472807,-4.25895972574033,0.787784457940408,341.935382142603
738360.44662381708621978760,-4.24665059358501,0.775475325785089,341.923073010448
738360.44662390754092484713,-4.23434146142969,0.787784457940408,341.886145613982
738360.44662399799562990665,-4.23434146142969,0.775475325785089,341.873836481826
738360.44662408845033496618,-4.24665059358501,0.800093590095726,341.984618671224
738360.44662417890504002571,-4.27126885789565,0.775475325785089,341.960000406913
738360.44662426935974508524,-4.23434146142969,0.800093590095726,341.947691274758
738360.44662435981445014477,-4.23434146142969,0.800093590095726,341.972309539069
738360.44662445015273988247,-4.25895972574033,0.787784457940408,342.009236935535
738360.44662454060744494200,-4.24665059358501,0.787784457940408,342.033855199845
738360.44662463106215000153,-4.23434146142969,0.775475325785089,341.898454746137
738360.44662472151685506105,-4.24665059358501,0.775475325785089,342.009236935535
738360.44662481197156012058,-4.24665059358501,0.775475325785089,341.972309539069
738360.44662490242626518011,-4.24665059358501,0.750857061474451,341.984618671224
738360.44662499288097023964,-4.20972319711905,0.76316619362977,341.910763878292
738360.44662508333567529917,-4.19741406496373,0.787784457940408,341.923073010448
738360.44662517379038035870,-4.14817753634246,0.861639250872321,341.886145613982
738360.44662526424508541822,-4.13586840418714,0.861639250872321,341.935382142603
738360.44662535469979047775,-4.14817753634246,0.849330118717002,341.726126895962
738360.44662544503808021545,-4.1727958006531,0.861639250872321,341.935382142603
738360.44662553549278527498,-4.20972319711905,0.824711854406364,341.984618671224
738360.44662562594749033451,-4.22203232927437,0.812402722251045,342.009236935535
738360.44662571640219539404,-4.25895972574033,0.812402722251045,341.935382142603
738360.44662580685690045357,-4.25895972574033,0.800093590095726,341.960000406913
738360.44662589731160551310,-4.25895972574033,0.800093590095726,342.009236935535
738360.44662598776631057262,-4.24665059358501,0.800093590095726,341.984618671224
738360.44662607822101563215,-4.25895972574033,0.812402722251045,341.996927803379
738360.44662616867572069168,-4.24665059358501,0.787784457940408,341.984618671224
738360.44662625913042575121,-4.27126885789565,0.800093590095726,342.070782596311
738360.44662634958513081074,-4.29588712220628,0.812402722251045,342.070782596311
738360.44662643992342054844,-4.25895972574033,0.824711854406364,341.996927803379
738360.44662653037812560797,-4.14817753634246,1.09551276182338,342.033855199845
738360.44662662083283066750,-3.80352183599353,1.66173284096805,342.046164332001
738360.44662671128753572702,-3.63119398581907,2.06793420209357,342.009236935535
738360.44662680174224078655,-3.92661315754672,1.34169540492976,341.923073010448
738360.44662689219694584608,-4.18510493280842,0.677002268542538,341.984618671224
738360.44662698265165090561,-4.3081962543616,0.861639250872321,342.20618305002
738360.44662707310635596514,-4.27126885789565,0.947803175959553,342.156946521399
738360.44662716356106102467,-4.20972319711905,0.923184911648915,342.120019124933
738360.44662725401576608419,-4.20972319711905,0.886257515182958,342.070782596311
738360.44662734447047114372,-4.22203232927437,0.861639250872321,342.095400860622
738360.44662743480876088142,-4.23434146142969,0.861639250872321,342.058473464156
738360.44662752526346594095,-4.22203232927437,0.849330118717002,342.046164332001
738360.44662761571817100048,-4.23434146142969,0.87394838302764,342.046164332001
738360.44662770617287606001,-4.22203232927437,0.861639250872321,342.033855199845
738360.44662779662758111954,-4.24665059358501,0.886257515182958,342.144637389243
738360.44662788708228617907,-4.23434146142969,0.87394838302764,342.120019124933
738360.44662797753699123859,-4.22203232927437,0.886257515182958,342.033855199845
738360.44662806799169629812,-4.20972319711905,0.898566647338277,342.058473464156
738360.44662815844640135765,-4.20972319711905,0.910875779493596,342.132328257088
738360.44662824890110641718,-4.19741406496373,0.886257515182958,342.046164332001
738360.44662833935581147671,-4.19741406496373,0.898566647338277,342.033855199845
738360.44662842969410121441,-4.19741406496373,0.960112308114872,342.02154606769
738360.44662852014880627394,-4.18510493280842,0.947803175959553,342.058473464156
738360.44662861060351133347,-4.1727958006531,0.984730572425509,341.984618671224
738360.44662870105821639299,-4.1727958006531,0.972421440270191,341.947691274758
738360.44662879151292145252,-4.16048666849778,1.00934883673615,342.009236935535
738360.44662888196762651205,-4.13586840418714,1.03396710104678,341.849218217516
738360.44662897242233157158,-4.1112501398765,1.07089449751274,341.947691274758
738360.44662906287703663111,-4.08663187556586,1.13244015828934,342.009236935535
