time_dn,ecg_projection_ll_ra_mV,ecg_projection_la_ra_mV,ecg_projection_vx_rl_mV
738360.41566611104644834995,-5.66220079144668,0.566220079144668,341.996927803379
738360.41566620150115340948,-5.674509923602,0.578529211299987,341.996927803379
738360.41566629195585846901,-5.6129642628254,0.640074872076581,342.02154606769
738360.41566638241056352854,-5.58834599851477,0.689311400697857,342.083091728467
738360.41566647286526858807,-5.6129642628254,0.677002268542538,342.095400860622
738360.41566656320355832577,-5.62527339498072,0.689311400697857,342.107709992777
738360.41566665365826338530,-5.62527339498072,0.664693136387219,342.046164332001
738360.41566674411296844482,-5.68681905575732,0.627765739921262,342.120019124933
738360.41566683456767350435,-5.69912818791264,0.627765739921262,342.058473464156
738360.41566692502237856388,-5.71143732006795,0.627765739921262,342.083091728467
738360.41566701547708362341,-5.72374645222327,0.603147475610625,342.095400860622
738360.41566710581537336111,-5.71143732006795,0.627765739921262,342.046164332001
738360.41566719627007842064,-5.74836471653391,0.603147475610625,342.095400860622
738360.41566728672478348017,-5.72374645222327,0.615456607765943,342.156946521399
738360.41566737717948853970,-5.72374645222327,0.615456607765943,342.144637389243
738360.41566746763419359922,-5.72374645222327,0.603147475610625,342.095400860622
738360.41566755808889865875,-5.72374645222327,0.627765739921262,342.20618305002
738360.41566764842718839645,-5.68681905575732,0.664693136387219,342.181564785709
738360.41566773888189345598,-5.52680033773817,1.02165796889147,342.20618305002
738360.41566782933659851551,-5.13290810876797,1.73558763389996,342.280037842952
738360.41566791979130357504,-5.18214463738924,1.88329721976379,342.255419578641
738360.41566801024600863457,-5.4775638091169,1.02165796889147,342.144637389243
738360.41566810058429837227,-5.73605558437859,0.566220079144668,342.193873917864
738360.41566819103900343180,-5.78529211299987,0.738547929319132,342.341583503728
738360.41566828149370849133,-5.71143732006795,0.775475325785089,342.280037842952
738360.41566837194841355085,-5.69912818791264,0.664693136387219,342.132328257088
738360.41566846240311861038,-5.68681905575732,0.701620532853175,342.169255653554
738360.41566855285782366991,-5.72374645222327,0.6523840042319,342.169255653554
738360.41566864319611340761,-5.69912818791264,0.677002268542538,342.181564785709
738360.41566873365081846714,-5.68681905575732,0.664693136387219,342.144637389243
738360.41566882410552352667,-5.69912818791264,0.677002268542538,342.169255653554
738360.41566891456022858620,-5.69912818791264,0.677002268542538,342.046164332001
738360.41566900501493364573,-5.68681905575732,0.664693136387219,342.107709992777
738360.41566909546963870525,-5.68681905575732,0.664693136387219,342.083091728467
738360.41566918580792844296,-5.69912818791264,0.664693136387219,342.058473464156
738360.41566927626263350248,-5.68681905575732,0.689311400697857,342.083091728467
738360.41566936671733856201,-5.66220079144668,0.689311400697857,342.070782596311
738360.41566945717204362154,-5.68681905575732,0.689311400697857,341.947691274758
738360.41566954762674868107,-5.674509923602,0.689311400697857,342.095400860622
738360.41566963808145374060,-5.64989165929136,0.738547929319132,342.107709992777
738360.41566972841974347830,-5.62527339498072,0.76316619362977,342.132328257088
738360.41566981887444853783,-5.63758252713604,0.76316619362977,342.132328257088
738360.41566990932915359735,-5.62527339498072,0.787784457940408,342.144637389243
738360.41566999978385865688,-5.58834599851477,0.837020986561683,342.095400860622
738360.41567009023856371641,-5.57603686635945,0.861639250872321,342.033855199845
738360.41567018069326877594,-5.53910946989349,0.910875779493596,342.107709992777
738360.41567027103155851364,-5.52680033773817,0.960112308114872,342.107709992777
738360.41567036148626357317,-5.48987294127221,1.05858536535742,342.095400860622
738360.41567045194096863270,-5.45294554480626,1.12013102613402,342.193873917864
738360.41567054239567369223,-5.40370901618498,1.19398581906593,342.144637389243
738360.41567063285037875175,-5.35447248756371,1.29245887630848,342.218492182175
738360.41567072330508381128,-5.32985422325307,1.34169540492976,342.193873917864
738360.41567081364337354898,-5.32985422325307,1.35400453708508,342.23080131433
738360.41567090409807860851,-5.32985422325307,1.28014974415316,342.181564785709
738360.41567099455278366804,-5.36678161971903,1.16936755475529,342.156946521399
738360.41567108500748872757,-5.44063641265094,1.07089449751274,342.156946521399
738360.41567117546219378710,-5.46525467696158,1.02165796889147,342.156946521399
738360.41567126591689884663,-5.53910946989349,0.886257515182958,342.181564785709
738360.41567135625518858433,-5.58834599851477,0.800093590095726,342.156946521399
738360.41567144670989364386,-5.6129642628254,0.750857061474451,342.169255653554
738360.41567153716459870338,-5.63758252713604,0.689311400697857,342.083091728467
738360.41567162761930376291,-5.66220079144668,0.689311400697857,342.156946521399
738360.41567171807400882244,-5.66220079144668,0.6523840042319,342.132328257088
738360.41567180852871388197,-5.69912818791264,0.640074872076581,342.107709992777
738360.41567189886700361967,-5.68681905575732,0.627765739921262,342.095400860622
738360.41567198932170867920,-5.71143732006795,0.640074872076581,342.132328257088
738360.41567207977641373873,-5.71143732006795,0.627765739921262,342.120019124933
738360.41567217023111879826,-5.69912818791264,0.640074872076581,342.144637389243
738360.41567226068582385778,-5.66220079144668,0.640074872076581,342.120019124933
738360.41567235102411359549,-5.68681905575732,0.627765739921262,342.132328257088
738360.41567244147881865501,-5.674509923602,0.6523840042319,342.083091728467
738360.41567253193352371454,-5.68681905575732,0.627765739921262,342.132328257088
738360.41567262238822877407,-5.674509923602,0.6523840042319,342.132328257088
738360.41567271284293383360,-5.674509923602,0.615456607765943,342.083091728467
738360.41567280329763889313,-5.674509923602,0.640074872076581,342.107709992777
738360.41567289363592863083,-5.69912818791264,0.627765739921262,341.910763878292
738360.41567298409063369036,-5.69912818791264,0.615456607765943,341.960000406913
738360.41567307454533874989,-5.69912818791264,0.615456607765943,342.083091728467
738360.41567316500004380941,-5.674509923602,0.640074872076581,342.169255653554
738360.41567325545474886894,-5.674509923602,0.6523840042319,342.156946521399
738360.41567334590945392847,-5.68681905575732,0.640074872076581,342.107709992777
738360.41567343624774366617,-5.674509923602,0.640074872076581,342.095400860622
738360.41567352670244872570,-5.68681905575732,0.627765739921262,342.181564785709
738360.41567361715715378523,-5.69912818791264,0.627765739921262,342.058473464156
738360.41567370761185884476,-5.69912818791264,0.627765739921262,342.058473464156
738360.41567379806656390429,-5.69912818791264,0.627765739921262,342.009236935535
738360.41567388852126896381,-5.71143732006795,0.615456607765943,342.058473464156
738360.41567397885955870152,-5.71143732006795,0.615456607765943,342.070782596311
738360.41567406931426376104,-5.71143732006795,0.603147475610625,342.046164332001
738360.41567415976896882057,-5.71143732006795,0.603147475610625,342.046164332001
738360.41567425022367388010,-5.68681905575732,0.640074872076581,342.070782596311
738360.41567434067837893963,-5.69912818791264,0.603147475610625,342.033855199845
738360.41567443113308399916,-5.71143732006795,0.615456607765943,342.058473464156
738360.41567452147137373686,-5.72374645222327,0.615456607765943,342.070782596311
738360.41567461192607879639,-5.74836471653391,0.590838343455306,342.120019124933
738360.41567470238078385592,-5.69912818791264,0.590838343455306,342.070782596311
738360.41567479283548891544,-5.72374645222327,0.603147475610625,342.033855199845
738360.41567488329019397497,-5.74836471653391,0.603147475610625,342.058473464156
738360.41567497374489903450,-5.72374645222327,0.615456607765943,342.070782596311
738360.41567506408318877220,-5.72374645222327,0.627765739921262,342.070782596311
738360.41567515453789383173,-5.71143732006795,0.603147475610625,342.02154606769
738360.41567524499259889126,-5.72374645222327,0.603147475610625,342.058473464156
738360.41567533544730395079,-5.72374645222327,0.603147475610625,342.033855199845
738360.41567542590200901031,-5.69912818791264,0.553910946989349,342.033855199845
738360.41567551635671406984,-5.69912818791264,0.603147475610625,342.02154606769
738360.41567560669500380754,-5.72374645222327,0.603147475610625,342.009236935535
738360.41567569714970886707,-5.68681905575732,0.603147475610625,342.02154606769
738360.41567578760441392660,-5.68681905575732,0.566220079144668,342.046164332001
738360.41567587805911898613,-5.674509923602,0.603147475610625,342.058473464156
738360.41567596851382404566,-5.63758252713604,0.6523840042319,342.095400860622
738360.41567605885211378336,-5.64989165929136,0.640074872076581,342.070782596311
738360.41567614930681884289,-5.62527339498072,0.689311400697857,342.095400860622
738360.41567623976152390242,-5.64989165929136,0.689311400697857,342.132328257088
738360.41567633021622896194,-5.69912818791264,0.640074872076581,342.083091728467
738360.41567642067093402147,-5.73605558437859,0.615456607765943,341.996927803379
738360.41567651112563908100,-5.73605558437859,0.615456607765943,342.058473464156
738360.41567660146392881870,-5.76067384868923,0.590838343455306,342.095400860622
738360.41567669191863387823,-5.74836471653391,0.578529211299987,342.120019124933
738360.41567678237333893776,-5.74836471653391,0.603147475610625,342.156946521399
738360.41567687282804399729,-5.72374645222327,0.615456607765943,342.156946521399
738360.41567696328274905682,-5.73605558437859,0.603147475610625,342.095400860622
738360.41567705373745411634,-5.74836471653391,0.615456607765943,342.156946521399
738360.41567714407574385405,-5.78529211299987,0.615456607765943,342.20618305002
738360.41567723453044891357,-5.76067384868923,0.615456607765943,342.132328257088
738360.41567732498515397310,-5.58834599851477,0.898566647338277,342.255419578641
738360.41567741543985903263,-5.25599943032116,1.52633238725954,342.292346975107
738360.41567750589456409216,-5.14521724092329,2.01869767347229,342.292346975107
738360.41567759634926915169,-5.45294554480626,1.24322234768721,342.169255653554
738360.41567768668755888939,-5.74836471653391,0.553910946989349,342.132328257088
738360.41567777714226394892,-5.84683777377646,0.701620532853175,342.292346975107
738360.41567786759696900845,-5.73605558437859,0.76316619362977,342.23080131433
738360.41567795805167406797,-5.72374645222327,0.689311400697857,342.120019124933
738360.41567804850637912750,-5.71143732006795,0.6523840042319,342.02154606769
738360.41567813896108418703,-5.73605558437859,0.627765739921262,342.144637389243
738360.41567822929937392473,-5.72374645222327,0.640074872076581,342.083091728467
738360.41567831975407898426,-5.74836471653391,0.664693136387219,342.132328257088
738360.41567841020878404379,-5.73605558437859,0.6523840042319,342.095400860622
738360.41567850066348910332,-5.73605558437859,0.689311400697857,342.156946521399
738360.41567859111819416285,-5.74836471653391,0.6523840042319,342.120019124933
738360.41567868157289922237,-5.74836471653391,0.664693136387219,342.046164332001
738360.41567877191118896008,-5.76067384868923,0.6523840042319,342.193873917864
738360.41567886236589401960,-5.74836471653391,0.6523840042319,342.144637389243
738360.41567895282059907913,-5.74836471653391,0.6523840042319,342.181564785709
738360.41567904327530413866,-5.73605558437859,0.664693136387219,342.144637389243
738360.41567913373000919819,-5.72374645222327,0.689311400697857,342.144637389243
738360.41567922418471425772,-5.68681905575732,0.664693136387219,342.058473464156
738360.41567931452300399542,-5.674509923602,0.738547929319132,342.095400860622
738360.41567940497770905495,-5.674509923602,0.738547929319132,342.107709992777
738360.41567949543241411448,-5.68681905575732,0.76316619362977,342.132328257088
738360.41567958588711917400,-5.64989165929136,0.800093590095726,342.169255653554
738360.41567967634182423353,-5.63758252713604,0.824711854406364,342.132328257088
738360.41567976668011397123,-5.60065513067009,0.886257515182958,342.144637389243
738360.41567985713481903076,-5.60065513067009,0.923184911648915,342.144637389243
738360.41567994758952409029,-5.55141860204881,1.00934883673615,341.984618671224
738360.41568003804422914982,-5.50218207342753,1.07089449751274,342.107709992777
738360.41568012849893420935,-5.46525467696158,1.15705842259997,342.267728710796
738360.41568021895363926888,-5.4160181483403,1.24322234768721,342.169255653554
738360.41568030929192900658,-5.37909075187434,1.28014974415316,342.144637389243
738360.41568039974663406610,-5.35447248756371,1.31707714061912,342.144637389243
738360.41568049020133912563,-5.36678161971903,1.32938627277444,342.169255653554
738360.41568058065604418516,-5.37909075187434,1.29245887630848,342.120019124933
738360.41568067111074924469,-5.44063641265094,1.16936755475529,342.156946521399
738360.41568076156545430422,-5.48987294127221,1.05858536535742,342.181564785709
738360.41568085190374404192,-5.56372773420413,0.910875779493596,342.156946521399
738360.41568094235844910145,-5.6129642628254,0.812402722251045,342.132328257088
738360.41568103281315416098,-5.64989165929136,0.738547929319132,342.156946521399
738360.41568112326785922050,-5.674509923602,0.689311400697857,342.107709992777
738360.41568121372256428003,-5.71143732006795,0.664693136387219,342.181564785709
738360.41568130417726933956,-5.71143732006795,0.640074872076581,342.070782596311
738360.41568139451555907726,-5.73605558437859,0.627765739921262,342.144637389243
738360.41568148497026413679,-5.73605558437859,0.6523840042319,342.144637389243
738360.41568157542496919632,-5.73605558437859,0.615456607765943,342.046164332001
738360.41568166587967425585,-5.73605558437859,0.615456607765943,342.107709992777
738360.41568175633437931538,-5.74836471653391,0.615456607765943,342.070782596311
738360.41568184678908437490,-5.74836471653391,0.603147475610625,342.02154606769
738360.41568193712737411261,-5.73605558437859,0.603147475610625,342.033855199845
738360.41568202758207917213,-5.76067384868923,0.603147475610625,342.095400860622
738360.41568211803678423166,-5.73605558437859,0.578529211299987,342.070782596311
738360.41568220849148929119,-5.76067384868923,0.590838343455306,342.107709992777
738360.41568229894619435072,-5.73605558437859,0.603147475610625,342.083091728467
738360.41568238940089941025,-5.73605558437859,0.603147475610625,342.058473464156
738360.41568247973918914795,-5.74836471653391,0.640074872076581,342.070782596311
738360.41568257019389420748,-5.76067384868923,0.615456607765943,342.070782596311
738360.41568266064859926701,-5.72374645222327,0.603147475610625,342.095400860622
738360.41568275110330432653,-5.72374645222327,0.615456607765943,342.083091728467
738360.41568284155800938606,-5.74836471653391,0.603147475610625,342.156946521399
738360.41568293201271444559,-5.76067384868923,0.603147475610625,342.083091728467
738360.41568302235100418329,-5.73605558437859,0.590838343455306,342.144637389243
738360.41568311280570924282,-5.74836471653391,0.603147475610625,342.120019124933
738360.41568320326041430235,-5.74836471653391,0.615456607765943,342.058473464156
738360.41568329371511936188,-5.74836471653391,0.578529211299987,342.107709992777
738360.41568338416982442141,-5.77298298084455,0.603147475610625,342.070782596311
738360.41568347462452948093,-5.76067384868923,0.603147475610625,341.910763878292
738360.41568356496281921864,-5.77298298084455,0.578529211299987,341.996927803379
738360.41568365541752427816,-5.73605558437859,0.553910946989349,342.107709992777
738360.41568374587222933769,-5.76067384868923,0.603147475610625,342.083091728467
738360.41568383632693439722,-5.74836471653391,0.590838343455306,342.058473464156
738360.41568392678163945675,-5.77298298084455,0.590838343455306,342.033855199845
738360.41568401711992919445,-5.77298298084455,0.603147475610625,342.070782596311
738360.41568410757463425398,-5.77298298084455,0.603147475610625,342.070782596311
738360.41568419802933931351,-5.77298298084455,0.578529211299987,342.058473464156
738360.41568428848404437304,-5.78529211299987,0.566220079144668,342.009236935535
738360.41568437893874943256,-5.79760124515519,0.553910946989349,342.058473464156
738360.41568446939345449209,-5.76067384868923,0.578529211299987,342.107709992777
738360.41568455973174422979,-5.79760124515519,0.566220079144668,342.046164332001
738360.41568465018644928932,-5.77298298084455,0.553910946989349,342.144637389243
738360.41568474064115434885,-5.77298298084455,0.578529211299987,342.156946521399
738360.41568483109585940838,-5.77298298084455,0.578529211299987,342.144637389243
738360.41568492155056446791,-5.76067384868923,0.54160181483403,342.046164332001
738360.41568501200526952744,-5.77298298084455,0.603147475610625,342.132328257088
738360.41568510234355926514,-5.77298298084455,0.566220079144668,342.156946521399
738360.41568519279826432467,-5.79760124515519,0.578529211299987,342.107709992777
738360.41568528325296938419,-5.80991037731051,0.590838343455306,342.132328257088
738360.41568537370767444372,-5.79760124515519,0.566220079144668,342.156946521399
738360.41568546416237950325,-5.79760124515519,0.553910946989349,342.193873917864
738360.41568555461708456278,-5.76067384868923,0.590838343455306,342.095400860622
738360.41568564495537430048,-5.78529211299987,0.566220079144668,342.120019124933
738360.41568573541007936001,-5.79760124515519,0.54160181483403,342.132328257088
738360.41568582586478441954,-5.80991037731051,0.529292682678711,342.02154606769
738360.41568591631948947906,-5.72374645222327,0.516983550523392,342.070782596311
738360.41568600677419453859,-5.74836471653391,0.578529211299987,342.070782596311
738360.41568609722889959812,-5.73605558437859,0.566220079144668,342.033855199845
738360.41568618756718933582,-5.73605558437859,0.566220079144668,342.046164332001
738360.41568627802189439535,-5.71143732006795,0.640074872076581,342.107709992777
738360.41568636847659945488,-5.66220079144668,0.627765739921262,342.070782596311
738360.41568645893130451441,-5.69912818791264,0.664693136387219,342.120019124933
738360.41568654938600957394,-5.71143732006795,0.6523840042319,342.095400860622
738360.41568663984071463346,-5.76067384868923,0.603147475610625,342.033855199845
738360.41568673017900437117,-5.78529211299987,0.578529211299987,342.058473464156
738360.41568682063370943069,-5.80991037731051,0.566220079144668,342.083091728467
738360.41568691108841449022,-5.79760124515519,0.578529211299987,342.02154606769
738360.41568700154311954975,-5.78529211299987,0.566220079144668,341.960000406913
738360.41568709199782460928,-5.77298298084455,0.566220079144668,341.972309539069
738360.41568718245252966881,-5.80991037731051,0.590838343455306,342.107709992777
738360.41568727279081940651,-5.79760124515519,0.578529211299987,342.120019124933
738360.41568736324552446604,-5.80991037731051,0.578529211299987,342.107709992777
738360.41568745370022952557,-5.84683777377646,0.590838343455306,342.132328257088
738360.41568754415493458509,-5.77298298084455,0.603147475610625,342.107709992777
738360.41568763460963964462,-5.62527339498072,0.935494043804234,342.193873917864
738360.41568772494792938232,-5.24369029816584,1.60018718019145,342.255419578641
738360.41568781540263444185,-5.23138116601052,1.89560635191911,342.255419578641
738360.41568790585733950138,-5.53910946989349,1.07089449751274,342.144637389243
738360.41568799631204456091,-5.69912818791264,0.664693136387219,342.095400860622
738360.41568808676674962044,-5.84683777377646,0.627765739921262,342.267728710796
738360.41568817722145467997,-5.80991037731051,0.701620532853175,342.341583503728
738360.41568826755974441767,-5.78529211299987,0.713929665008494,342.218492182175
738360.41568835801444947720,-5.79760124515519,0.640074872076581,342.144637389243
738360.41568844846915453672,-5.79760124515519,0.627765739921262,342.132328257088
738360.41568853892385959625,-5.83452864162114,0.590838343455306,342.132328257088
738360.41568862937856465578,-5.79760124515519,0.603147475610625,342.20618305002
738360.41568871983326971531,-5.77298298084455,0.627765739921262,342.083091728467
738360.41568881017155945301,-5.77298298084455,0.627765739921262,342.033855199845
738360.41568890062626451254,-5.79760124515519,0.615456607765943,342.083091728467
738360.41568899108096957207,-5.79760124515519,0.615456607765943,342.083091728467
738360.41568908153567463160,-5.78529211299987,0.6523840042319,342.033855199845
738360.41568917199037969112,-5.78529211299987,0.6523840042319,342.156946521399
738360.41568926244508475065,-5.76067384868923,0.640074872076581,342.132328257088
738360.41568935278337448835,-5.74836471653391,0.6523840042319,342.132328257088
738360.41568944323807954788,-5.76067384868923,0.664693136387219,342.144637389243
738360.41568953369278460741,-5.77298298084455,0.664693136387219,342.169255653554
738360.41568962414748966694,-5.73605558437859,0.677002268542538,342.20618305002
738360.41568971460219472647,-5.73605558437859,0.713929665008494,342.132328257088
738360.41568980505689978600,-5.72374645222327,0.738547929319132,342.169255653554
738360.41568989539518952370,-5.71143732006795,0.750857061474451,342.20618305002
738360.41568998584989458323,-5.68681905575732,0.76316619362977,342.144637389243
738360.41569007630459964275,-5.674509923602,0.824711854406364,342.169255653554
738360.41569016675930470228,-5.66220079144668,0.87394838302764,342.181564785709
738360.41569025721400976181,-5.60065513067009,0.947803175959553,342.20618305002
738360.41569034766871482134,-5.56372773420413,1.03396710104678,342.132328257088
738360.41569043800700455904,-5.51449120558285,1.09551276182338,342.243110446486
738360.41569052846170961857,-5.48987294127221,1.19398581906593,342.144637389243
738360.41569061891641467810,-5.45294554480626,1.25553147984252,342.046164332001
738360.41569070937111973763,-5.42832728049562,1.29245887630848,342.255419578641
738360.41569079982582479715,-5.40370901618498,1.31707714061912,342.181564785709
738360.41569089028052985668,-5.44063641265094,1.26784061199784,342.193873917864
738360.41569098061881959438,-5.46525467696158,1.15705842259997,342.181564785709
738360.41569107107352465391,-5.53910946989349,1.02165796889147,342.144637389243
738360.41569116152822971344,-5.58834599851477,0.87394838302764,342.120019124933
738360.41569125198293477297,-5.66220079144668,0.800093590095726,342.156946521399
738360.41569134243763983250,-5.68681905575732,0.726238797163813,342.083091728467
738360.41569143289234489202,-5.73605558437859,0.689311400697857,342.033855199845
738360.41569152323063462973,-5.74836471653391,0.640074872076581,342.070782596311
738360.41569161368533968925,-5.76067384868923,0.615456607765943,342.058473464156
738360.41569170414004474878,-5.76067384868923,0.627765739921262,342.095400860622
738360.41569179459474980831,-5.76067384868923,0.603147475610625,342.046164332001
738360.41569188504945486784,-5.78529211299987,0.615456607765943,342.095400860622
738360.41569197538774460554,-5.77298298084455,0.590838343455306,342.070782596311
738360.41569206584244966507,-5.78529211299987,0.590838343455306,342.070782596311
738360.41569215629715472460,-5.78529211299987,0.590838343455306,342.070782596311
738360.41569224675185978413,-5.78529211299987,0.578529211299987,342.107709992777
738360.41569233720656484365,-5.79760124515519,0.590838343455306,342.070782596311
738360.41569242766126990318,-5.79760124515519,0.578529211299987,342.132328257088
738360.41569251799955964088,-5.79760124515519,0.566220079144668,342.033855199845
738360.41569260845426470041,-5.79760124515519,0.578529211299987,342.083091728467
738360.41569269890896975994,-5.79760124515519,0.578529211299987,342.070782596311
738360.41569278936367481947,-5.77298298084455,0.590838343455306,342.144637389243
738360.41569287981837987900,-5.77298298084455,0.578529211299987,342.132328257088
738360.41569297027308493853,-5.79760124515519,0.578529211299987,342.107709992777
738360.41569306061137467623,-5.77298298084455,0.578529211299987,342.120019124933
738360.41569315106607973576,-5.77298298084455,0.603147475610625,342.144637389243
738360.41569324152078479528,-5.77298298084455,0.603147475610625,342.120019124933
738360.41569333197548985481,-5.78529211299987,0.590838343455306,342.095400860622
738360.41569342243019491434,-5.78529211299987,0.578529211299987,342.144637389243
738360.41569351288489997387,-5.77298298084455,0.578529211299987,342.107709992777
738360.41569360322318971157,-5.78529211299987,0.578529211299987,342.132328257088
738360.41569369367789477110,-5.78529211299987,0.578529211299987,342.070782596311
738360.41569378413259983063,-5.80991037731051,0.566220079144668,342.144637389243
738360.41569387458730489016,-5.79760124515519,0.566220079144668,342.120019124933
738360.41569396504200994968,-5.80991037731051,0.553910946989349,342.144637389243
738360.41569405549671500921,-5.80991037731051,0.553910946989349,342.033855199845
738360.41569414583500474691,-5.79760124515519,0.54160181483403,341.972309539069
738360.41569423628970980644,-5.80991037731051,0.566220079144668,342.033855199845
738360.41569432674441486597,-5.80991037731051,0.54160181483403,342.02154606769
738360.41569441719911992550,-5.78529211299987,0.578529211299987,342.009236935535
738360.41569450765382498503,-5.78529211299987,0.578529211299987,342.046164332001
738360.41569459810853004456,-5.79760124515519,0.553910946989349,342.009236935535
738360.41569468844681978226,-5.80991037731051,0.553910946989349,342.058473464156
738360.41569477890152484179,-5.79760124515519,0.54160181483403,341.947691274758
738360.41569486935622990131,-5.80991037731051,0.54160181483403,342.02154606769
738360.41569495981093496084,-5.82221950946582,0.54160181483403,342.046164332001
738360.41569505026564002037,-5.82221950946582,0.553910946989349,342.033855199845
738360.41569514072034507990,-5.82221950946582,0.553910946989349,342.02154606769
738360.41569523105863481760,-5.80991037731051,0.516983550523392,342.009236935535
738360.41569532151333987713,-5.82221950946582,0.54160181483403,342.02154606769
738360.41569541196804493666,-5.80991037731051,0.529292682678711,341.996927803379
738360.41569550242274999619,-5.80991037731051,0.54160181483403,342.083091728467
738360.41569559287745505571,-5.80991037731051,0.566220079144668,342.046164332001
738360.41569568321574479342,-5.79760124515519,0.553910946989349,342.058473464156
738360.41569577367044985294,-5.82221950946582,0.553910946989349,342.046164332001
738360.41569586412515491247,-5.79760124515519,0.553910946989349,342.058473464156
738360.41569595457985997200,-5.80991037731051,0.553910946989349,342.058473464156
738360.41569604503456503153,-5.79760124515519,0.54160181483403,342.046164332001
738360.41569613548927009106,-5.82221950946582,0.54160181483403,342.058473464156
738360.41569622582755982876,-5.80991037731051,0.529292682678711,342.083091728467
738360.41569631628226488829,-5.80991037731051,0.516983550523392,342.083091728467
738360.41569640673696994781,-5.79760124515519,0.516983550523392,342.033855199845
738360.41569649719167500734,-5.82221950946582,0.504674418368074,342.046164332001
738360.41569658764638006687,-5.78529211299987,0.504674418368074,342.046164332001
738360.41569667810108512640,-5.76067384868923,0.504674418368074,342.033855199845
738360.41569676843937486410,-5.72374645222327,0.590838343455306,341.984618671224
738360.41569685889407992363,-5.69912818791264,0.627765739921262,342.058473464156
738360.41569694934878498316,-5.674509923602,0.6523840042319,342.095400860622
738360.41569703980349004269,-5.73605558437859,0.603147475610625,342.033855199845
738360.41569713025819510221,-5.78529211299987,0.566220079144668,342.070782596311
738360.41569722071290016174,-5.79760124515519,0.566220079144668,342.083091728467
738360.41569731105118989944,-5.79760124515519,0.553910946989349,342.107709992777
738360.41569740150589495897,-5.80991037731051,0.516983550523392,342.033855199845
738360.41569749196060001850,-5.78529211299987,0.553910946989349,342.107709992777
738360.41569758241530507803,-5.79760124515519,0.566220079144668,342.058473464156
738360.41569767287001013756,-5.79760124515519,0.54160181483403,341.910763878292
738360.41569776332471519709,-5.78529211299987,0.54160181483403,342.132328257088
738360.41569785366300493479,-5.82221950946582,0.54160181483403,342.132328257088
738360.41569794411770999432,-5.82221950946582,0.54160181483403,342.058473464156
738360.41569803457241505384,-5.83452864162114,0.516983550523392,342.095400860622
738360.41569812502712011337,-5.76067384868923,0.640074872076581,342.181564785709
738360.41569821548182517290,-5.50218207342753,1.09551276182338,342.218492182175
738360.41569830593653023243,-5.14521724092329,1.83406069114251,342.23080131433
738360.41569839627481997013,-5.36678161971903,1.61249631234677,342.181564785709
738360.41569848672952502966,-5.64989165929136,0.750857061474451,342.107709992777
738360.41569857718423008919,-5.84683777377646,0.553910946989349,342.156946521399
738360.41569866763893514872,-5.82221950946582,0.713929665008494,342.304656107262
738360.41569875809364020824,-5.76067384868923,0.677002268542538,342.23080131433
738360.41569884854834526777,-5.77298298084455,0.615456607765943,342.058473464156
738360.41569893888663500547,-5.77298298084455,0.578529211299987,342.132328257088
738360.41569902934134006500,-5.78529211299987,0.590838343455306,342.046164332001
738360.41569911979604512453,-5.78529211299987,0.590838343455306,342.120019124933
738360.41569921025075018406,-5.78529211299987,0.590838343455306,342.095400860622
738360.41569930070545524359,-5.77298298084455,0.603147475610625,342.070782596311
738360.41569939104374498129,-5.77298298084455,0.590838343455306,342.070782596311
738360.41569948149845004082,-5.76067384868923,0.603147475610625,342.046164332001
738360.41569957195315510035,-5.76067384868923,0.603147475610625,342.046164332001
738360.41569966240786015987,-5.74836471653391,0.615456607765943,342.046164332001
738360.41569975286256521940,-5.77298298084455,0.627765739921262,342.095400860622
738360.41569984331727027893,-5.74836471653391,0.615456607765943,342.058473464156
738360.41569993365556001663,-5.74836471653391,0.640074872076581,342.144637389243
738360.41570002411026507616,-5.73605558437859,0.6523840042319,342.058473464156
738360.41570011456497013569,-5.73605558437859,0.664693136387219,342.107709992777
738360.41570020501967519522,-5.72374645222327,0.677002268542538,342.144637389243
738360.41570029547438025475,-5.71143732006795,0.689311400697857,342.120019124933
738360.41570038592908531427,-5.68681905575732,0.738547929319132,342.046164332001
738360.41570047626737505198,-5.674509923602,0.750857061474451,342.070782596311
738360.41570056672208011150,-5.64989165929136,0.775475325785089,342.120019124933
738360.41570065717678517103,-5.62527339498072,0.824711854406364,342.132328257088
738360.41570074763149023056,-5.6129642628254,0.923184911648915,342.132328257088
738360.41570083808619529009,-5.55141860204881,0.997039704580828,342.181564785709
738360.41570092854090034962,-5.51449120558285,1.05858536535742,342.181564785709
738360.41570101887919008732,-5.46525467696158,1.14474929044465,342.193873917864
738360.41570110933389514685,-5.46525467696158,1.18167668691061,342.181564785709
738360.41570119978860020638,-5.42832728049562,1.25553147984252,341.960000406913
738360.41570129024330526590,-5.39139988402966,1.28014974415316,342.132328257088
738360.41570138069801032543,-5.36678161971903,1.3047680084638,342.132328257088
738360.41570147115271538496,-5.40370901618498,1.23091321553189,342.120019124933
738360.41570156149100512266,-5.45294554480626,1.1078218939787,342.107709992777
738360.41570165194571018219,-5.52680033773817,0.972421440270191,342.107709992777
738360.41570174240041524172,-5.58834599851477,0.87394838302764,342.156946521399
738360.41570183285512030125,-5.66220079144668,0.76316619362977,342.132328257088
738360.41570192330982536077,-5.69912818791264,0.689311400697857,342.070782596311
738360.41570201376453042030,-5.71143732006795,0.615456607765943,342.132328257088
738360.41570210410282015800,-5.73605558437859,0.627765739921262,342.120019124933
738360.41570219455752521753,-5.74836471653391,0.603147475610625,342.033855199845
738360.41570228501223027706,-5.76067384868923,0.590838343455306,342.107709992777
738360.41570237546693533659,-5.74836471653391,0.590838343455306,342.107709992777
738360.41570246592164039612,-5.76067384868923,0.590838343455306,342.144637389243
738360.41570255637634545565,-5.74836471653391,0.566220079144668,342.058473464156
738360.41570264671463519335,-5.77298298084455,0.590838343455306,342.132328257088
738360.41570273716934025288,-5.77298298084455,0.578529211299987,342.107709992777
738360.41570282762404531240,-5.76067384868923,0.590838343455306,342.070782596311
738360.41570291807875037193,-5.76067384868923,0.566220079144668,342.107709992777
738360.41570300853345543146,-5.76067384868923,0.566220079144668,342.120019124933
738360.41570309898816049099,-5.76067384868923,0.553910946989349,342.132328257088
738360.41570318932645022869,-5.76067384868923,0.553910946989349,341.972309539069
738360.41570327978115528822,-5.76067384868923,0.566220079144668,341.947691274758
738360.41570337023586034775,-5.77298298084455,0.553910946989349,341.960000406913
738360.41570346069056540728,-5.77298298084455,0.566220079144668,341.996927803379
738360.41570355114527046680,-5.74836471653391,0.566220079144668,342.058473464156
738360.41570364148356020451,-5.73605558437859,0.590838343455306,342.058473464156
738360.41570373193826526403,-5.76067384868923,0.578529211299987,342.033855199845
738360.41570382239297032356,-5.74836471653391,0.578529211299987,342.095400860622
738360.41570391284767538309,-5.74836471653391,0.590838343455306,342.033855199845
738360.41570400330238044262,-5.76067384868923,0.566220079144668,342.033855199845
738360.41570409375708550215,-5.74836471653391,0.578529211299987,342.046164332001
738360.41570418409537523985,-5.76067384868923,0.578529211299987,342.02154606769
738360.41570427455008029938,-5.74836471653391,0.553910946989349,341.984618671224
738360.41570436500478535891,-5.77298298084455,0.578529211299987,342.120019124933
738360.41570445545949041843,-5.77298298084455,0.553910946989349,342.033855199845
738360.41570454591419547796,-5.78529211299987,0.553910946989349,342.120019124933
738360.41570463636890053749,-5.78529211299987,0.566220079144668,341.873836481826
738360.41570472670719027519,-5.76067384868923,0.54160181483403,341.923073010448
738360.41570481716189533472,-5.77298298084455,0.553910946989349,342.02154606769
738360.41570490761660039425,-5.77298298084455,0.553910946989349,342.058473464156
738360.41570499807130545378,-5.78529211299987,0.553910946989349,342.095400860622
738360.41570508852601051331,-5.77298298084455,0.566220079144668,342.083091728467
738360.41570517898071557283,-5.79760124515519,0.54160181483403,342.132328257088
738360.41570526931900531054,-5.77298298084455,0.566220079144668,342.009236935535
738360.41570535977371037006,-5.79760124515519,0.553910946989349,342.070782596311
738360.41570545022841542959,-5.78529211299987,0.54160181483403,342.009236935535
738360.41570554068312048912,-5.78529211299987,0.529292682678711,342.070782596311
738360.41570563113782554865,-5.79760124515519,0.553910946989349,342.144637389243
738360.41570572159253060818,-5.79760124515519,0.54160181483403,342.144637389243
738360.41570581193082034588,-5.79760124515519,0.54160181483403,341.996927803379
738360.41570590238552540541,-5.79760124515519,0.529292682678711,342.009236935535
738360.41570599284023046494,-5.77298298084455,0.553910946989349,342.02154606769
738360.41570608329493552446,-5.78529211299987,0.529292682678711,342.009236935535
738360.41570617374964058399,-5.78529211299987,0.553910946989349,342.02154606769
738360.41570626420434564352,-5.78529211299987,0.553910946989349,342.083091728467
738360.41570635454263538122,-5.78529211299987,0.54160181483403,342.02154606769
738360.41570644499734044075,-5.78529211299987,0.553910946989349,342.107709992777
738360.41570653545204550028,-5.78529211299987,0.553910946989349,342.120019124933
738360.41570662590675055981,-5.79760124515519,0.516983550523392,342.107709992777
738360.41570671636145561934,-5.80991037731051,0.54160181483403,342.058473464156
738360.41570680681616067886,-5.79760124515519,0.54160181483403,342.107709992777
738360.41570689715445041656,-5.80991037731051,0.54160181483403,342.120019124933
738360.41570698760915547609,-5.79760124515519,0.54160181483403,342.058473464156
738360.41570707806386053562,-5.79760124515519,0.54160181483403,342.107709992777
738360.41570716851856559515,-5.77298298084455,0.516983550523392,342.009236935535
738360.41570725897327065468,-5.78529211299987,0.516983550523392,342.02154606769
738360.41570734931156039238,-5.77298298084455,0.529292682678711,341.984618671224
738360.41570743976626545191,-5.76067384868923,0.54160181483403,341.984618671224
738360.41570753022097051144,-5.74836471653391,0.516983550523392,341.947691274758
738360.41570762067567557096,-5.69912818791264,0.578529211299987,342.070782596311
738360.41570771113038063049,-5.68681905575732,0.615456607765943,342.083091728467
738360.41570780158508569002,-5.68681905575732,0.615456607765943,342.009236935535
738360.41570789192337542772,-5.69912818791264,0.615456607765943,342.095400860622
738360.41570798237808048725,-5.73605558437859,0.578529211299987,342.095400860622
738360.41570807283278554678,-5.77298298084455,0.566220079144668,342.083091728467
738360.41570816328749060631,-5.79760124515519,0.553910946989349,341.935382142603
738360.41570825374219566584,-5.80991037731051,0.54160181483403,342.058473464156
738360.41570834419690072536,-5.78529211299987,0.553910946989349,342.107709992777
738360.41570843453519046307,-5.80991037731051,0.553910946989349,342.144637389243
738360.41570852498989552259,-5.79760124515519,0.553910946989349,342.107709992777
738360.41570861544460058212,-5.79760124515519,0.54160181483403,342.120019124933
738360.41570870589930564165,-5.80991037731051,0.54160181483403,342.144637389243
738360.41570879635401070118,-5.82221950946582,0.553910946989349,342.144637389243
738360.41570888680871576071,-5.82221950946582,0.54160181483403,342.132328257088
738360.41570897714700549841,-5.77298298084455,0.603147475610625,342.144637389243
738360.41570906760171055794,-5.55141860204881,1.0462762332021,342.243110446486
738360.41570915805641561747,-5.18214463738924,1.73558763389996,342.181564785709
738360.41570924851112067699,-5.31754509109775,1.74789676605528,342.181564785709
738360.41570933896582573652,-5.57603686635945,0.87394838302764,342.156946521399
738360.41570942942053079605,-5.83452864162114,0.529292682678711,342.20618305002
738360.41570951975882053375,-5.85914690593178,0.701620532853175,342.20618305002
738360.41570961021352559328,-5.77298298084455,0.701620532853175,342.181564785709
738360.41570970066823065281,-5.76067384868923,0.615456607765943,342.083091728467
738360.41570979112293571234,-5.78529211299987,0.603147475610625,342.132328257088
738360.41570988157764077187,-5.78529211299987,0.590838343455306,342.193873917864
738360.41570997203234583139,-5.78529211299987,0.590838343455306,342.058473464156
738360.41571006237063556910,-5.78529211299987,0.566220079144668,342.107709992777
738360.41571015282534062862,-5.79760124515519,0.627765739921262,342.156946521399
738360.41571024328004568815,-5.77298298084455,0.615456607765943,342.095400860622
738360.41571033373475074768,-5.77298298084455,0.603147475610625,342.169255653554
738360.41571042418945580721,-5.76067384868923,0.627765739921262,342.132328257088
738360.41571051464416086674,-5.77298298084455,0.615456607765943,342.046164332001
738360.41571060498245060444,-5.77298298084455,0.615456607765943,342.02154606769
738360.41571069543715566397,-5.74836471653391,0.615456607765943,342.046164332001
738360.41571078589186072350,-5.77298298084455,0.627765739921262,342.058473464156
738360.41571087634656578302,-5.76067384868923,0.640074872076581,342.070782596311
738360.41571096680127084255,-5.72374645222327,0.664693136387219,342.156946521399
738360.41571105713956058025,-5.72374645222327,0.664693136387219,342.144637389243
738360.41571114759426563978,-5.72374645222327,0.738547929319132,342.169255653554
738360.41571123804897069931,-5.71143732006795,0.726238797163813,342.058473464156
738360.41571132850367575884,-5.71143732006795,0.750857061474451,342.156946521399
738360.41571141895838081837,-5.66220079144668,0.800093590095726,342.144637389243
738360.41571150941308587790,-5.64989165929136,0.837020986561683,342.095400860622
738360.41571159975137561560,-5.6129642628254,0.898566647338277,342.132328257088
738360.41571169020608067513,-5.58834599851477,0.960112308114872,342.009236935535
738360.41571178066078573465,-5.52680033773817,1.05858536535742,342.046164332001
738360.41571187111549079418,-5.50218207342753,1.13244015828934,342.156946521399
738360.41571196157019585371,-5.45294554480626,1.19398581906593,342.156946521399
738360.41571205202490091324,-5.44063641265094,1.28014974415316,342.181564785709
738360.41571214236319065094,-5.39139988402966,1.32938627277444,342.193873917864
738360.41571223281789571047,-5.37909075187434,1.28014974415316,342.169255653554
738360.41571232327260077000,-5.4160181483403,1.25553147984252,342.193873917864
738360.41571241372730582952,-5.4775638091169,1.14474929044465,342.169255653554
738360.41571250418201088905,-5.53910946989349,1.00934883673615,342.181564785709
738360.41571259463671594858,-5.57603686635945,0.886257515182958,342.107709992777
738360.41571268497500568628,-5.64989165929136,0.775475325785089,342.107709992777
738360.41571277542971074581,-5.69912818791264,0.689311400697857,342.107709992777
738360.41571286588441580534,-5.73605558437859,0.664693136387219,342.095400860622
738360.41571295633912086487,-5.73605558437859,0.615456607765943,342.083091728467
738360.41571304679382592440,-5.76067384868923,0.590838343455306,342.107709992777
738360.41571313724853098392,-5.78529211299987,0.590838343455306,342.083091728467
738360.41571322758682072163,-5.77298298084455,0.578529211299987,342.058473464156
738360.41571331804152578115,-5.78529211299987,0.578529211299987,342.120019124933
738360.41571340849623084068,-5.78529211299987,0.578529211299987,342.083091728467
738360.41571349895093590021,-5.78529211299987,0.566220079144668,342.070782596311
738360.41571358940564095974,-5.79760124515519,0.553910946989349,342.107709992777
738360.41571367986034601927,-5.80991037731051,0.566220079144668,342.120019124933
738360.41571377019863575697,-5.78529211299987,0.553910946989349,342.095400860622
738360.41571386065334081650,-5.79760124515519,0.553910946989349,342.095400860622
738360.41571395110804587603,-5.78529211299987,0.54160181483403,342.02154606769
738360.41571404156275093555,-5.79760124515519,0.566220079144668,342.120019124933
738360.41571413201745599508,-5.78529211299987,0.566220079144668,342.083091728467
738360.41571422247216105461,-5.79760124515519,0.566220079144668,342.120019124933
738360.41571431281045079231,-5.77298298084455,0.566220079144668,342.009236935535
738360.41571440326515585184,-5.77298298084455,0.566220079144668,342.046164332001
738360.41571449371986091137,-5.78529211299987,0.54160181483403,342.02154606769
738360.41571458417456597090,-5.77298298084455,0.578529211299987,342.033855199845
738360.41571467462927103043,-5.78529211299987,0.578529211299987,342.033855199845
738360.41571476508397608995,-5.77298298084455,0.553910946989349,342.083091728467
738360.41571485542226582766,-5.78529211299987,0.566220079144668,342.144637389243
738360.41571494587697088718,-5.79760124515519,0.553910946989349,342.058473464156
738360.41571503633167594671,-5.78529211299987,0.578529211299987,342.107709992777
738360.41571512678638100624,-5.78529211299987,0.553910946989349,342.107709992777
738360.41571521724108606577,-5.79760124515519,0.566220079144668,341.960000406913
738360.41571530757937580347,-5.77298298084455,0.566220079144668,341.996927803379
738360.41571539803408086300,-5.79760124515519,0.54160181483403,342.095400860622
738360.41571548848878592253,-5.80991037731051,0.54160181483403,342.132328257088
738360.41571557894349098206,-5.80991037731051,0.54160181483403,342.009236935535
738360.41571566939819604158,-5.78529211299987,0.54160181483403,341.984618671224
738360.41571575985290110111,-5.79760124515519,0.553910946989349,342.033855199845
738360.41571585019119083881,-5.79760124515519,0.553910946989349,342.083091728467
738360.41571594064589589834,-5.80991037731051,0.529292682678711,342.132328257088
738360.41571603110060095787,-5.80991037731051,0.516983550523392,342.095400860622
738360.41571612155530601740,-5.80991037731051,0.553910946989349,342.046164332001
738360.41571621201001107693,-5.79760124515519,0.566220079144668,342.095400860622
738360.41571630246471613646,-5.79760124515519,0.553910946989349,342.095400860622
738360.41571639280300587416,-5.80991037731051,0.54160181483403,342.070782596311
738360.41571648325771093369,-5.79760124515519,0.553910946989349,342.058473464156
738360.41571657371241599321,-5.79760124515519,0.54160181483403,342.095400860622
738360.41571666416712105274,-5.80991037731051,0.529292682678711,342.107709992777
738360.41571675462182611227,-5.80991037731051,0.566220079144668,342.058473464156
738360.41571684507653117180,-5.79760124515519,0.54160181483403,342.083091728467
738360.41571693541482090950,-5.80991037731051,0.553910946989349,342.144637389243
738360.41571702586952596903,-5.80991037731051,0.553910946989349,341.996927803379
738360.41571711632423102856,-5.82221950946582,0.529292682678711,342.120019124933
738360.41571720677893608809,-5.80991037731051,0.54160181483403,342.132328257088
738360.41571729723364114761,-5.82221950946582,0.54160181483403,342.107709992777
738360.41571738768834620714,-5.80991037731051,0.54160181483403,342.095400860622
738360.41571747802663594484,-5.80991037731051,0.553910946989349,342.132328257088
738360.41571756848134100437,-5.80991037731051,0.553910946989349,342.033855199845
738360.41571765893604606390,-5.80991037731051,0.54160181483403,342.058473464156
738360.41571774939075112343,-5.78529211299987,0.54160181483403,342.02154606769
738360.41571783984545618296,-5.80991037731051,0.529292682678711,342.046164332001
738360.41571793030016124249,-5.82221950946582,0.516983550523392,342.058473464156
738360.41571802063845098019,-5.78529211299987,0.529292682678711,341.960000406913
738360.41571811109315603971,-5.78529211299987,0.516983550523392,342.009236935535
738360.41571820154786109924,-5.74836471653391,0.516983550523392,341.935382142603
738360.41571829200256615877,-5.72374645222327,0.603147475610625,342.033855199845
738360.41571838245727121830,-5.69912818791264,0.615456607765943,342.120019124933
738360.41571847291197627783,-5.71143732006795,0.615456607765943,342.095400860622
738360.41571856325026601553,-5.73605558437859,0.615456607765943,342.058473464156
738360.41571865370497107506,-5.78529211299987,0.566220079144668,342.095400860622
738360.41571874415967613459,-5.78529211299987,0.578529211299987,341.972309539069
738360.41571883461438119411,-5.79760124515519,0.553910946989349,341.984618671224
738360.41571892506908625364,-5.80991037731051,0.578529211299987,342.107709992777
738360.41571901540737599134,-5.82221950946582,0.566220079144668,342.156946521399
738360.41571910586208105087,-5.80991037731051,0.54160181483403,342.107709992777
738360.41571919631678611040,-5.83452864162114,0.54160181483403,342.046164332001
738360.41571928677149116993,-5.83452864162114,0.553910946989349,342.033855199845
738360.41571937722619622946,-5.82221950946582,0.553910946989349,342.033855199845
738360.41571946768090128899,-5.84683777377646,0.578529211299987,342.033855199845
738360.41571955801919102669,-5.79760124515519,0.566220079144668,342.046164332001
738360.41571964847389608622,-5.66220079144668,0.87394838302764,342.169255653554
738360.41571973892860114574,-5.30523595894243,1.46478672648295,342.218492182175
738360.41571982938330620527,-5.18214463738924,1.77251503036592,342.193873917864
738360.41571991983801126480,-5.34216335540839,1.48940499079358,342.120019124933
738360.41572001029271632433,-5.63758252713604,0.6523840042319,342.009236935535
738360.41572010063100606203,-5.83452864162114,0.553910946989349,342.02154606769
738360.41572019108571112156,-5.88376517024242,0.689311400697857,342.193873917864
738360.41572028154041618109,-5.79760124515519,0.677002268542538,342.156946521399
738360.41572037199512124062,-5.79760124515519,0.615456607765943,342.046164332001
738360.41572046244982630014,-5.79760124515519,0.578529211299987,342.009236935535
738360.41572055290453135967,-5.79760124515519,0.615456607765943,342.107709992777
738360.41572064324282109737,-5.79760124515519,0.615456607765943,342.058473464156
738360.41572073369752615690,-5.77298298084455,0.615456607765943,342.046164332001
738360.41572082415223121643,-5.78529211299987,0.627765739921262,342.095400860622
738360.41572091460693627596,-5.78529211299987,0.615456607765943,342.095400860622
738360.41572100506164133549,-5.78529211299987,0.627765739921262,342.095400860622
738360.41572109551634639502,-5.78529211299987,0.615456607765943,342.120019124933
738360.41572118585463613272,-5.79760124515519,0.627765739921262,342.107709992777
738360.41572127630934119225,-5.77298298084455,0.640074872076581,342.058473464156
738360.41572136676404625177,-5.77298298084455,0.6523840042319,342.058473464156
738360.41572145721875131130,-5.76067384868923,0.640074872076581,342.083091728467
738360.41572154767345637083,-5.76067384868923,0.677002268542538,342.083091728467
738360.41572163812816143036,-5.76067384868923,0.689311400697857,342.095400860622
738360.41572172846645116806,-5.73605558437859,0.689311400697857,342.144637389243
738360.41572181892115622759,-5.72374645222327,0.713929665008494,342.070782596311
738360.41572190937586128712,-5.69912818791264,0.750857061474451,342.070782596311
738360.41572199983056634665,-5.69912818791264,0.775475325785089,342.095400860622
738360.41572209028527140617,-5.66220079144668,0.800093590095726,342.144637389243
738360.41572218073997646570,-5.66220079144668,0.87394838302764,342.169255653554
738360.41572227107826620340,-5.6129642628254,0.923184911648915,342.083091728467
738360.41572236153297126293,-5.57603686635945,1.00934883673615,341.984618671224
738360.41572245198767632246,-5.53910946989349,1.09551276182338,342.120019124933
738360.41572254244238138199,-5.50218207342753,1.16936755475529,342.169255653554
738360.41572263289708644152,-5.46525467696158,1.24322234768721,342.243110446486
738360.41572272335179150105,-5.42832728049562,1.31707714061912,342.181564785709
738360.41572281369008123875,-5.37909075187434,1.35400453708508,342.070782596311
738360.41572290414478629827,-5.39139988402966,1.31707714061912,342.144637389243
738360.41572299459949135780,-5.42832728049562,1.21860408337657,342.107709992777
738360.41572308505419641733,-5.51449120558285,1.07089449751274,342.083091728467
738360.41572317550890147686,-5.56372773420413,0.947803175959553,342.095400860622
738360.41572326584719121456,-5.64989165929136,0.837020986561683,342.144637389243
738360.41572335630189627409,-5.674509923602,0.750857061474451,342.144637389243
738360.41572344675660133362,-5.72374645222327,0.689311400697857,342.095400860622
738360.41572353721130639315,-5.73605558437859,0.677002268542538,342.070782596311
738360.41572362766601145267,-5.76067384868923,0.615456607765943,342.083091728467
738360.41572371812071651220,-5.79760124515519,0.615456607765943,342.120019124933
738360.41572380845900624990,-5.77298298084455,0.590838343455306,342.070782596311
738360.41572389891371130943,-5.79760124515519,0.603147475610625,342.107709992777
738360.41572398936841636896,-5.79760124515519,0.578529211299987,342.107709992777
738360.41572407982312142849,-5.80991037731051,0.603147475610625,342.107709992777
738360.41572417027782648802,-5.77298298084455,0.603147475610625,342.095400860622
738360.41572426073253154755,-5.79760124515519,0.590838343455306,342.095400860622
738360.41572435107082128525,-5.79760124515519,0.566220079144668,342.144637389243
738360.41572444152552634478,-5.79760124515519,0.566220079144668,342.070782596311
738360.41572453198023140430,-5.80991037731051,0.578529211299987,342.107709992777
738360.41572462243493646383,-5.80991037731051,0.566220079144668,342.144637389243
738360.41572471288964152336,-5.80991037731051,0.578529211299987,342.070782596311
738360.41572480334434658289,-5.80991037731051,0.578529211299987,342.132328257088
738360.41572489368263632059,-5.79760124515519,0.590838343455306,342.132328257088
738360.41572498413734138012,-5.78529211299987,0.590838343455306,342.046164332001
738360.41572507459204643965,-5.76067384868923,0.615456607765943,342.009236935535
738360.41572516504675149918,-5.77298298084455,0.590838343455306,342.009236935535
738360.41572525550145655870,-5.80991037731051,0.578529211299987,342.02154606769
738360.41572534595616161823,-5.79760124515519,0.603147475610625,341.996927803379
738360.41572543629445135593,-5.80991037731051,0.603147475610625,342.02154606769
738360.41572552674915641546,-5.79760124515519,0.590838343455306,342.009236935535
738360.41572561720386147499,-5.82221950946582,0.590838343455306,342.033855199845
738360.41572570765856653452,-5.80991037731051,0.578529211299987,342.033855199845
738360.41572579811327159405,-5.80991037731051,0.578529211299987,341.984618671224
738360.41572588856797665358,-5.79760124515519,0.578529211299987,341.886145613982
738360.41572597890626639128,-5.80991037731051,0.578529211299987,342.070782596311
738360.41572606936097145081,-5.79760124515519,0.603147475610625,342.046164332001
738360.41572615981567651033,-5.83452864162114,0.578529211299987,342.033855199845
738360.41572625027038156986,-5.82221950946582,0.566220079144668,342.120019124933
738360.41572634072508662939,-5.83452864162114,0.566220079144668,342.120019124933
738360.41572643117979168892,-5.79760124515519,0.590838343455306,342.046164332001
738360.41572652151808142662,-5.80991037731051,0.566220079144668,342.033855199845
738360.41572661197278648615,-5.83452864162114,0.553910946989349,342.070782596311
738360.41572670242749154568,-5.82221950946582,0.566220079144668,342.046164332001
738360.41572679288219660521,-5.82221950946582,0.553910946989349,342.107709992777
738360.41572688333690166473,-5.82221950946582,0.578529211299987,342.107709992777
738360.41572697367519140244,-5.82221950946582,0.578529211299987,342.120019124933
738360.41572706412989646196,-5.82221950946582,0.566220079144668,342.083091728467
738360.41572715458460152149,-5.84683777377646,0.566220079144668,342.107709992777
738360.41572724503930658102,-5.83452864162114,0.578529211299987,342.095400860622
738360.41572733549401164055,-5.82221950946582,0.553910946989349,342.107709992777
738360.41572742594871670008,-5.82221950946582,0.566220079144668,342.070782596311
738360.41572751628700643778,-5.83452864162114,0.553910946989349,342.107709992777
738360.41572760674171149731,-5.83452864162114,0.578529211299987,342.107709992777
738360.41572769719641655684,-5.83452864162114,0.54160181483403,342.070782596311
738360.41572778765112161636,-5.83452864162114,0.566220079144668,342.107709992777
738360.41572787810582667589,-5.80991037731051,0.566220079144668,342.107709992777
738360.41572796856053173542,-5.83452864162114,0.566220079144668,342.058473464156
738360.41572805889882147312,-5.83452864162114,0.54160181483403,342.132328257088
738360.41572814935352653265,-5.83452864162114,0.578529211299987,342.120019124933
738360.41572823980823159218,-5.83452864162114,0.553910946989349,342.070782596311
738360.41572833026293665171,-5.85914690593178,0.54160181483403,342.083091728467
738360.41572842071764171124,-5.82221950946582,0.516983550523392,342.058473464156
738360.41572851117234677076,-5.80991037731051,0.566220079144668,342.144637389243
738360.41572860151063650846,-5.78529211299987,0.553910946989349,341.996927803379
738360.41572869196534156799,-5.76067384868923,0.553910946989349,342.046164332001
738360.41572878242004662752,-5.72374645222327,0.627765739921262,341.886145613982
738360.41572887287475168705,-5.73605558437859,0.615456607765943,342.02154606769
738360.41572896332945674658,-5.74836471653391,0.627765739921262,342.046164332001
738360.41572905378416180611,-5.76067384868923,0.627765739921262,342.070782596311
738360.41572914412245154381,-5.77298298084455,0.603147475610625,342.070782596311
738360.41572923457715660334,-5.80991037731051,0.566220079144668,342.070782596311
738360.41572932503186166286,-5.84683777377646,0.590838343455306,342.083091728467
738360.41572941548656672239,-5.83452864162114,0.578529211299987,341.960000406913
738360.41572950594127178192,-5.83452864162114,0.578529211299987,342.070782596311
738360.41572959639597684145,-5.84683777377646,0.578529211299987,342.107709992777
738360.41572968673426657915,-5.8714560380871,0.578529211299987,342.169255653554
738360.41572977718897163868,-5.84683777377646,0.553910946989349,342.070782596311
738360.41572986764367669821,-5.83452864162114,0.553910946989349,342.095400860622
738360.41572995809838175774,-5.85914690593178,0.590838343455306,342.144637389243
738360.41573004855308681726,-5.8714560380871,0.578529211299987,342.144637389243
738360.41573013900779187679,-5.74836471653391,0.750857061474451,342.132328257088
738360.41573022934608161449,-5.4160181483403,1.3047680084638,342.20618305002
738360.41573031980078667402,-5.15752637307861,1.92022461622974,342.193873917864
738360.41573041025549173355,-5.45294554480626,1.36631366924039,342.132328257088
738360.41573050071019679308,-5.72374645222327,0.603147475610625,342.132328257088
738360.41573059116490185261,-5.89607430239774,0.615456607765943,342.280037842952
738360.41573068150319159031,-5.84683777377646,0.738547929319132,342.378510900194
738360.41573077195789664984,-5.80991037731051,0.701620532853175,342.23080131433
738360.41573086241260170937,-5.82221950946582,0.627765739921262,342.070782596311
738360.41573095286730676889,-5.83452864162114,0.615456607765943,342.132328257088
738360.41573104332201182842,-5.83452864162114,0.627765739921262,342.107709992777
738360.41573113377671688795,-5.83452864162114,0.603147475610625,342.058473464156
738360.41573122411500662565,-5.82221950946582,0.640074872076581,342.095400860622
738360.41573131456971168518,-5.79760124515519,0.627765739921262,342.046164332001
738360.41573140502441674471,-5.80991037731051,0.627765739921262,342.058473464156
738360.41573149547912180424,-5.79760124515519,0.640074872076581,342.046164332001
738360.41573158593382686377,-5.80991037731051,0.640074872076581,342.156946521399
738360.41573167638853192329,-5.79760124515519,0.677002268542538,342.144637389243
738360.41573176672682166100,-5.82221950946582,0.640074872076581,342.156946521399
738360.41573185718152672052,-5.79760124515519,0.6523840042319,342.132328257088
738360.41573194763623178005,-5.79760124515519,0.677002268542538,342.070782596311
738360.41573203809093683958,-5.78529211299987,0.664693136387219,342.107709992777
738360.41573212854564189911,-5.77298298084455,0.689311400697857,342.02154606769
738360.41573221900034695864,-5.76067384868923,0.713929665008494,342.02154606769
738360.41573230933863669634,-5.77298298084455,0.713929665008494,342.083091728467
738360.41573239979334175587,-5.73605558437859,0.750857061474451,342.107709992777
738360.41573249024804681540,-5.71143732006795,0.800093590095726,342.095400860622
738360.41573258070275187492,-5.69912818791264,0.837020986561683,342.058473464156
738360.41573267115745693445,-5.674509923602,0.886257515182958,342.070782596311
738360.41573276161216199398,-5.64989165929136,0.960112308114872,342.120019124933
738360.41573285195045173168,-5.60065513067009,1.00934883673615,342.058473464156
738360.41573294240515679121,-5.56372773420413,1.07089449751274,341.960000406913
738360.41573303285986185074,-5.53910946989349,1.16936755475529,342.144637389243
738360.41573312331456691027,-5.50218207342753,1.24322234768721,342.218492182175
738360.41573321376927196980,-5.42832728049562,1.31707714061912,342.218492182175
738360.41573330422397702932,-5.4160181483403,1.34169540492976,342.181564785709
738360.41573339456226676702,-5.4160181483403,1.34169540492976,342.169255653554
738360.41573348501697182655,-5.42832728049562,1.24322234768721,342.169255653554
738360.41573357547167688608,-5.51449120558285,1.15705842259997,342.181564785709
738360.41573366592638194561,-5.60065513067009,0.997039704580828,342.120019124933
738360.41573375638108700514,-5.64989165929136,0.886257515182958,342.095400860622
738360.41573384683579206467,-5.71143732006795,0.787784457940408,342.095400860622
738360.41573393717408180237,-5.74836471653391,0.701620532853175,342.095400860622
738360.41573402762878686190,-5.77298298084455,0.677002268542538,342.095400860622
738360.41573411808349192142,-5.78529211299987,0.640074872076581,342.070782596311
738360.41573420853819698095,-5.79760124515519,0.615456607765943,342.095400860622
738360.41573429899290204048,-5.83452864162114,0.603147475610625,342.132328257088
738360.41573438944760710001,-5.80991037731051,0.615456607765943,341.996927803379
738360.41573447978589683771,-5.80991037731051,0.615456607765943,342.046164332001
738360.41573457024060189724,-5.80991037731051,0.615456607765943,342.058473464156
738360.41573466069530695677,-5.84683777377646,0.603147475610625,342.058473464156
738360.41573475115001201630,-5.84683777377646,0.590838343455306,342.070782596311
738360.41573484160471707582,-5.83452864162114,0.615456607765943,342.083091728467
738360.41573493194300681353,-5.84683777377646,0.590838343455306,342.120019124933
738360.41573502239771187305,-5.83452864162114,0.566220079144668,342.083091728467
738360.41573511285241693258,-5.83452864162114,0.603147475610625,342.009236935535
738360.41573520330712199211,-5.82221950946582,0.578529211299987,342.058473464156
738360.41573529376182705164,-5.82221950946582,0.590838343455306,342.107709992777
738360.41573538421653211117,-5.83452864162114,0.590838343455306,342.144637389243
738360.41573547455482184887,-5.82221950946582,0.603147475610625,342.058473464156
738360.41573556500952690840,-5.80991037731051,0.603147475610625,342.033855199845
738360.41573565546423196793,-5.80991037731051,0.603147475610625,342.02154606769
738360.41573574591893702745,-5.84683777377646,0.590838343455306,341.984618671224
738360.41573583637364208698,-5.82221950946582,0.603147475610625,342.02154606769
738360.41573592682834714651,-5.82221950946582,0.615456607765943,342.009236935535
738360.41573601716663688421,-5.82221950946582,0.603147475610625,342.095400860622
738360.41573610762134194374,-5.80991037731051,0.603147475610625,342.033855199845
738360.41573619807604700327,-5.83452864162114,0.578529211299987,342.107709992777
738360.41573628853075206280,-5.82221950946582,0.590838343455306,342.083091728467
738360.41573637898545712233,-5.83452864162114,0.590838343455306,341.83690908536
738360.41573646944016218185,-5.84683777377646,0.590838343455306,341.984618671224
738360.41573655977845191956,-5.84683777377646,0.590838343455306,342.095400860622
738360.41573665023315697908,-5.84683777377646,0.578529211299987,342.156946521399
738360.41573674068786203861,-5.85914690593178,0.603147475610625,342.070782596311
738360.41573683114256709814,-5.84683777377646,0.603147475610625,342.107709992777
738360.41573692159727215767,-5.84683777377646,0.578529211299987,342.058473464156
738360.41573701205197721720,-5.85914690593178,0.566220079144668,342.033855199845
738360.41573710239026695490,-5.84683777377646,0.553910946989349,342.02154606769
738360.41573719284497201443,-5.85914690593178,0.566220079144668,342.095400860622
738360.41573728329967707396,-5.84683777377646,0.566220079144668,342.02154606769
738360.41573737375438213348,-5.85914690593178,0.553910946989349,342.009236935535
738360.41573746420908719301,-5.85914690593178,0.578529211299987,342.009236935535
738360.41573755466379225254,-5.85914690593178,0.603147475610625,342.083091728467
738360.41573764500208199024,-5.84683777377646,0.566220079144668,342.033855199845
738360.41573773545678704977,-5.85914690593178,0.578529211299987,342.083091728467
738360.41573782591149210930,-5.85914690593178,0.566220079144668,342.070782596311
738360.41573791636619716883,-5.8714560380871,0.566220079144668,342.046164332001
738360.41573800682090222836,-5.8714560380871,0.553910946989349,342.107709992777
738360.41573809727560728788,-5.85914690593178,0.566220079144668,342.083091728467
738360.41573818761389702559,-5.83452864162114,0.529292682678711,342.095400860622
738360.41573827806860208511,-5.85914690593178,0.603147475610625,342.107709992777
738360.41573836852330714464,-5.85914690593178,0.566220079144668,341.935382142603
738360.41573845897801220417,-5.85914690593178,0.566220079144668,342.009236935535
738360.41573854943271726370,-5.8714560380871,0.578529211299987,342.132328257088
738360.41573863977100700140,-5.8714560380871,0.553910946989349,342.009236935535
738360.41573873022571206093,-5.8714560380871,0.578529211299987,342.02154606769
738360.41573882068041712046,-5.8714560380871,0.553910946989349,341.947691274758
738360.41573891113512217999,-5.8714560380871,0.54160181483403,342.009236935535
738360.41573900158982723951,-5.82221950946582,0.553910946989349,341.996927803379
738360.41573909204453229904,-5.83452864162114,0.553910946989349,341.984618671224
738360.41573918238282203674,-5.80991037731051,0.504674418368074,341.923073010448
738360.41573927283752709627,-5.78529211299987,0.553910946989349,341.910763878292
738360.41573936329223215580,-5.76067384868923,0.640074872076581,341.996927803379
738360.41573945374693721533,-5.73605558437859,0.627765739921262,342.058473464156
738360.41573954420164227486,-5.76067384868923,0.664693136387219,342.083091728467
738360.41573963465634733438,-5.78529211299987,0.6523840042319,342.132328257088
738360.41573972499463707209,-5.83452864162114,0.603147475610625,342.095400860622
738360.41573981544934213161,-5.84683777377646,0.566220079144668,342.046164332001
738360.41573990590404719114,-5.8714560380871,0.566220079144668,341.923073010448
738360.41573999635875225067,-5.85914690593178,0.553910946989349,341.984618671224
738360.41574008681345731020,-5.8714560380871,0.566220079144668,342.058473464156
738360.41574017726816236973,-5.84683777377646,0.566220079144668,342.070782596311
738360.41574026760645210743,-5.84683777377646,0.516983550523392,342.095400860622
738360.41574035806115716696,-5.8714560380871,0.566220079144668,342.120019124933
738360.41574044851586222649,-5.88376517024242,0.590838343455306,342.132328257088
738360.41574053897056728601,-5.88376517024242,0.590838343455306,342.083091728467
738360.41574062942527234554,-5.88376517024242,0.566220079144668,342.070782596311
738360.41574071987997740507,-5.80991037731051,0.689311400697857,342.02154606769
738360.41574081021826714277,-5.55141860204881,1.13244015828934,342.107709992777
738360.41574090067297220230,-5.20676290169988,1.83406069114251,342.169255653554
738360.41574099112767726183,-5.39139988402966,1.60018718019145,342.046164332001
738360.41574108158238232136,-5.69912818791264,0.750857061474451,342.009236935535
738360.41574117203708738089,-5.90838343455306,0.566220079144668,342.144637389243
738360.41574126249179244041,-5.90838343455306,0.726238797163813,342.243110446486
738360.41574135283008217812,-5.82221950946582,0.713929665008494,342.181564785709
738360.41574144328478723764,-5.82221950946582,0.640074872076581,342.107709992777
738360.41574153373949229717,-5.83452864162114,0.627765739921262,342.083091728467
738360.41574162419419735670,-5.83452864162114,0.627765739921262,342.058473464156
738360.41574171464890241623,-5.85914690593178,0.578529211299987,342.009236935535
738360.41574180510360747576,-5.8714560380871,0.627765739921262,342.070782596311
738360.41574189544189721346,-5.84683777377646,0.627765739921262,342.046164332001
738360.41574198589660227299,-5.84683777377646,0.640074872076581,342.107709992777
738360.41574207635130733252,-5.82221950946582,0.615456607765943,342.083091728467
738360.41574216680601239204,-5.84683777377646,0.640074872076581,342.107709992777
738360.41574225726071745157,-5.80991037731051,0.6523840042319,342.070782596311
738360.41574234759900718927,-5.82221950946582,0.627765739921262,342.058473464156
738360.41574243805371224880,-5.80991037731051,0.701620532853175,342.058473464156
738360.41574252850841730833,-5.80991037731051,0.677002268542538,342.120019124933
738360.41574261896312236786,-5.82221950946582,0.664693136387219,342.120019124933
738360.41574270941782742739,-5.80991037731051,0.677002268542538,342.009236935535
738360.41574279987253248692,-5.80991037731051,0.689311400697857,342.095400860622
738360.41574289021082222462,-5.77298298084455,0.713929665008494,342.058473464156
738360.41574298066552728415,-5.77298298084455,0.738547929319132,342.095400860622
738360.41574307112023234367,-5.74836471653391,0.750857061474451,342.058473464156
738360.41574316157493740320,-5.73605558437859,0.787784457940408,342.095400860622
738360.41574325202964246273,-5.71143732006795,0.837020986561683,342.144637389243
738360.41574334248434752226,-5.68681905575732,0.923184911648915,342.095400860622
738360.41574343282263725996,-5.63758252713604,0.997039704580828,341.861527349671
738360.41574352327734231949,-5.60065513067009,1.08320362966806,341.984618671224
738360.41574361373204737902,-5.53910946989349,1.15705842259997,342.107709992777
738360.41574370418675243855,-5.48987294127221,1.23091321553189,342.132328257088
738360.41574379464145749807,-5.46525467696158,1.3047680084638,342.095400860622
738360.41574388509616255760,-5.45294554480626,1.32938627277444,342.132328257088
738360.41574397543445229530,-5.45294554480626,1.32938627277444,342.156946521399
738360.41574406588915735483,-5.45294554480626,1.26784061199784,342.156946521399
738360.41574415634386241436,-5.53910946989349,1.15705842259997,342.132328257088
738360.41574424679856747389,-5.58834599851477,1.02165796889147,342.095400860622
738360.41574433725327253342,-5.66220079144668,0.910875779493596,342.144637389243
738360.41574442770797759295,-5.69912818791264,0.800093590095726,342.083091728467
738360.41574451804626733065,-5.76067384868923,0.713929665008494,342.120019124933
738360.41574460850097239017,-5.76067384868923,0.664693136387219,342.107709992777
738360.41574469895567744970,-5.80991037731051,0.664693136387219,342.070782596311
738360.41574478941038250923,-5.79760124515519,0.615456607765943,342.070782596311
738360.41574487986508756876,-5.84683777377646,0.615456607765943,342.120019124933
738360.41574497031979262829,-5.83452864162114,0.615456607765943,342.058473464156
738360.41574506065808236599,-5.84683777377646,0.603147475610625,342.095400860622
738360.41574515111278742552,-5.8714560380871,0.578529211299987,342.070782596311
738360.41574524156749248505,-5.83452864162114,0.578529211299987,342.046164332001
738360.41574533202219754457,-5.83452864162114,0.615456607765943,342.058473464156
738360.41574542247690260410,-5.85914690593178,0.578529211299987,342.095400860622
738360.41574551293160766363,-5.85914690593178,0.590838343455306,342.132328257088
738360.41574560326989740133,-5.84683777377646,0.603147475610625,342.120019124933
738360.41574569372460246086,-5.85914690593178,0.590838343455306,342.046164332001
738360.41574578417930752039,-5.84683777377646,0.578529211299987,342.009236935535
738360.41574587463401257992,-5.84683777377646,0.578529211299987,342.009236935535
738360.41574596508871763945,-5.84683777377646,0.590838343455306,342.02154606769
738360.41574605554342269897,-5.88376517024242,0.578529211299987,342.02154606769
738360.41574614588171243668,-5.84683777377646,0.578529211299987,342.009236935535
738360.41574623633641749620,-5.85914690593178,0.590838343455306,342.046164332001
738360.41574632679112255573,-5.83452864162114,0.603147475610625,342.058473464156
738360.41574641724582761526,-5.83452864162114,0.603147475610625,342.046164332001
738360.41574650770053267479,-5.84683777377646,0.590838343455306,342.009236935535
738360.41574659803882241249,-5.85914690593178,0.578529211299987,342.033855199845
738360.41574668849352747202,-5.85914690593178,0.590838343455306,342.058473464156
738360.41574677894823253155,-5.84683777377646,0.590838343455306,341.996927803379
738360.41574686940293759108,-5.85914690593178,0.590838343455306,342.033855199845
738360.41574695985764265060,-5.85914690593178,0.578529211299987,341.910763878292
738360.41574705031234771013,-5.85914690593178,0.590838343455306,341.935382142603
738360.41574714065063744783,-5.84683777377646,0.590838343455306,341.972309539069
738360.41574723110534250736,-5.8714560380871,0.578529211299987,342.070782596311
738360.41574732156004756689,-5.85914690593178,0.566220079144668,342.046164332001
738360.41574741201475262642,-5.85914690593178,0.553910946989349,342.058473464156
738360.41574750246945768595,-5.88376517024242,0.566220079144668,342.095400860622
738360.41574759292416274548,-5.8714560380871,0.590838343455306,342.070782596311
738360.41574768326245248318,-5.85914690593178,0.578529211299987,341.972309539069
738360.41574777371715754271,-5.88376517024242,0.553910946989349,342.009236935535
738360.41574786417186260223,-5.8714560380871,0.566220079144668,341.947691274758
738360.41574795462656766176,-5.85914690593178,0.553910946989349,342.009236935535
738360.41574804508127272129,-5.88376517024242,0.566220079144668,341.984618671224
738360.41574813553597778082,-5.88376517024242,0.566220079144668,341.984618671224
738360.41574822587426751852,-5.8714560380871,0.578529211299987,342.046164332001
738360.41574831632897257805,-5.8714560380871,0.566220079144668,342.058473464156
738360.41574840678367763758,-5.8714560380871,0.566220079144668,342.046164332001
738360.41574849723838269711,-5.8714560380871,0.566220079144668,342.058473464156
738360.41574858769308775663,-5.88376517024242,0.54160181483403,342.083091728467
738360.41574867814779281616,-5.89607430239774,0.553910946989349,342.009236935535
738360.41574876848608255386,-5.88376517024242,0.54160181483403,342.095400860622
738360.41574885894078761339,-5.85914690593178,0.578529211299987,342.095400860622
738360.41574894939549267292,-5.92069256670838,0.553910946989349,342.058473464156
738360.41574903985019773245,-5.88376517024242,0.553910946989349,342.009236935535
738360.41574913030490279198,-5.85914690593178,0.566220079144668,342.107709992777
738360.41574922075960785151,-5.85914690593178,0.566220079144668,342.070782596311
738360.41574931109789758921,-5.8714560380871,0.553910946989349,342.009236935535
738360.41574940155260264874,-5.8714560380871,0.553910946989349,342.058473464156
738360.41574949200730770826,-5.8714560380871,0.553910946989349,342.070782596311
738360.41574958246201276779,-5.84683777377646,0.54160181483403,341.935382142603
738360.41574967291671782732,-5.84683777377646,0.529292682678711,341.910763878292
738360.41574976337142288685,-5.83452864162114,0.529292682678711,341.910763878292
738360.41574985370971262455,-5.80991037731051,0.590838343455306,341.960000406913
738360.41574994416441768408,-5.76067384868923,0.640074872076581,341.972309539069
738360.41575003461912274361,-5.78529211299987,0.627765739921262,342.009236935535
738360.41575012507382780313,-5.79760124515519,0.615456607765943,342.058473464156
738360.41575021552853286266,-5.85914690593178,0.590838343455306,341.923073010448
738360.41575030586682260036,-5.8714560380871,0.590838343455306,342.058473464156
738360.41575039632152765989,-5.85914690593178,0.553910946989349,342.070782596311
738360.41575048677623271942,-5.88376517024242,0.578529211299987,341.972309539069
738360.41575057723093777895,-5.8714560380871,0.578529211299987,341.923073010448
738360.41575066768564283848,-5.89607430239774,0.566220079144668,342.107709992777
738360.41575075814034789801,-5.90838343455306,0.553910946989349,342.083091728467
738360.41575084847863763571,-5.90838343455306,0.553910946989349,342.033855199845
738360.41575093893334269524,-5.89607430239774,0.566220079144668,342.070782596311
738360.41575102938804775476,-5.93300169886369,0.566220079144668,342.046164332001
738360.41575111984275281429,-5.8714560380871,0.578529211299987,341.960000406913
738360.41575121029745787382,-5.72374645222327,0.886257515182958,342.095400860622
738360.41575130075216293335,-5.34216335540839,1.48940499079358,342.095400860622
738360.41575139109045267105,-5.25599943032116,1.89560635191911,342.083091728467
738360.41575148154515773058,-5.57603686635945,1.14474929044465,341.996927803379
738360.41575157199986279011,-5.72374645222327,0.726238797163813,341.996927803379
738360.41575166245456784964,-5.92069256670838,0.553910946989349,342.20618305002
738360.41575175290927290916,-5.92069256670838,0.713929665008494,342.193873917864
738360.41575184336397796869,-5.8714560380871,0.701620532853175,342.193873917864
738360.41575193370226770639,-5.84683777377646,0.627765739921262,342.107709992777
738360.41575202415697276592,-5.85914690593178,0.615456607765943,342.009236935535
738360.41575211461167782545,-5.8714560380871,0.615456607765943,342.009236935535
738360.41575220506638288498,-5.85914690593178,0.627765739921262,342.046164332001
738360.41575229552108794451,-5.85914690593178,0.615456607765943,342.070782596311
738360.41575238597579300404,-5.85914690593178,0.603147475610625,342.095400860622
738360.41575247631408274174,-5.85914690593178,0.627765739921262,342.120019124933
738360.41575256676878780127,-5.85914690593178,0.627765739921262,342.058473464156
738360.41575265722349286079,-5.8714560380871,0.615456607765943,342.107709992777
738360.41575274767819792032,-5.8714560380871,0.6523840042319,342.156946521399
738360.41575283813290297985,-5.85914690593178,0.640074872076581,342.095400860622
738360.41575292858760803938,-5.84683777377646,0.664693136387219,342.132328257088
738360.41575301892589777708,-5.83452864162114,0.677002268542538,342.120019124933
738360.41575310938060283661,-5.82221950946582,0.677002268542538,342.144637389243
738360.41575319983530789614,-5.82221950946582,0.689311400697857,342.095400860622
738360.41575329029001295567,-5.79760124515519,0.689311400697857,342.132328257088
738360.41575338074471801519,-5.80991037731051,0.726238797163813,342.120019124933
738360.41575347119942307472,-5.79760124515519,0.738547929319132,342.107709992777
738360.41575356153771281242,-5.78529211299987,0.750857061474451,342.083091728467
738360.41575365199241787195,-5.76067384868923,0.812402722251045,342.120019124933
738360.41575374244712293148,-5.73605558437859,0.837020986561683,342.169255653554
738360.41575383290182799101,-5.71143732006795,0.923184911648915,342.156946521399
738360.41575392335653305054,-5.66220079144668,0.984730572425509,342.156946521399
738360.41575401369482278824,-5.62527339498072,1.08320362966806,342.132328257088
738360.41575410414952784777,-5.55141860204881,1.16936755475529,342.046164332001
738360.41575419460423290730,-5.52680033773817,1.23091321553189,342.156946521399
738360.41575428505893796682,-5.51449120558285,1.29245887630848,342.218492182175
738360.41575437551364302635,-5.50218207342753,1.32938627277444,342.144637389243
738360.41575446596834808588,-5.4775638091169,1.3047680084638,342.120019124933
738360.41575455630663782358,-5.53910946989349,1.20629495122125,342.132328257088
738360.41575464676134288311,-5.60065513067009,1.07089449751274,342.095400860622
738360.41575473721604794264,-5.66220079144668,0.960112308114872,342.083091728467
738360.41575482767075300217,-5.71143732006795,0.849330118717002,342.046164332001
738360.41575491812545806170,-5.77298298084455,0.738547929319132,342.058473464156
738360.41575500858016312122,-5.82221950946582,0.677002268542538,342.009236935535
738360.41575509891845285892,-5.84683777377646,0.640074872076581,342.02154606769
738360.41575518937315791845,-5.82221950946582,0.615456607765943,342.009236935535
738360.41575527982786297798,-5.84683777377646,0.603147475610625,342.033855199845
738360.41575537028256803751,-5.85914690593178,0.603147475610625,342.033855199845
738360.41575546073727309704,-5.8714560380871,0.578529211299987,342.02154606769
738360.41575555119197815657,-5.88376517024242,0.590838343455306,342.070782596311
738360.41575564153026789427,-5.85914690593178,0.553910946989349,342.033855199845
738360.41575573198497295380,-5.89607430239774,0.578529211299987,342.058473464156
738360.41575582243967801332,-5.8714560380871,0.578529211299987,341.984618671224
738360.41575591289438307285,-5.88376517024242,0.553910946989349,342.02154606769
738360.41575600334908813238,-5.8714560380871,0.590838343455306,342.083091728467
738360.41575609380379319191,-5.88376517024242,0.590838343455306,342.009236935535
738360.41575618414208292961,-5.88376517024242,0.566220079144668,341.984618671224
738360.41575627459678798914,-5.88376517024242,0.553910946989349,342.033855199845
738360.41575636505149304867,-5.8714560380871,0.566220079144668,342.033855199845
738360.41575645550619810820,-5.89607430239774,0.578529211299987,342.046164332001
738360.41575654596090316772,-5.8714560380871,0.566220079144668,342.033855199845
738360.41575663641560822725,-5.8714560380871,0.578529211299987,342.120019124933
738360.41575672675389796495,-5.8714560380871,0.590838343455306,342.083091728467
738360.41575681720860302448,-5.8714560380871,0.566220079144668,342.02154606769
738360.41575690766330808401,-5.8714560380871,0.553910946989349,342.070782596311
738360.41575699811801314354,-5.88376517024242,0.578529211299987,342.120019124933
738360.41575708857271820307,-5.8714560380871,0.566220079144668,341.960000406913
738360.41575717902742326260,-5.8714560380871,0.553910946989349,342.02154606769
738360.41575726936571300030,-5.8714560380871,0.590838343455306,342.120019124933
738360.41575735982041805983,-5.85914690593178,0.553910946989349,342.083091728467
738360.41575745027512311935,-5.88376517024242,0.578529211299987,342.083091728467
738360.41575754072982817888,-5.88376517024242,0.566220079144668,342.009236935535
738360.41575763118453323841,-5.88376517024242,0.578529211299987,341.923073010448
738360.41575772163923829794,-5.88376517024242,0.553910946989349,342.009236935535
738360.41575781197752803564,-5.89607430239774,0.566220079144668,342.107709992777
738360.41575790243223309517,-5.89607430239774,0.54160181483403,342.070782596311
738360.41575799288693815470,-5.88376517024242,0.553910946989349,342.046164332001
738360.41575808334164321423,-5.89607430239774,0.566220079144668,342.058473464156
738360.41575817379634827375,-5.89607430239774,0.54160181483403,341.960000406913
738360.41575826413463801146,-5.89607430239774,0.553910946989349,341.960000406913
738360.41575835458934307098,-5.90838343455306,0.54160181483403,341.996927803379
738360.41575844504404813051,-5.89607430239774,0.553910946989349,342.058473464156
738360.41575853549875319004,-5.89607430239774,0.566220079144668,342.033855199845
738360.41575862595345824957,-5.8714560380871,0.553910946989349,341.996927803379
738360.41575871640816330910,-5.89607430239774,0.54160181483403,341.996927803379
738360.41575880674645304680,-5.89607430239774,0.54160181483403,342.009236935535
738360.41575889720115810633,-5.88376517024242,0.553910946989349,342.033855199845
738360.41575898765586316586,-5.92069256670838,0.54160181483403,342.033855199845
738360.41575907811056822538,-5.90838343455306,0.553910946989349,342.033855199845
738360.41575916856527328491,-5.89607430239774,0.553910946989349,342.033855199845
738360.41575925901997834444,-5.89607430239774,0.566220079144668,342.033855199845
738360.41575934935826808214,-5.90838343455306,0.504674418368074,342.120019124933
738360.41575943981297314167,-5.90838343455306,0.566220079144668,342.058473464156
738360.41575953026767820120,-5.89607430239774,0.54160181483403,341.960000406913
738360.41575962072238326073,-5.88376517024242,0.529292682678711,342.02154606769
738360.41575971117708832026,-5.88376517024242,0.529292682678711,342.046164332001
738360.41575980163179337978,-5.8714560380871,0.529292682678711,341.972309539069
738360.41575989197008311749,-5.83452864162114,0.516983550523392,341.960000406913
738360.41575998242478817701,-5.80991037731051,0.578529211299987,342.009236935535
738360.41576007287949323654,-5.78529211299987,0.615456607765943,341.984618671224
738360.41576016333419829607,-5.78529211299987,0.615456607765943,341.960000406913
738360.41576025378890335560,-5.79760124515519,0.627765739921262,341.972309539069
738360.41576034424360841513,-5.85914690593178,0.590838343455306,341.996927803379
738360.41576043458189815283,-5.85914690593178,0.590838343455306,341.996927803379
738360.41576052503660321236,-5.92069256670838,0.54160181483403,341.984618671224
738360.41576061549130827188,-5.88376517024242,0.566220079144668,341.996927803379
738360.41576070594601333141,-5.90838343455306,0.566220079144668,342.070782596311
738360.41576079640071839094,-5.89607430239774,0.553910946989349,341.996927803379
738360.41576088685542345047,-5.89607430239774,0.566220079144668,341.996927803379
738360.41576097719371318817,-5.89607430239774,0.566220079144668,342.095400860622
738360.41576106764841824770,-5.92069256670838,0.553910946989349,342.070782596311
738360.41576115810312330723,-5.93300169886369,0.54160181483403,341.83690908536
738360.41576124855782836676,-5.89607430239774,0.566220079144668,342.107709992777
738360.41576133901253342628,-5.85914690593178,0.6523840042319,342.156946521399
738360.41576142946723848581,-5.58834599851477,1.1078218939787,342.181564785709
738360.41576151980552822351,-5.24369029816584,1.82175155898719,342.218492182175
738360.41576161026023328304,-5.44063641265094,1.61249631234677,342.107709992777
738360.41576170071493834257,-5.73605558437859,0.775475325785089,342.095400860622
738360.41576179116964340210,-5.93300169886369,0.566220079144668,342.169255653554
738360.41576188162434846163,-5.93300169886369,0.713929665008494,342.304656107262
738360.41576197196263819933,-5.85914690593178,0.713929665008494,342.23080131433
738360.41576206241734325886,-5.8714560380871,0.640074872076581,342.070782596311
738360.41576215287204831839,-5.8714560380871,0.615456607765943,342.107709992777
738360.41576224332675337791,-5.88376517024242,0.627765739921262,342.144637389243
738360.41576233378145843744,-5.8714560380871,0.627765739921262,342.02154606769
738360.41576242423616349697,-5.85914690593178,0.615456607765943,342.107709992777
738360.41576251457445323467,-5.88376517024242,0.590838343455306,342.095400860622
738360.41576260502915829420,-5.88376517024242,0.615456607765943,342.070782596311
738360.41576269548386335373,-5.8714560380871,0.627765739921262,342.033855199845
738360.41576278593856841326,-5.88376517024242,0.640074872076581,342.058473464156
738360.41576287639327347279,-5.8714560380871,0.627765739921262,342.120019124933
738360.41576296684797853231,-5.83452864162114,0.640074872076581,342.033855199845
738360.41576305718626827002,-5.84683777377646,0.664693136387219,342.083091728467
738360.41576314764097332954,-5.83452864162114,0.6523840042319,342.095400860622
738360.41576323809567838907,-5.85914690593178,0.677002268542538,342.144637389243
738360.41576332855038344860,-5.80991037731051,0.664693136387219,342.033855199845
738360.41576341900508850813,-5.82221950946582,0.689311400697857,342.107709992777
738360.41576350945979356766,-5.80991037731051,0.713929665008494,342.132328257088
738360.41576359979808330536,-5.79760124515519,0.738547929319132,342.033855199845
738360.41576369025278836489,-5.78529211299987,0.738547929319132,342.070782596311
738360.41576378070749342442,-5.76067384868923,0.824711854406364,342.107709992777
738360.41576387116219848394,-5.72374645222327,0.87394838302764,341.972309539069
738360.41576396161690354347,-5.68681905575732,0.923184911648915,341.996927803379
738360.41576405207160860300,-5.64989165929136,0.997039704580828,342.02154606769
738360.41576414240989834070,-5.6129642628254,1.08320362966806,342.070782596311
738360.41576423286460340023,-5.57603686635945,1.14474929044465,342.070782596311
738360.41576432331930845976,-5.51449120558285,1.24322234768721,342.095400860622
738360.41576441377401351929,-5.48987294127221,1.3047680084638,342.058473464156
738360.41576450422871857882,-5.46525467696158,1.32938627277444,342.107709992777
738360.41576459468342363834,-5.4775638091169,1.31707714061912,342.107709992777
738360.41576468502171337605,-5.48987294127221,1.28014974415316,341.984618671224
738360.41576477547641843557,-5.55141860204881,1.15705842259997,342.058473464156
738360.41576486593112349510,-5.6129642628254,1.00934883673615,341.972309539069
738360.41576495638582855463,-5.66220079144668,0.935494043804234,342.070782596311
738360.41576504684053361416,-5.72374645222327,0.800093590095726,342.046164332001
738360.41576513729523867369,-5.78529211299987,0.713929665008494,342.083091728467
738360.41576522763352841139,-5.80991037731051,0.677002268542538,342.02154606769
738360.41576531808823347092,-5.79760124515519,0.6523840042319,342.107709992777
738360.41576540854293853045,-5.83452864162114,0.640074872076581,342.070782596311
738360.41576549899764358997,-5.8714560380871,0.590838343455306,342.033855199845
738360.41576558945234864950,-5.8714560380871,0.615456607765943,342.046164332001
738360.41576567990705370903,-5.8714560380871,0.590838343455306,342.107709992777
738360.41576577024534344673,-5.82221950946582,0.640074872076581,342.070782596311
738360.41576586070004850626,-5.88376517024242,0.566220079144668,342.009236935535
738360.41576595115475356579,-5.88376517024242,0.590838343455306,342.058473464156
738360.41576604160945862532,-5.84683777377646,0.603147475610625,342.070782596311
738360.41576613206416368484,-5.88376517024242,0.590838343455306,342.058473464156
738360.41576622240245342255,-5.85914690593178,0.590838343455306,342.070782596311
738360.41576631285715848207,-5.8714560380871,0.603147475610625,342.120019124933
738360.41576640331186354160,-5.84683777377646,0.578529211299987,342.070782596311
738360.41576649376656860113,-5.8714560380871,0.603147475610625,342.095400860622
738360.41576658422127366066,-5.85914690593178,0.603147475610625,342.046164332001
738360.41576667467597872019,-5.85914690593178,0.590838343455306,342.095400860622
738360.41576676501426845789,-5.85914690593178,0.590838343455306,342.058473464156
738360.41576685546897351742,-5.84683777377646,0.590838343455306,342.02154606769
738360.41576694592367857695,-5.85914690593178,0.603147475610625,342.033855199845
738360.41576703637838363647,-5.8714560380871,0.590838343455306,342.033855199845
738360.41576712683308869600,-5.84683777377646,0.615456607765943,342.009236935535
738360.41576721728779375553,-5.83452864162114,0.603147475610625,342.058473464156
738360.41576730762608349323,-5.85914690593178,0.603147475610625,342.070782596311
738360.41576739808078855276,-5.88376517024242,0.578529211299987,341.984618671224
738360.41576748853549361229,-5.8714560380871,0.603147475610625,342.058473464156
738360.41576757899019867182,-5.85914690593178,0.578529211299987,342.046164332001
738360.41576766944490373135,-5.84683777377646,0.590838343455306,342.02154606769
738360.41576775989960879087,-5.85914690593178,0.590838343455306,342.009236935535
738360.41576785023789852858,-5.89607430239774,0.553910946989349,342.058473464156
738360.41576794069260358810,-5.8714560380871,0.578529211299987,342.058473464156
738360.41576803114730864763,-5.8714560380871,0.578529211299987,342.02154606769
738360.41576812160201370716,-5.88376517024242,0.578529211299987,341.81229082105
738360.41576821205671876669,-5.8714560380871,0.566220079144668,341.984618671224
738360.41576830251142382622,-5.8714560380871,0.578529211299987,342.033855199845
738360.41576839284971356392,-5.88376517024242,0.578529211299987,342.058473464156
738360.41576848330441862345,-5.88376517024242,0.566220079144668,341.996927803379
738360.41576857375912368298,-5.88376517024242,0.566220079144668,342.033855199845
738360.41576866421382874250,-5.88376517024242,0.566220079144668,341.996927803379
738360.41576875466853380203,-5.88376517024242,0.566220079144668,341.972309539069
738360.41576884512323886156,-5.88376517024242,0.566220079144668,341.935382142603
738360.41576893546152859926,-5.88376517024242,0.578529211299987,341.960000406913
738360.41576902591623365879,-5.88376517024242,0.578529211299987,341.972309539069
738360.41576911637093871832,-5.89607430239774,0.54160181483403,341.947691274758
738360.41576920682564377785,-5.8714560380871,0.578529211299987,341.960000406913
738360.41576929728034883738,-5.8714560380871,0.553910946989349,341.923073010448
738360.41576938773505389690,-5.89607430239774,0.578529211299987,341.996927803379
738360.41576947807334363461,-5.88376517024242,0.54160181483403,342.02154606769
738360.41576956852804869413,-5.88376517024242,0.566220079144668,342.02154606769
738360.41576965898275375366,-5.8714560380871,0.553910946989349,342.009236935535
738360.41576974943745881319,-5.85914690593178,0.566220079144668,342.033855199845
738360.41576983989216387272,-5.85914690593178,0.54160181483403,341.996927803379
738360.41576993023045361042,-5.84683777377646,0.529292682678711,341.972309539069
738360.41577002068515866995,-5.80991037731051,0.578529211299987,342.02154606769
738360.41577011113986372948,-5.78529211299987,0.640074872076581,342.046164332001
738360.41577020159456878901,-5.76067384868923,0.640074872076581,341.996927803379
738360.41577029204927384853,-5.77298298084455,0.615456607765943,342.009236935535
738360.41577038250397890806,-5.79760124515519,0.640074872076581,342.083091728467
738360.41577047284226864576,-5.83452864162114,0.603147475610625,342.083091728467
738360.41577056329697370529,-5.85914690593178,0.590838343455306,342.046164332001
738360.41577065375167876482,-5.85914690593178,0.578529211299987,342.107709992777
738360.41577074420638382435,-5.89607430239774,0.590838343455306,342.095400860622
738360.41577083466108888388,-5.8714560380871,0.578529211299987,341.984618671224
738360.41577092511579394341,-5.88376517024242,0.578529211299987,342.095400860622
738360.41577101545408368111,-5.89607430239774,0.590838343455306,342.083091728467
738360.41577110590878874063,-5.88376517024242,0.590838343455306,341.984618671224
738360.41577119636349380016,-5.89607430239774,0.590838343455306,341.947691274758
738360.41577128681819885969,-5.89607430239774,0.553910946989349,342.009236935535
738360.41577137727290391922,-5.8714560380871,0.603147475610625,342.009236935535
738360.41577146772760897875,-5.69912818791264,0.935494043804234,342.120019124933
738360.41577155806589871645,-5.32985422325307,1.60018718019145,342.156946521399
738360.41577164852060377598,-5.28061769463179,1.90791548407442,341.984618671224
738360.41577173897530883551,-5.60065513067009,1.07089449751274,341.873836481826
738360.41577182943001389503,-5.88376517024242,0.504674418368074,342.095400860622
738360.41577191988471895456,-5.96992909532965,0.689311400697857,342.267728710796
738360.41577201033942401409,-5.8714560380871,0.750857061474451,342.107709992777
738360.41577210067771375179,-5.84683777377646,0.6523840042319,342.033855199845
738360.41577219113241881132,-5.83452864162114,0.627765739921262,341.996927803379
738360.41577228158712387085,-5.88376517024242,0.6523840042319,342.009236935535
738360.41577237204182893038,-5.85914690593178,0.6523840042319,341.947691274758
738360.41577246249653398991,-5.8714560380871,0.627765739921262,341.996927803379
738360.41577255295123904943,-5.85914690593178,0.615456607765943,342.009236935535
738360.41577264328952878714,-5.8714560380871,0.627765739921262,342.046164332001
738360.41577273374423384666,-5.85914690593178,0.627765739921262,342.046164332001
738360.41577282419893890619,-5.84683777377646,0.6523840042319,342.083091728467
738360.41577291465364396572,-5.85914690593178,0.640074872076581,341.984618671224
738360.41577300510834902525,-5.84683777377646,0.664693136387219,342.083091728467
738360.41577309556305408478,-5.84683777377646,0.677002268542538,342.144637389243
738360.41577318590134382248,-5.85914690593178,0.6523840042319,342.033855199845
738360.41577327635604888201,-5.8714560380871,0.664693136387219,342.033855199845
738360.41577336681075394154,-5.82221950946582,0.689311400697857,342.070782596311
738360.41577345726545900106,-5.84683777377646,0.689311400697857,342.107709992777
738360.41577354772016406059,-5.79760124515519,0.701620532853175,342.009236935535
738360.41577363805845379829,-5.79760124515519,0.738547929319132,342.144637389243
738360.41577372851315885782,-5.77298298084455,0.76316619362977,342.095400860622
738360.41577381896786391735,-5.77298298084455,0.800093590095726,342.107709992777
738360.41577390942256897688,-5.73605558437859,0.837020986561683,342.070782596311
738360.41577399987727403641,-5.74836471653391,0.87394838302764,342.095400860622
738360.41577409033197909594,-5.71143732006795,0.935494043804234,342.095400860622
738360.41577418067026883364,-5.66220079144668,1.02165796889147,342.070782596311
738360.41577427112497389317,-5.6129642628254,1.09551276182338,342.132328257088
738360.41577436157967895269,-5.56372773420413,1.15705842259997,342.132328257088
738360.41577445203438401222,-5.53910946989349,1.28014974415316,342.132328257088
738360.41577454248908907175,-5.48987294127221,1.31707714061912,342.169255653554
738360.41577463294379413128,-5.4775638091169,1.34169540492976,342.156946521399
738360.41577472328208386898,-5.48987294127221,1.3047680084638,342.132328257088
738360.41577481373678892851,-5.52680033773817,1.21860408337657,342.144637389243
738360.41577490419149398804,-5.56372773420413,1.08320362966806,342.107709992777
738360.41577499464619904757,-5.674509923602,0.960112308114872,342.095400860622
738360.41577508510090410709,-5.73605558437859,0.837020986561683,342.046164332001
738360.41577517555560916662,-5.78529211299987,0.750857061474451,341.923073010448
738360.41577526589389890432,-5.79760124515519,0.689311400697857,341.935382142603
738360.41577535634860396385,-5.82221950946582,0.689311400697857,342.046164332001
738360.41577544680330902338,-5.84683777377646,0.627765739921262,341.960000406913
738360.41577553725801408291,-5.8714560380871,0.615456607765943,342.02154606769
738360.41577562771271914244,-5.85914690593178,0.615456607765943,342.02154606769
738360.41577571816742420197,-5.88376517024242,0.615456607765943,341.984618671224
738360.41577580850571393967,-5.85914690593178,0.615456607765943,341.972309539069
738360.41577589896041899920,-5.84683777377646,0.590838343455306,342.02154606769
738360.41577598941512405872,-5.88376517024242,0.578529211299987,341.996927803379
738360.41577607986982911825,-5.88376517024242,0.590838343455306,341.972309539069
738360.41577617032453417778,-5.8714560380871,0.603147475610625,341.984618671224
738360.41577626077923923731,-5.8714560380871,0.615456607765943,341.960000406913
738360.41577635111752897501,-5.88376517024242,0.615456607765943,341.996927803379
738360.41577644157223403454,-5.88376517024242,0.578529211299987,341.996927803379
738360.41577653202693909407,-5.85914690593178,0.590838343455306,341.972309539069
738360.41577662248164415359,-5.85914690593178,0.615456607765943,341.947691274758
738360.41577671293634921312,-5.88376517024242,0.603147475610625,342.02154606769
738360.41577680339105427265,-5.85914690593178,0.590838343455306,342.046164332001
738360.41577689372934401035,-5.85914690593178,0.615456607765943,342.058473464156
738360.41577698418404906988,-5.88376517024242,0.590838343455306,341.972309539069
738360.41577707463875412941,-5.84683777377646,0.627765739921262,341.984618671224
738360.41577716509345918894,-5.85914690593178,0.615456607765943,341.935382142603
738360.41577725554816424847,-5.8714560380871,0.603147475610625,342.02154606769
738360.41577734600286930799,-5.8714560380871,0.603147475610625,341.886145613982
738360.41577743634115904570,-5.8714560380871,0.590838343455306,341.935382142603
738360.41577752679586410522,-5.88376517024242,0.615456607765943,341.972309539069
738360.41577761725056916475,-5.88376517024242,0.590838343455306,341.923073010448
738360.41577770770527422428,-5.88376517024242,0.578529211299987,341.910763878292
738360.41577779815997928381,-5.84683777377646,0.603147475610625,341.898454746137
738360.41577788849826902151,-5.8714560380871,0.603147475610625,341.984618671224
738360.41577797895297408104,-5.89607430239774,0.553910946989349,341.996927803379
738360.41577806940767914057,-5.89607430239774,0.578529211299987,342.02154606769
738360.41577815986238420010,-5.8714560380871,0.603147475610625,342.02154606769
738360.41577825031708925962,-5.88376517024242,0.590838343455306,342.070782596311
738360.41577834077179431915,-5.8714560380871,0.590838343455306,342.046164332001
738360.41577843111008405685,-5.89607430239774,0.590838343455306,342.033855199845
738360.41577852156478911638,-5.88376517024242,0.578529211299987,342.058473464156
738360.41577861201949417591,-5.88376517024242,0.578529211299987,342.046164332001
738360.41577870247419923544,-5.8714560380871,0.578529211299987,341.873836481826
738360.41577879292890429497,-5.88376517024242,0.590838343455306,341.935382142603
738360.41577888338360935450,-5.90838343455306,0.578529211299987,342.083091728467
738360.41577897372189909220,-5.90838343455306,0.566220079144668,341.996927803379
738360.41577906417660415173,-5.89607430239774,0.566220079144668,342.033855199845
738360.41577915463130921125,-5.8714560380871,0.578529211299987,342.058473464156
738360.41577924508601427078,-5.8714560380871,0.590838343455306,342.070782596311
738360.41577933554071933031,-5.8714560380871,0.578529211299987,342.009236935535
738360.41577942599542438984,-5.88376517024242,0.578529211299987,341.947691274758
738360.41577951633371412754,-5.8714560380871,0.566220079144668,341.935382142603
738360.41577960678841918707,-5.88376517024242,0.553910946989349,341.935382142603
738360.41577969724312424660,-5.8714560380871,0.553910946989349,341.960000406913
738360.41577978769782930613,-5.84683777377646,0.553910946989349,341.960000406913
738360.41577987815253436565,-5.82221950946582,0.553910946989349,341.886145613982
738360.41577996860723942518,-5.83452864162114,0.566220079144668,341.898454746137
738360.41578005894552916288,-5.78529211299987,0.640074872076581,341.935382142603
738360.41578014940023422241,-5.78529211299987,0.6523840042319,341.923073010448
738360.41578023985493928194,-5.77298298084455,0.677002268542538,341.947691274758
738360.41578033030964434147,-5.82221950946582,0.615456607765943,342.02154606769
738360.41578042076434940100,-5.8714560380871,0.627765739921262,341.960000406913
738360.41578051121905446053,-5.88376517024242,0.590838343455306,341.960000406913
738360.41578060155734419823,-5.88376517024242,0.590838343455306,342.033855199845
738360.41578069201204925776,-5.89607430239774,0.603147475610625,342.02154606769
738360.41578078246675431728,-5.90838343455306,0.603147475610625,342.058473464156
738360.41578087292145937681,-5.88376517024242,0.590838343455306,342.033855199845
738360.41578096337616443634,-5.89607430239774,0.603147475610625,341.996927803379
738360.41578105383086949587,-5.89607430239774,0.603147475610625,341.947691274758
738360.41578114416915923357,-5.93300169886369,0.603147475610625,342.046164332001
738360.41578123462386429310,-5.8714560380871,0.615456607765943,342.009236935535
738360.41578132507856935263,-5.78529211299987,0.812402722251045,342.132328257088
738360.41578141553327441216,-5.45294554480626,1.39093193355103,342.144637389243
738360.41578150598797947168,-5.28061769463179,1.77251503036592,342.169255653554
738360.41578159632626920938,-5.39139988402966,1.74789676605528,342.095400860622
738360.41578168678097426891,-5.68681905575732,0.898566647338277,341.972309539069
738360.41578177723567932844,-5.93300169886369,0.553910946989349,342.107709992777
738360.41578186769038438797,-5.93300169886369,0.750857061474451,342.20618305002
738360.41578195814508944750,-5.83452864162114,0.738547929319132,342.156946521399
738360.41578204859979450703,-5.83452864162114,0.677002268542538,342.083091728467
738360.41578213893808424473,-5.85914690593178,0.6523840042319,342.058473464156
738360.41578222939278930426,-5.8714560380871,0.627765739921262,341.996927803379
738360.41578231984749436378,-5.8714560380871,0.664693136387219,341.960000406913
738360.41578241030219942331,-5.84683777377646,0.664693136387219,341.947691274758
738360.41578250075690448284,-5.85914690593178,0.664693136387219,342.009236935535
738360.41578259121160954237,-5.85914690593178,0.6523840042319,341.972309539069
738360.41578268154989928007,-5.85914690593178,0.640074872076581,341.947691274758
738360.41578277200460433960,-5.84683777377646,0.6523840042319,341.984618671224
738360.41578286245930939913,-5.85914690593178,0.6523840042319,342.070782596311
738360.41578295291401445866,-5.85914690593178,0.664693136387219,342.02154606769
738360.41578304336871951818,-5.84683777377646,0.6523840042319,342.058473464156
738360.41578313382342457771,-5.82221950946582,0.689311400697857,342.058473464156
738360.41578322416171431541,-5.83452864162114,0.713929665008494,342.070782596311
738360.41578331461641937494,-5.83452864162114,0.713929665008494,342.02154606769
738360.41578340507112443447,-5.83452864162114,0.701620532853175,342.083091728467
738360.41578349552582949400,-5.80991037731051,0.738547929319132,342.120019124933
738360.41578358598053455353,-5.79760124515519,0.775475325785089,342.046164332001
738360.41578367643523961306,-5.78529211299987,0.787784457940408,342.070782596311
738360.41578376677352935076,-5.74836471653391,0.812402722251045,342.083091728467
738360.41578385722823441029,-5.72374645222327,0.910875779493596,342.120019124933
738360.41578394768293946981,-5.674509923602,0.935494043804234,342.083091728467
738360.41578403813764452934,-5.64989165929136,1.02165796889147,342.144637389243
738360.41578412859234958887,-5.6129642628254,1.12013102613402,342.144637389243
738360.41578421904705464840,-5.57603686635945,1.16936755475529,342.132328257088
738360.41578430938534438610,-5.53910946989349,1.25553147984252,342.070782596311
738360.41578439984004944563,-5.51449120558285,1.31707714061912,342.02154606769
738360.41578449029475450516,-5.4775638091169,1.35400453708508,342.144637389243
738360.41578458074945956469,-5.4775638091169,1.34169540492976,342.095400860622
738360.41578467120416462421,-5.50218207342753,1.25553147984252,342.083091728467
738360.41578476165886968374,-5.56372773420413,1.1078218939787,342.033855199845
738360.41578485199715942144,-5.63758252713604,1.00934883673615,342.033855199845
738360.41578494245186448097,-5.69912818791264,0.861639250872321,342.02154606769
738360.41578503290656954050,-5.73605558437859,0.800093590095726,341.996927803379
738360.41578512336127460003,-5.79760124515519,0.713929665008494,342.033855199845
738360.41578521381597965956,-5.82221950946582,0.701620532853175,342.046164332001
738360.41578530415426939726,-5.82221950946582,0.664693136387219,342.009236935535
738360.41578539460897445679,-5.83452864162114,0.664693136387219,341.923073010448
738360.41578548506367951632,-5.83452864162114,0.640074872076581,341.947691274758
738360.41578557551838457584,-5.85914690593178,0.590838343455306,341.996927803379
738360.41578566597308963537,-5.85914690593178,0.615456607765943,341.996927803379
738360.41578575642779469490,-5.8714560380871,0.603147475610625,341.898454746137
738360.41578584676608443260,-5.85914690593178,0.627765739921262,341.849218217516
738360.41578593722078949213,-5.88376517024242,0.578529211299987,342.046164332001
738360.41578602767549455166,-5.8714560380871,0.615456607765943,342.046164332001
738360.41578611813019961119,-5.84683777377646,0.627765739921262,341.996927803379
738360.41578620858490467072,-5.8714560380871,0.603147475610625,341.984618671224
738360.41578629903960973024,-5.85914690593178,0.603147475610625,342.009236935535
738360.41578638937789946795,-5.88376517024242,0.590838343455306,342.095400860622
738360.41578647983260452747,-5.85914690593178,0.603147475610625,342.046164332001
738360.41578657028730958700,-5.8714560380871,0.615456607765943,341.960000406913
738360.41578666074201464653,-5.85914690593178,0.615456607765943,342.02154606769
738360.41578675119671970606,-5.8714560380871,0.615456607765943,342.02154606769
738360.41578684165142476559,-5.84683777377646,0.603147475610625,341.923073010448
738360.41578693198971450329,-5.8714560380871,0.627765739921262,342.046164332001
738360.41578702244441956282,-5.85914690593178,0.615456607765943,342.070782596311
738360.41578711289912462234,-5.85914690593178,0.627765739921262,342.046164332001
738360.41578720335382968187,-5.85914690593178,0.603147475610625,341.935382142603
738360.41578729380853474140,-5.88376517024242,0.578529211299987,342.009236935535
738360.41578738426323980093,-5.8714560380871,0.627765739921262,341.996927803379
738360.41578747460152953863,-5.84683777377646,0.627765739921262,341.960000406913
738360.41578756505623459816,-5.8714560380871,0.627765739921262,342.046164332001
738360.41578765551093965769,-5.85914690593178,0.590838343455306,341.996927803379
738360.41578774596564471722,-5.89607430239774,0.603147475610625,341.996927803379
738360.41578783642034977674,-5.85914690593178,0.603147475610625,342.02154606769
738360.41578792687505483627,-5.88376517024242,0.578529211299987,342.033855199845
738360.41578801721334457397,-5.89607430239774,0.590838343455306,342.046164332001
738360.41578810766804963350,-5.8714560380871,0.603147475610625,341.960000406913
738360.41578819812275469303,-5.8714560380871,0.603147475610625,342.009236935535
738360.41578828857745975256,-5.90838343455306,0.566220079144668,341.923073010448
738360.41578837903216481209,-5.88376517024242,0.578529211299987,341.972309539069
738360.41578846948686987162,-5.88376517024242,0.590838343455306,341.960000406913
738360.41578855982515960932,-5.88376517024242,0.578529211299987,341.960000406913
738360.41578865027986466885,-5.89607430239774,0.578529211299987,342.009236935535
738360.41578874073456972837,-5.88376517024242,0.590838343455306,341.947691274758
738360.41578883118927478790,-5.89607430239774,0.578529211299987,341.984618671224
738360.41578892164397984743,-5.88376517024242,0.578529211299987,341.972309539069
738360.41578901209868490696,-5.8714560380871,0.603147475610625,341.923073010448
738360.41578910243697464466,-5.90838343455306,0.578529211299987,342.033855199845
738360.41578919289167970419,-5.8714560380871,0.578529211299987,341.960000406913
738360.41578928334638476372,-5.88376517024242,0.566220079144668,341.910763878292
738360.41578937380108982325,-5.88376517024242,0.529292682678711,341.775363424584
738360.41578946425579488277,-5.8714560380871,0.566220079144668,341.935382142603
738360.41578955459408462048,-5.83452864162114,0.566220079144668,341.947691274758
738360.41578964504878968000,-5.82221950946582,0.566220079144668,341.984618671224
738360.41578973550349473953,-5.78529211299987,0.640074872076581,341.935382142603
738360.41578982595819979906,-5.78529211299987,0.640074872076581,341.898454746137
738360.41578991641290485859,-5.78529211299987,0.640074872076581,341.996927803379
738360.41579000686760991812,-5.82221950946582,0.640074872076581,342.009236935535
738360.41579009720589965582,-5.8714560380871,0.603147475610625,341.984618671224
738360.41579018766060471535,-5.88376517024242,0.603147475610625,342.009236935535
738360.41579027811530977488,-5.88376517024242,0.590838343455306,342.009236935535
738360.41579036857001483440,-5.89607430239774,0.578529211299987,341.935382142603
738360.41579045902471989393,-5.89607430239774,0.590838343455306,341.960000406913
738360.41579054947942495346,-5.92069256670838,0.603147475610625,341.984618671224
738360.41579063981771469116,-5.90838343455306,0.578529211299987,342.02154606769
738360.41579073027241975069,-5.90838343455306,0.578529211299987,342.046164332001
738360.41579082072712481022,-5.90838343455306,0.590838343455306,342.058473464156
738360.41579091118182986975,-5.92069256670838,0.590838343455306,341.935382142603
738360.41579100163653492928,-5.89607430239774,0.566220079144668,342.046164332001
738360.41579109209123998880,-5.77298298084455,0.861639250872321,342.132328257088
738360.41579118242952972651,-5.4160181483403,1.48940499079358,342.120019124933
738360.41579127288423478603,-5.29292682678711,1.9571520126957,342.120019124933
738360.41579136333893984556,-5.58834599851477,1.20629495122125,342.070782596311
738360.41579145379364490509,-5.88376517024242,0.529292682678711,342.058473464156
738360.41579154424834996462,-5.98223822748497,0.689311400697857,342.23080131433
738360.41579163470305502415,-5.89607430239774,0.775475325785089,342.132328257088
738360.41579172504134476185,-5.8714560380871,0.664693136387219,341.984618671224
738360.41579181549604982138,-5.85914690593178,0.6523840042319,341.960000406913
738360.41579190595075488091,-5.88376517024242,0.640074872076581,341.972309539069
738360.41579199640545994043,-5.88376517024242,0.640074872076581,341.960000406913
738360.41579208686016499996,-5.8714560380871,0.615456607765943,341.960000406913
738360.41579217731487005949,-5.88376517024242,0.6523840042319,341.960000406913
738360.41579226765315979719,-5.88376517024242,0.6523840042319,341.947691274758
738360.41579235810786485672,-5.88376517024242,0.627765739921262,341.972309539069
738360.41579244856256991625,-5.85914690593178,0.664693136387219,342.009236935535
738360.41579253901727497578,-5.88376517024242,0.664693136387219,342.009236935535
738360.41579262947198003531,-5.8714560380871,0.6523840042319,341.984618671224
738360.41579271992668509483,-5.8714560380871,0.677002268542538,342.02154606769
738360.41579281026497483253,-5.84683777377646,0.664693136387219,342.009236935535
738360.41579290071967989206,-5.83452864162114,0.677002268542538,341.898454746137
738360.41579299117438495159,-5.83452864162114,0.701620532853175,342.058473464156
738360.41579308162909001112,-5.83452864162114,0.713929665008494,342.058473464156
738360.41579317208379507065,-5.80991037731051,0.738547929319132,341.960000406913
738360.41579326242208480835,-5.79760124515519,0.76316619362977,341.972309539069
738360.41579335287678986788,-5.79760124515519,0.800093590095726,342.033855199845
738360.41579344333149492741,-5.76067384868923,0.812402722251045,342.033855199845
738360.41579353378619998693,-5.74836471653391,0.861639250872321,342.046164332001
738360.41579362424090504646,-5.72374645222327,0.886257515182958,342.058473464156
738360.41579371469561010599,-5.69912818791264,0.960112308114872,342.046164332001
738360.41579380503389984369,-5.64989165929136,1.0462762332021,342.058473464156
738360.41579389548860490322,-5.62527339498072,1.14474929044465,342.132328257088
738360.41579398594330996275,-5.56372773420413,1.20629495122125,342.120019124933
738360.41579407639801502228,-5.53910946989349,1.3047680084638,342.132328257088
738360.41579416685272008181,-5.48987294127221,1.34169540492976,342.120019124933
738360.41579425730742514133,-5.48987294127221,1.35400453708508,342.193873917864
738360.41579434764571487904,-5.50218207342753,1.26784061199784,342.144637389243
738360.41579443810041993856,-5.57603686635945,1.15705842259997,342.107709992777
738360.41579452855512499809,-5.6129642628254,1.02165796889147,342.107709992777
738360.41579461900983005762,-5.64989165929136,0.960112308114872,342.033855199845
738360.41579470946453511715,-5.72374645222327,0.849330118717002,342.058473464156
738360.41579479991924017668,-5.77298298084455,0.775475325785089,342.046164332001
738360.41579489025752991438,-5.82221950946582,0.701620532853175,342.033855199845
738360.41579498071223497391,-5.83452864162114,0.664693136387219,342.083091728467
738360.41579507116694003344,-5.84683777377646,0.664693136387219,342.083091728467
738360.41579516162164509296,-5.8714560380871,0.627765739921262,341.972309539069
738360.41579525207635015249,-5.8714560380871,0.615456607765943,342.046164332001
738360.41579534253105521202,-5.8714560380871,0.615456607765943,342.070782596311
738360.41579543286934494972,-5.89607430239774,0.603147475610625,342.02154606769
738360.41579552332405000925,-5.85914690593178,0.615456607765943,342.009236935535
738360.41579561377875506878,-5.8714560380871,0.615456607765943,342.070782596311
738360.41579570423346012831,-5.8714560380871,0.590838343455306,342.070782596311
738360.41579579468816518784,-5.8714560380871,0.590838343455306,342.02154606769
738360.41579588514287024736,-5.8714560380871,0.590838343455306,342.058473464156
738360.41579597548115998507,-5.88376517024242,0.603147475610625,342.058473464156
738360.41579606593586504459,-5.8714560380871,0.590838343455306,341.996927803379
738360.41579615639057010412,-5.88376517024242,0.590838343455306,342.046164332001
738360.41579624684527516365,-5.85914690593178,0.603147475610625,342.095400860622
738360.41579633729998022318,-5.8714560380871,0.615456607765943,341.787672556739
738360.41579642775468528271,-5.8714560380871,0.615456607765943,341.799981688894
738360.41579651809297502041,-5.85914690593178,0.590838343455306,341.898454746137
738360.41579660854768007994,-5.8714560380871,0.603147475610625,341.960000406913
738360.41579669900238513947,-5.85914690593178,0.603147475610625,341.960000406913
738360.41579678945709019899,-5.88376517024242,0.578529211299987,341.996927803379
738360.41579687991179525852,-5.88376517024242,0.590838343455306,341.984618671224
738360.41579697036650031805,-5.8714560380871,0.603147475610625,341.984618671224
738360.41579706070479005575,-5.88376517024242,0.578529211299987,341.947691274758
738360.41579715115949511528,-5.89607430239774,0.578529211299987,341.984618671224
738360.41579724161420017481,-5.8714560380871,0.603147475610625,341.972309539069
738360.41579733206890523434,-5.89607430239774,0.590838343455306,341.972309539069
738360.41579742252361029387,-5.89607430239774,0.578529211299987,341.923073010448
738360.41579751286190003157,-5.90838343455306,0.578529211299987,341.947691274758
738360.41579760331660509109,-5.88376517024242,0.578529211299987,341.935382142603
738360.41579769377131015062,-5.88376517024242,0.590838343455306,341.984618671224
738360.41579778422601521015,-5.88376517024242,0.578529211299987,342.009236935535
738360.41579787468072026968,-5.92069256670838,0.553910946989349,341.960000406913
738360.41579796513542532921,-5.90838343455306,0.566220079144668,341.960000406913
738360.41579805547371506691,-5.89607430239774,0.566220079144668,341.984618671224
738360.41579814592842012644,-5.92069256670838,0.578529211299987,341.996927803379
738360.41579823638312518597,-5.88376517024242,0.578529211299987,341.984618671224
738360.41579832683783024549,-5.89607430239774,0.578529211299987,342.033855199845
738360.41579841729253530502,-5.89607430239774,0.553910946989349,342.009236935535
738360.41579850774724036455,-5.92069256670838,0.553910946989349,342.046164332001
738360.41579859808553010225,-5.89607430239774,0.590838343455306,342.033855199845
738360.41579868854023516178,-5.89607430239774,0.566220079144668,341.984618671224
738360.41579877899494022131,-5.88376517024242,0.566220079144668,342.009236935535
738360.41579886944964528084,-5.90838343455306,0.566220079144668,341.984618671224
738360.41579895990435034037,-5.90838343455306,0.553910946989349,341.996927803379
738360.41579905035905539989,-5.89607430239774,0.54160181483403,341.984618671224
738360.41579914069734513760,-5.89607430239774,0.553910946989349,341.996927803379
738360.41579923115205019712,-5.90838343455306,0.529292682678711,342.009236935535
738360.41579932160675525665,-5.88376517024242,0.529292682678711,341.996927803379
738360.41579941206146031618,-5.85914690593178,0.529292682678711,341.972309539069
738360.41579950251616537571,-5.84683777377646,0.529292682678711,341.947691274758
738360.41579959297087043524,-5.80991037731051,0.603147475610625,342.033855199845
738360.41579968330916017294,-5.82221950946582,0.615456607765943,341.972309539069
738360.41579977376386523247,-5.79760124515519,0.640074872076581,341.996927803379
738360.41579986421857029200,-5.82221950946582,0.627765739921262,341.873836481826
738360.41579995467327535152,-5.85914690593178,0.578529211299987,341.910763878292
738360.41580004512798041105,-5.89607430239774,0.590838343455306,342.058473464156
738360.41580013558268547058,-5.89607430239774,0.578529211299987,342.033855199845
738360.41580022592097520828,-5.90838343455306,0.553910946989349,342.070782596311
738360.41580031637568026781,-5.92069256670838,0.566220079144668,342.033855199845
738360.41580040683038532734,-5.92069256670838,0.553910946989349,342.070782596311
738360.41580049728509038687,-5.92069256670838,0.566220079144668,342.058473464156
738360.41580058773979544640,-5.90838343455306,0.566220079144668,341.984618671224
