time_dn,ecg_projection_ll_ra_mV,ecg_projection_la_ra_mV,ecg_projection_vx_rl_mV
738506.44674889743328094482,-21.6486861781671,-10.9582049012726,-301.429105502487
738506.44674898788798600435,-21.6579180272835,-10.9766685995056,-301.410641804254
738506.44674907834269106388,-21.6579180272835,-10.9489730521561,-301.429105502487
738506.44674916879739612341,-21.704077272866,-10.9120456556902,-301.410641804254
738506.44674925925210118294,-21.5563676870022,-10.8381908627583,-301.373714407788
738506.44674934959039092064,-21.1686300241096,-10.7827997680593,-301.373714407788
738506.44674944004509598017,-20.7347331156346,-10.9305093539232,-301.392178106021
738506.44674953049980103970,-20.6424146244697,-11.2166966765343,-301.373714407788
738506.44674962095450609922,-21.6486861781671,-11.2997833185827,-301.558351390118
738506.44674971140921115875,-22.0271919919431,-11.1059144871364,-301.539887691885
738506.44674980186391621828,-21.8148594622639,-10.9120456556902,-301.47526474807
738506.44674989231862127781,-21.5471358378857,-10.9028138065737,-301.44756920072
738506.44674998265691101551,-21.5286721396527,-10.9212775048067,-301.456801049837
738506.44675007311161607504,-21.5563676870022,-10.9305093539232,-301.44756920072
738506.44675016356632113457,-21.5563676870022,-10.9212775048067,-301.429105502487
738506.44675025402102619410,-21.5471358378857,-10.9120456556902,-301.419873653371
738506.44675034447573125362,-21.5563676870022,-10.9305093539232,-301.419873653371
738506.44675043493043631315,-21.5286721396527,-10.9120456556902,-301.410641804254
738506.44675052538514137268,-21.5379039887692,-10.9120456556902,-301.466032898953
738506.44675061572343111038,-21.5194402905362,-10.9028138065737,-301.47526474807
738506.44675070617813616991,-21.5194402905362,-10.9120456556902,-301.410641804254
738506.44675079663284122944,-21.5009765923032,-10.9028138065737,-301.382946256905
738506.44675088708754628897,-21.4825128940703,-10.9028138065737,-301.373714407788
738506.44675097754225134850,-21.4732810449538,-10.9028138065737,-301.456801049837
738506.44675106799695640802,-21.4640491958373,-10.8843501083407,-301.429105502487
738506.44675115845166146755,-21.4455854976043,-10.8935819574572,-301.373714407788
738506.44675124878995120525,-21.4363536484878,-10.8751182592242,-301.44756920072
738506.44675133924465626478,-21.4271217993713,-10.8843501083407,-301.44756920072
738506.44675142969936132431,-21.3994262520219,-10.8658864101077,-301.410641804254
738506.44675152015406638384,-21.3809625537889,-10.8658864101077,-301.373714407788
738506.44675161060877144337,-21.3532670064394,-10.8381908627583,-301.44756920072
738506.44675170106347650290,-21.3348033082064,-10.8474227118748,-301.429105502487
738506.44675179151818156242,-21.288644062624,-10.8104953154088,-301.401409955138
738506.44675188185647130013,-21.2794122135075,-10.8197271645253,-301.419873653371
738506.44675197231117635965,-21.233252967925,-10.7920316171758,-301.419873653371
738506.44675206276588141918,-21.2147892696921,-10.7827997680593,-301.401409955138
738506.44675215322058647871,-21.1778618732261,-10.7643360698263,-301.327555162206
738506.44675224367529153824,-21.1317026276437,-10.7366405224769,-301.401409955138
738506.44675233412999659777,-21.0947752311777,-10.7181768242439,-301.382946256905
738506.44675242458470165730,-21.0670796838282,-10.6997131260109,-301.309091463973
738506.44675251492299139500,-21.0486159855953,-10.7089449751274,-301.364482558672
738506.44675260537769645452,-21.0301522873623,-10.6997131260109,-301.373714407788
738506.44675269583240151405,-21.0301522873623,-10.7274086733604,-301.336787011322
738506.44675278628710657358,-21.0578478347118,-10.7274086733604,-301.373714407788
738506.44675287674181163311,-21.1501663258766,-10.7827997680593,-301.392178106021
738506.44675296719651669264,-21.233252967925,-10.8104953154088,-301.410641804254
738506.44675305765122175217,-21.3348033082064,-10.8751182592242,-301.392178106021
738506.44675314798951148987,-21.3809625537889,-10.8751182592242,-301.44756920072
738506.44675323844421654940,-21.4548173467208,-10.9120456556902,-301.44756920072
738506.44675332889892160892,-21.4825128940703,-10.9120456556902,-301.429105502487
738506.44675341935362666845,-21.5102084414197,-10.9397412030396,-301.456801049837
738506.44675350980833172798,-21.5194402905362,-10.9120456556902,-301.466032898953
738506.44675360026303678751,-21.5379039887692,-10.9305093539232,-301.438337351604
738506.44675369071774184704,-21.5286721396527,-10.9212775048067,-301.456801049837
738506.44675378105603158474,-21.5286721396527,-10.9397412030396,-301.44756920072
738506.44675387151073664427,-21.5194402905362,-10.9212775048067,-301.456801049837
738506.44675396196544170380,-21.5286721396527,-10.9212775048067,-301.410641804254
738506.44675405242014676332,-21.5286721396527,-10.9489730521561,-301.44756920072
738506.44675414287485182285,-21.5194402905362,-10.9397412030396,-301.44756920072
738506.44675423332955688238,-21.5379039887692,-10.9397412030396,-301.44756920072
738506.44675432378426194191,-21.5194402905362,-10.9212775048067,-301.373714407788
738506.44675441412255167961,-21.5286721396527,-10.9397412030396,-301.336787011322
738506.44675450457725673914,-21.5194402905362,-10.9212775048067,-301.44756920072
738506.44675459503196179867,-21.5194402905362,-10.9397412030396,-301.382946256905
738506.44675468548666685820,-21.5102084414197,-10.9120456556902,-301.44756920072
738506.44675477594137191772,-21.5194402905362,-10.9397412030396,-301.438337351604
738506.44675486639607697725,-21.5194402905362,-10.9212775048067,-301.419873653371
738506.44675495685078203678,-21.5286721396527,-10.9397412030396,-301.44756920072
738506.44675504718907177448,-21.5194402905362,-10.9305093539232,-301.410641804254
738506.44675513764377683401,-21.5194402905362,-10.9305093539232,-301.419873653371
738506.44675522809848189354,-21.5194402905362,-10.9305093539232,-301.401409955138
738506.44675531855318695307,-21.5286721396527,-10.9397412030396,-301.401409955138
738506.44675540900789201260,-21.5286721396527,-10.9397412030396,-301.47526474807
738506.44675549946259707212,-21.5286721396527,-10.9305093539232,-301.466032898953
738506.44675558991730213165,-21.5379039887692,-10.9397412030396,-301.466032898953
738506.44675568025559186935,-21.5286721396527,-10.9305093539232,-301.429105502487
738506.44675577071029692888,-21.5379039887692,-10.9397412030396,-301.484496597186
738506.44675586116500198841,-21.5379039887692,-10.9305093539232,-301.502960295419
738506.44675595161970704794,-21.5563676870022,-10.9397412030396,-301.466032898953
738506.44675604207441210747,-21.5379039887692,-10.9397412030396,-301.456801049837
738506.44675613252911716700,-21.5563676870022,-10.9397412030396,-301.512192144536
738506.44675622298382222652,-21.5471358378857,-10.9212775048067,-301.512192144536
738506.44675631332211196423,-21.5471358378857,-10.9397412030396,-301.438337351604
738506.44675640377681702375,-21.5471358378857,-10.9305093539232,-301.493728446303
738506.44675649423152208328,-21.5563676870022,-10.9397412030396,-301.512192144536
738506.44675658468622714281,-21.5563676870022,-10.9397412030396,-301.401409955138
738506.44675667514093220234,-21.5563676870022,-10.9397412030396,-301.47526474807
738506.44675676559563726187,-21.5563676870022,-10.9397412030396,-301.484496597186
738506.44675685605034232140,-21.5563676870022,-10.9397412030396,-301.456801049837
738506.44675694638863205910,-21.5563676870022,-10.9489730521561,-301.47526474807
738506.44675703684333711863,-21.5563676870022,-10.9305093539232,-301.530655842769
738506.44675712729804217815,-21.5655995361187,-10.9489730521561,-301.438337351604
738506.44675721775274723768,-21.5563676870022,-10.9305093539232,-301.47526474807
738506.44675730820745229721,-21.5655995361187,-10.9582049012726,-301.429105502487
738506.44675739866215735674,-21.5563676870022,-10.9212775048067,-301.429105502487
738506.44675748911686241627,-21.5563676870022,-10.9489730521561,-301.373714407788
738506.44675757957156747580,-21.5379039887692,-10.9397412030396,-301.392178106021
738506.44675766990985721350,-21.5286721396527,-10.9489730521561,-301.364482558672
738506.44675776036456227303,-21.5102084414197,-10.9305093539232,-301.392178106021
738506.44675785081926733255,-21.4917447431867,-10.9212775048067,-301.355250709555
738506.44675794127397239208,-21.4178899502548,-10.9120456556902,-301.272164067507
738506.44675803172867745161,-21.4086581011383,-10.9212775048067,-301.392178106021
738506.44675812218338251114,-21.3809625537889,-10.9212775048067,-301.456801049837
738506.44675821263808757067,-21.3624988555559,-10.8935819574572,-301.438337351604
738506.44675830297637730837,-21.4086581011383,-10.9305093539232,-301.47526474807
738506.44675839343108236790,-21.4640491958373,-10.9212775048067,-301.466032898953
738506.44675848388578742743,-21.5563676870022,-10.9489730521561,-301.466032898953
738506.44675857434049248695,-21.5840632343516,-10.9397412030396,-301.512192144536
738506.44675866479519754648,-21.6209906308176,-10.9674367503891,-301.466032898953
738506.44675875524990260601,-21.6117587817011,-10.9582049012726,-301.410641804254
738506.44675884570460766554,-21.6394543290506,-10.9859004486221,-301.419873653371
738506.44675893604289740324,-21.6302224799341,-10.9489730521561,-301.429105502487
738506.44675902649760246277,-21.6394543290506,-10.9766685995056,-301.438337351604
738506.44675911695230752230,-21.6302224799341,-10.9582049012726,-301.456801049837
738506.44675920740701258183,-21.6394543290506,-10.9859004486221,-301.438337351604
738506.44675929786171764135,-21.6302224799341,-10.9674367503891,-301.456801049837
738506.44675938831642270088,-21.6394543290506,-10.9674367503891,-301.429105502487
738506.44675947877112776041,-21.6486861781671,-10.9489730521561,-301.493728446303
738506.44675956910941749811,-21.6763817255165,-10.9212775048067,-301.484496597186
738506.44675965956412255764,-21.6486861781671,-10.8751182592242,-301.392178106021
738506.44675975001882761717,-21.3624988555559,-10.7735679189428,-301.438337351604
738506.44675984047353267670,-20.8824427014985,-10.8104953154088,-301.364482558672
738506.44675993092823773623,-20.5593279824213,-11.0874507889035,-301.410641804254
738506.44676002138294279575,-21.1593981749931,-11.2905514694662,-301.502960295419
738506.44676011183764785528,-22.0179601428266,-11.2166966765343,-301.586046937468
738506.44676020217593759298,-21.9441053498947,-10.9766685995056,-301.512192144536
738506.44676029263064265251,-21.6302224799341,-10.8843501083407,-301.484496597186
738506.44676038308534771204,-21.5471358378857,-10.9212775048067,-301.466032898953
738506.44676047354005277157,-21.5379039887692,-10.9120456556902,-301.466032898953
738506.44676056399475783110,-21.5655995361187,-10.9305093539232,-301.466032898953
738506.44676065444946289062,-21.5563676870022,-10.9120456556902,-301.47526474807
738506.44676074490416795015,-21.5563676870022,-10.9212775048067,-301.493728446303
738506.44676083524245768785,-21.5563676870022,-10.9120456556902,-301.484496597186
738506.44676092569716274738,-21.5471358378857,-10.9028138065737,-301.456801049837
738506.44676101615186780691,-21.5286721396527,-10.9028138065737,-301.47526474807
738506.44676110660657286644,-21.5286721396527,-10.9028138065737,-301.410641804254
738506.44676119706127792597,-21.5194402905362,-10.8935819574572,-301.47526474807
738506.44676128751598298550,-21.5009765923032,-10.8843501083407,-301.346018860439
738506.44676137797068804502,-21.4917447431867,-10.8935819574572,-301.299859614856
738506.44676146830897778273,-21.4732810449538,-10.8751182592242,-301.253700369274
738506.44676155876368284225,-21.4917447431867,-10.9028138065737,-301.336787011322
738506.44676164921838790178,-21.4548173467208,-10.8658864101077,-301.364482558672
738506.44676173967309296131,-21.4640491958373,-10.8843501083407,-301.346018860439
738506.44676183012779802084,-21.4363536484878,-10.8658864101077,-301.419873653371
738506.44676192058250308037,-21.4178899502548,-10.8658864101077,-301.401409955138
738506.44676201103720813990,-21.3901944029054,-10.8566545609912,-301.410641804254
738506.44676210137549787760,-21.3901944029054,-10.8566545609912,-301.410641804254
738506.44676219183020293713,-21.3532670064394,-10.8289590136418,-301.419873653371
738506.44676228228490799665,-21.3255714590899,-10.8197271645253,-301.438337351604
738506.44676237273961305618,-21.288644062624,-10.8104953154088,-301.346018860439
738506.44676246319431811571,-21.251716666158,-10.7827997680593,-301.355250709555
738506.44676255364902317524,-21.2240211188086,-10.7643360698263,-301.355250709555
738506.44676264410372823477,-21.1778618732261,-10.7366405224769,-301.410641804254
738506.44676273444201797247,-21.1409344767602,-10.7366405224769,-301.346018860439
738506.44676282489672303200,-21.1132389294107,-10.7089449751274,-301.299859614856
738506.44676291535142809153,-21.1040070802942,-10.7089449751274,-301.364482558672
738506.44676300580613315105,-21.0763115329447,-10.7089449751274,-301.327555162206
738506.44676309626083821058,-21.1040070802942,-10.7366405224769,-301.364482558672
738506.44676318671554327011,-21.1317026276437,-10.7458723715934,-301.382946256905
738506.44676327717024832964,-21.1686300241096,-10.7735679189428,-301.364482558672
738506.44676336750853806734,-21.251716666158,-10.8012634662923,-301.392178106021
738506.44676345796324312687,-21.3532670064394,-10.8474227118748,-301.355250709555
738506.44676354841794818640,-21.4363536484878,-10.8843501083407,-301.364482558672
738506.44676363887265324593,-21.4917447431867,-10.9120456556902,-301.429105502487
738506.44676372932735830545,-21.5286721396527,-10.9212775048067,-301.438337351604
738506.44676381978206336498,-21.5563676870022,-10.9305093539232,-301.44756920072
738506.44676391023676842451,-21.5748313852351,-10.9489730521561,-301.502960295419
738506.44676400057505816221,-21.5932950834681,-10.9397412030396,-301.521423993652
738506.44676409102976322174,-21.5932950834681,-10.9397412030396,-301.493728446303
738506.44676418148446828127,-21.6025269325846,-10.9397412030396,-301.429105502487
738506.44676427193917334080,-21.6117587817011,-10.9582049012726,-301.484496597186
738506.44676436239387840033,-21.5932950834681,-10.9397412030396,-301.456801049837
738506.44676445284858345985,-21.6025269325846,-10.9674367503891,-301.410641804254
738506.44676454330328851938,-21.5840632343516,-10.9397412030396,-301.392178106021
738506.44676463364157825708,-21.5932950834681,-10.9489730521561,-301.392178106021
738506.44676472409628331661,-21.5840632343516,-10.9397412030396,-301.419873653371
738506.44676481455098837614,-21.5932950834681,-10.9582049012726,-301.438337351604
738506.44676490500569343567,-21.5748313852351,-10.9397412030396,-301.309091463973
738506.44676499546039849520,-21.5932950834681,-10.9582049012726,-301.438337351604
738506.44676508591510355473,-21.5932950834681,-10.9397412030396,-301.484496597186
738506.44676517636980861425,-21.5840632343516,-10.9305093539232,-301.456801049837
738506.44676526670809835196,-21.5932950834681,-10.9489730521561,-301.466032898953
738506.44676535716280341148,-21.6025269325846,-10.9397412030396,-301.512192144536
738506.44676544761750847101,-21.6025269325846,-10.9582049012726,-301.466032898953
738506.44676553807221353054,-21.6025269325846,-10.9489730521561,-301.484496597186
738506.44676562852691859007,-21.6209906308176,-10.9674367503891,-301.512192144536
738506.44676571898162364960,-21.6117587817011,-10.9397412030396,-301.484496597186
738506.44676580943632870913,-21.6117587817011,-10.9582049012726,-301.502960295419
738506.44676589977461844683,-21.6117587817011,-10.9489730521561,-301.512192144536
738506.44676599022932350636,-21.6302224799341,-10.9582049012726,-301.502960295419
738506.44676608068402856588,-21.6209906308176,-10.9305093539232,-301.493728446303
738506.44676617113873362541,-21.6302224799341,-10.9582049012726,-301.47526474807
738506.44676626159343868494,-21.6302224799341,-10.9397412030396,-301.484496597186
738506.44676635204814374447,-21.6486861781671,-10.9582049012726,-301.466032898953
738506.44676644250284880400,-21.6302224799341,-10.9397412030396,-301.466032898953
738506.44676653284113854170,-21.6579180272835,-10.9582049012726,-301.410641804254
738506.44676662329584360123,-21.6486861781671,-10.9489730521561,-301.410641804254
738506.44676671375054866076,-21.6671498764,-10.9766685995056,-301.410641804254
738506.44676680420525372028,-21.6671498764,-10.9582049012726,-301.466032898953
738506.44676689465995877981,-21.6671498764,-10.9674367503891,-301.47526474807
738506.44676698511466383934,-21.6579180272835,-10.9766685995056,-301.502960295419
738506.44676707556936889887,-21.6579180272835,-10.9582049012726,-301.502960295419
738506.44676716590765863657,-21.6671498764,-10.9674367503891,-301.484496597186
738506.44676725636236369610,-21.6579180272835,-10.9489730521561,-301.512192144536
738506.44676734681706875563,-21.6671498764,-10.9674367503891,-301.539887691885
738506.44676743727177381516,-21.6671498764,-10.9582049012726,-301.44756920072
738506.44676752772647887468,-21.6763817255165,-10.9859004486221,-301.484496597186
738506.44676761818118393421,-21.6671498764,-10.9582049012726,-301.512192144536
738506.44676770863588899374,-21.6671498764,-10.9674367503891,-301.438337351604
738506.44676779897417873144,-21.6394543290506,-10.9582049012726,-301.466032898953
738506.44676788942888379097,-21.6209906308176,-10.9582049012726,-301.47526474807
738506.44676797988358885050,-21.5932950834681,-10.9305093539232,-301.410641804254
738506.44676807033829391003,-21.5471358378857,-10.9305093539232,-301.456801049837
738506.44676816079299896955,-21.5194402905362,-10.9489730521561,-301.466032898953
738506.44676825124770402908,-21.5009765923032,-10.9397412030396,-301.484496597186
738506.44676834170240908861,-21.4732810449538,-10.9397412030396,-301.429105502487
738506.44676843204069882631,-21.4917447431867,-10.9489730521561,-301.272164067507
738506.44676852249540388584,-21.5563676870022,-10.9397412030396,-301.355250709555
738506.44676861295010894537,-21.6302224799341,-10.9489730521561,-301.419873653371
738506.44676870340481400490,-21.6763817255165,-10.9674367503891,-301.456801049837
738506.44676879385951906443,-21.6948454237495,-10.9674367503891,-301.47526474807
738506.44676888431422412395,-21.7133091219825,-10.9951322977386,-301.493728446303
738506.44676897476892918348,-21.704077272866,-10.9674367503891,-301.484496597186
738506.44676906510721892118,-21.722540971099,-10.9859004486221,-301.456801049837
738506.44676915556192398071,-21.722540971099,-10.9582049012726,-301.47526474807
738506.44676924601662904024,-21.7317728202155,-10.9766685995056,-301.484496597186
738506.44676933647133409977,-21.741004669332,-10.9766685995056,-301.484496597186
738506.44676942692603915930,-21.722540971099,-10.9766685995056,-301.438337351604
738506.44676951738074421883,-21.7317728202155,-10.9674367503891,-301.484496597186
738506.44676960783544927835,-21.7317728202155,-10.9766685995056,-301.47526474807
738506.44676969817373901606,-21.7317728202155,-10.9674367503891,-301.466032898953
738506.44676978862844407558,-21.7594683675649,-10.9028138065737,-301.466032898953
738506.44676987908314913511,-21.6025269325846,-10.8474227118748,-301.429105502487
738506.44676996953785419464,-21.1778618732261,-10.7827997680593,-301.355250709555
738506.44677005999255925417,-20.7624286629841,-10.9305093539232,-301.346018860439
738506.44677015044726431370,-20.6978057191687,-11.1890011291849,-301.419873653371
738506.44677024090196937323,-21.8794824060793,-11.3367107150487,-301.595278786584
738506.44677033124025911093,-22.2025971251564,-11.1520737327189,-301.539887691885
738506.44677042169496417046,-21.9625690481277,-10.9582049012726,-301.502960295419
738506.44677051214966922998,-21.685613574633,-10.8935819574572,-301.466032898953
738506.44677060260437428951,-21.6302224799341,-10.9305093539232,-301.336787011322
738506.44677069305907934904,-21.6394543290506,-10.9212775048067,-301.401409955138
738506.44677078351378440857,-21.6579180272835,-10.9305093539232,-301.392178106021
738506.44677087396848946810,-21.6486861781671,-10.9212775048067,-301.429105502487
738506.44677096430677920580,-21.6486861781671,-10.9028138065737,-301.392178106021
738506.44677105476148426533,-21.6302224799341,-10.9212775048067,-301.429105502487
738506.44677114521618932486,-21.6117587817011,-10.9028138065737,-301.419873653371
738506.44677123567089438438,-21.6117587817011,-10.9120456556902,-301.410641804254
738506.44677132612559944391,-21.5932950834681,-10.9120456556902,-301.401409955138
738506.44677141658030450344,-21.6025269325846,-10.9212775048067,-301.438337351604
738506.44677150703500956297,-21.5748313852351,-10.9028138065737,-301.401409955138
738506.44677159737329930067,-21.5655995361187,-10.9212775048067,-301.410641804254
738506.44677168782800436020,-21.5563676870022,-10.8751182592242,-301.410641804254
738506.44677177828270941973,-21.5563676870022,-10.9028138065737,-301.47526474807
738506.44677186873741447926,-21.5286721396527,-10.8751182592242,-301.47526474807
738506.44677195919211953878,-21.5194402905362,-10.8843501083407,-301.253700369274
738506.44677204964682459831,-21.4917447431867,-10.8566545609912,-301.336787011322
738506.44677214010152965784,-21.4825128940703,-10.8566545609912,-301.382946256905
738506.44677223043981939554,-21.4455854976043,-10.8381908627583,-301.419873653371
738506.44677232089452445507,-21.4363536484878,-10.8474227118748,-301.373714407788
738506.44677241134922951460,-21.3994262520219,-10.8289590136418,-301.44756920072
738506.44677250180393457413,-21.3809625537889,-10.8197271645253,-301.419873653371
738506.44677259225863963366,-21.3348033082064,-10.7920316171758,-301.44756920072
738506.44677268271334469318,-21.3348033082064,-10.8012634662923,-301.410641804254
738506.44677277316804975271,-21.307107760857,-10.7827997680593,-301.401409955138
738506.44677286350633949041,-21.2609485152745,-10.7366405224769,-301.429105502487
738506.44677295396104454994,-21.2424848170415,-10.7458723715934,-301.355250709555
738506.44677304441574960947,-21.1963255714591,-10.7274086733604,-301.355250709555
738506.44677313487045466900,-21.1963255714591,-10.7366405224769,-301.410641804254
738506.44677322532515972853,-21.1686300241096,-10.7089449751274,-301.410641804254
738506.44677331577986478806,-21.1870937223426,-10.7366405224769,-301.336787011322
738506.44677340623456984758,-21.2055574205756,-10.7458723715934,-301.410641804254
738506.44677349657285958529,-21.2978759117405,-10.7920316171758,-301.419873653371
738506.44677358702756464481,-21.3624988555559,-10.8104953154088,-301.355250709555
738506.44677367748226970434,-21.4455854976043,-10.8658864101077,-301.44756920072
738506.44677376793697476387,-21.5102084414197,-10.8935819574572,-301.456801049837
738506.44677385839167982340,-21.5655995361187,-10.9212775048067,-301.44756920072
738506.44677394884638488293,-21.6025269325846,-10.9305093539232,-301.466032898953
738506.44677403930108994246,-21.6302224799341,-10.9489730521561,-301.410641804254
738506.44677412963937968016,-21.6394543290506,-10.9489730521561,-301.401409955138
738506.44677422009408473969,-21.6394543290506,-10.9489730521561,-301.382946256905
738506.44677431054878979921,-21.6394543290506,-10.9489730521561,-301.401409955138
738506.44677440100349485874,-21.6394543290506,-10.9489730521561,-301.410641804254
738506.44677449145819991827,-21.6302224799341,-10.9489730521561,-301.410641804254
738506.44677458191290497780,-21.6302224799341,-10.9397412030396,-301.456801049837
738506.44677467236761003733,-21.6394543290506,-10.9489730521561,-301.484496597186
738506.44677476270589977503,-21.6117587817011,-10.9397412030396,-301.539887691885
738506.44677485316060483456,-21.6209906308176,-10.9489730521561,-301.466032898953
738506.44677494361530989408,-21.6117587817011,-10.9305093539232,-301.512192144536
738506.44677503407001495361,-21.6209906308176,-10.9397412030396,-301.512192144536
738506.44677512452472001314,-21.5932950834681,-10.9397412030396,-301.466032898953
738506.44677521497942507267,-21.6209906308176,-10.9397412030396,-301.47526474807
738506.44677530543413013220,-21.6025269325846,-10.9397412030396,-301.456801049837
738506.44677539577241986990,-21.6117587817011,-10.9397412030396,-301.410641804254
738506.44677548622712492943,-21.6209906308176,-10.9397412030396,-301.346018860439
738506.44677557668182998896,-21.6209906308176,-10.9397412030396,-301.382946256905
738506.44677566713653504848,-21.6209906308176,-10.9489730521561,-301.44756920072
738506.44677575759124010801,-21.6302224799341,-10.9397412030396,-301.466032898953
738506.44677584804594516754,-21.6486861781671,-10.9582049012726,-301.466032898953
738506.44677593850065022707,-21.6394543290506,-10.9489730521561,-301.466032898953
738506.44677602883893996477,-21.6394543290506,-10.9674367503891,-301.419873653371
738506.44677611929364502430,-21.6394543290506,-10.9489730521561,-301.47526474807
738506.44677620974835008383,-21.6579180272835,-10.9582049012726,-301.466032898953
738506.44677630020305514336,-21.6486861781671,-10.9489730521561,-301.419873653371
738506.44677639065776020288,-21.6579180272835,-10.9582049012726,-301.456801049837
738506.44677648111246526241,-21.6486861781671,-10.9489730521561,-301.47526474807
738506.44677657156717032194,-21.6579180272835,-10.9489730521561,-301.438337351604
738506.44677666190546005964,-21.6579180272835,-10.9489730521561,-301.438337351604
738506.44677675236016511917,-21.6579180272835,-10.9582049012726,-301.466032898953
738506.44677684281487017870,-21.6671498764,-10.9582049012726,-301.466032898953
738506.44677693326957523823,-21.6671498764,-10.9489730521561,-301.47526474807
738506.44677702372428029776,-21.6671498764,-10.9674367503891,-301.419873653371
738506.44677711417898535728,-21.6671498764,-10.9489730521561,-301.484496597186
738506.44677720463369041681,-21.6763817255165,-10.9674367503891,-301.47526474807
738506.44677729497198015451,-21.6394543290506,-10.9397412030396,-301.410641804254
738506.44677738542668521404,-21.6302224799341,-10.9674367503891,-301.466032898953
738506.44677747588139027357,-21.6025269325846,-10.9305093539232,-301.484496597186
738506.44677756633609533310,-21.5748313852351,-10.9397412030396,-301.429105502487
738506.44677765679080039263,-21.4917447431867,-10.9212775048067,-301.47526474807
738506.44677774724550545216,-21.5009765923032,-10.9489730521561,-301.466032898953
738506.44677783770021051168,-21.4548173467208,-10.9120456556902,-301.466032898953
738506.44677792803850024939,-21.4917447431867,-10.9397412030396,-301.44756920072
738506.44677801849320530891,-21.5009765923032,-10.9212775048067,-301.47526474807
738506.44677810894791036844,-21.5840632343516,-10.9489730521561,-301.456801049837
738506.44677819940261542797,-21.6302224799341,-10.9489730521561,-301.429105502487
738506.44677828985732048750,-21.6579180272835,-10.9582049012726,-301.484496597186
738506.44677838031202554703,-21.7133091219825,-10.9859004486221,-301.484496597186
738506.44677847076673060656,-21.7133091219825,-10.9582049012726,-301.484496597186
738506.44677856110502034426,-21.7317728202155,-10.9859004486221,-301.456801049837
738506.44677865155972540379,-21.722540971099,-10.9582049012726,-301.484496597186
738506.44677874201443046331,-21.7317728202155,-10.9859004486221,-301.47526474807
738506.44677883246913552284,-21.7133091219825,-10.9674367503891,-301.392178106021
738506.44677892292384058237,-21.722540971099,-10.9766685995056,-301.382946256905
738506.44677901337854564190,-21.7133091219825,-10.9582049012726,-301.346018860439
738506.44677910383325070143,-21.722540971099,-10.9766685995056,-301.336787011322
738506.44677919417154043913,-21.704077272866,-10.9582049012726,-301.392178106021
738506.44677928462624549866,-21.741004669332,-10.9489730521561,-301.401409955138
738506.44677937508095055819,-21.7317728202155,-10.8843501083407,-301.410641804254
738506.44677946553565561771,-21.5194402905362,-10.8197271645253,-301.309091463973
738506.44677955599036067724,-21.0209204382458,-10.7643360698263,-301.318323313089
738506.44677964644506573677,-20.6608783227027,-11.0043641468551,-301.309091463973
738506.44677973689977079630,-20.9286019470809,-11.2536240730003,-301.401409955138
738506.44677982723806053400,-22.0548875392926,-11.3090151676992,-301.595278786584
738506.44677991769276559353,-22.119510483108,-11.059755241554,-301.466032898953
738506.44678000814747065306,-21.8333231604968,-10.9120456556902,-301.44756920072
738506.44678009860217571259,-21.6209906308176,-10.9028138065737,-301.392178106021
738506.44678018905688077211,-21.6025269325846,-10.9028138065737,-301.44756920072
738506.44678027951158583164,-21.6209906308176,-10.9397412030396,-301.419873653371
738506.44678036996629089117,-21.6209906308176,-10.9212775048067,-301.438337351604
738506.44678046030458062887,-21.6302224799341,-10.9305093539232,-301.410641804254
738506.44678055075928568840,-21.6117587817011,-10.9212775048067,-301.456801049837
738506.44678064121399074793,-21.6025269325846,-10.9212775048067,-301.456801049837
738506.44678073166869580746,-21.5840632343516,-10.9120456556902,-301.47526474807
738506.44678082212340086699,-21.5840632343516,-10.9120456556902,-301.466032898953
738506.44678091257810592651,-21.5655995361187,-10.9028138065737,-301.44756920072
738506.44678100303281098604,-21.5563676870022,-10.9028138065737,-301.502960295419
738506.44678109337110072374,-21.5379039887692,-10.9028138065737,-301.466032898953
738506.44678118382580578327,-21.5286721396527,-10.8935819574572,-301.44756920072
738506.44678127428051084280,-21.5286721396527,-10.9028138065737,-301.456801049837
738506.44678136473521590233,-21.5102084414197,-10.8935819574572,-301.502960295419
738506.44678145518992096186,-21.4917447431867,-10.8843501083407,-301.484496597186
738506.44678154564462602139,-21.4732810449538,-10.8658864101077,-301.438337351604
738506.44678163609933108091,-21.4548173467208,-10.8658864101077,-301.456801049837
738506.44678172643762081861,-21.4271217993713,-10.8474227118748,-301.466032898953
738506.44678181689232587814,-21.4178899502548,-10.8566545609912,-301.410641804254
738506.44678190734703093767,-21.3901944029054,-10.8289590136418,-301.47526474807
738506.44678199780173599720,-21.3809625537889,-10.8289590136418,-301.438337351604
738506.44678208825644105673,-21.3440351573229,-10.8104953154088,-301.456801049837
738506.44678217871114611626,-21.3255714590899,-10.8104953154088,-301.410641804254
738506.44678226916585117579,-21.270180364391,-10.7827997680593,-301.429105502487
738506.44678235950414091349,-21.233252967925,-10.7643360698263,-301.299859614856
738506.44678244995884597301,-21.1963255714591,-10.7458723715934,-301.364482558672
738506.44678254041355103254,-21.1686300241096,-10.7274086733604,-301.198309274575
738506.44678263086825609207,-21.1317026276437,-10.7274086733604,-301.207541123691
738506.44678272132296115160,-21.1224707785272,-10.7181768242439,-301.327555162206
738506.44678281177766621113,-21.1224707785272,-10.7181768242439,-301.327555162206
738506.44678290223237127066,-21.1317026276437,-10.7181768242439,-301.299859614856
738506.44678299257066100836,-21.2147892696921,-10.7643360698263,-301.373714407788
738506.44678308302536606789,-21.288644062624,-10.8012634662923,-301.456801049837
738506.44678317348007112741,-21.3809625537889,-10.8474227118748,-301.44756920072
738506.44678326393477618694,-21.4455854976043,-10.8658864101077,-301.401409955138
738506.44678335438948124647,-21.5009765923032,-10.9028138065737,-301.466032898953
738506.44678344484418630600,-21.5379039887692,-10.9120456556902,-301.47526474807
738506.44678353529889136553,-21.5748313852351,-10.9397412030396,-301.382946256905
738506.44678362563718110323,-21.5840632343516,-10.9397412030396,-301.47526474807
738506.44678371609188616276,-21.6025269325846,-10.9582049012726,-301.401409955138
738506.44678380654659122229,-21.5932950834681,-10.9305093539232,-301.429105502487
738506.44678389700129628181,-21.6025269325846,-10.9397412030396,-301.44756920072
738506.44678398745600134134,-21.6117587817011,-10.9489730521561,-301.456801049837
738506.44678407791070640087,-21.6025269325846,-10.9397412030396,-301.466032898953
738506.44678416836541146040,-21.6117587817011,-10.9582049012726,-301.47526474807
738506.44678425870370119810,-21.6025269325846,-10.9397412030396,-301.521423993652
738506.44678434915840625763,-21.6117587817011,-10.9582049012726,-301.410641804254
738506.44678443961311131716,-21.5932950834681,-10.9305093539232,-301.493728446303
738506.44678453006781637669,-21.5932950834681,-10.9582049012726,-301.466032898953
738506.44678462052252143621,-21.5840632343516,-10.9305093539232,-301.438337351604
738506.44678471097722649574,-21.5932950834681,-10.9489730521561,-301.438337351604
738506.44678480143193155527,-21.5748313852351,-10.9397412030396,-301.44756920072
738506.44678489177022129297,-21.5932950834681,-10.9489730521561,-301.456801049837
738506.44678498222492635250,-21.5748313852351,-10.9305093539232,-301.47526474807
738506.44678507267963141203,-21.6025269325846,-10.9582049012726,-301.484496597186
738506.44678516313433647156,-21.5840632343516,-10.9397412030396,-301.558351390118
738506.44678525358904153109,-21.5932950834681,-10.9489730521561,-301.512192144536
738506.44678534404374659061,-21.5840632343516,-10.9305093539232,-301.466032898953
738506.44678543449845165014,-21.6025269325846,-10.9582049012726,-301.521423993652
738506.44678552483674138784,-21.6117587817011,-10.9489730521561,-301.549119541002
738506.44678561529144644737,-21.6209906308176,-10.9674367503891,-301.530655842769
738506.44678570574615150690,-21.6117587817011,-10.9489730521561,-301.512192144536
738506.44678579620085656643,-21.6117587817011,-10.9397412030396,-301.512192144536
738506.44678588665556162596,-21.6302224799341,-10.9674367503891,-301.512192144536
738506.44678597711026668549,-21.6209906308176,-10.9582049012726,-301.558351390118
738506.44678606756497174501,-21.6302224799341,-10.9674367503891,-301.44756920072
738506.44678615790326148272,-21.6209906308176,-10.9397412030396,-301.429105502487
738506.44678624835796654224,-21.6394543290506,-10.9674367503891,-301.549119541002
738506.44678633881267160177,-21.6394543290506,-10.9582049012726,-301.530655842769
738506.44678642926737666130,-21.6394543290506,-10.9766685995056,-301.530655842769
738506.44678651972208172083,-21.6302224799341,-10.9397412030396,-301.530655842769
738506.44678661017678678036,-21.6486861781671,-10.9674367503891,-301.502960295419
738506.44678670063149183989,-21.6394543290506,-10.9582049012726,-301.530655842769
738506.44678679096978157759,-21.6486861781671,-10.9489730521561,-301.549119541002
738506.44678688142448663712,-21.6394543290506,-10.9582049012726,-301.47526474807
738506.44678697187919169664,-21.6394543290506,-10.9582049012726,-301.502960295419
738506.44678706233389675617,-21.6394543290506,-10.9582049012726,-301.512192144536
738506.44678715278860181570,-21.6486861781671,-10.9582049012726,-301.438337351604
738506.44678724324330687523,-21.6394543290506,-10.9582049012726,-301.44756920072
738506.44678733369801193476,-21.6394543290506,-10.9582049012726,-301.484496597186
738506.44678742403630167246,-21.6486861781671,-10.9674367503891,-301.493728446303
738506.44678751449100673199,-21.6486861781671,-10.9582049012726,-301.47526474807
738506.44678760494571179152,-21.6579180272835,-10.9674367503891,-301.493728446303
738506.44678769540041685104,-21.6394543290506,-10.9582049012726,-301.502960295419
738506.44678778585512191057,-21.6486861781671,-10.9582049012726,-301.456801049837
738506.44678787630982697010,-21.6394543290506,-10.9582049012726,-301.530655842769
738506.44678796676453202963,-21.6209906308176,-10.9674367503891,-301.502960295419
738506.44678805710282176733,-21.5932950834681,-10.9582049012726,-301.549119541002
738506.44678814755752682686,-21.5840632343516,-10.9397412030396,-301.438337351604
738506.44678823801223188639,-21.5563676870022,-10.9397412030396,-301.438337351604
738506.44678832846693694592,-21.5102084414197,-10.9305093539232,-301.44756920072
738506.44678841892164200544,-21.5009765923032,-10.9397412030396,-301.401409955138
738506.44678850937634706497,-21.4732810449538,-10.9212775048067,-301.429105502487
738506.44678859983105212450,-21.4640491958373,-10.9305093539232,-301.47526474807
738506.44678869016934186220,-21.5009765923032,-10.9212775048067,-301.47526474807
738506.44678878062404692173,-21.5840632343516,-10.9397412030396,-301.484496597186
738506.44678887107875198126,-21.6302224799341,-10.9397412030396,-301.549119541002
738506.44678896153345704079,-21.6763817255165,-10.9674367503891,-301.493728446303
738506.44678905198816210032,-21.6948454237495,-10.9582049012726,-301.47526474807
738506.44678914244286715984,-21.6948454237495,-10.9674367503891,-301.521423993652
738506.44678923289757221937,-21.6948454237495,-10.9489730521561,-301.549119541002
738506.44678932323586195707,-21.704077272866,-10.9674367503891,-301.419873653371
738506.44678941369056701660,-21.704077272866,-10.9489730521561,-301.502960295419
738506.44678950414527207613,-21.704077272866,-10.9582049012726,-301.484496597186
738506.44678959459997713566,-21.704077272866,-10.9674367503891,-301.47526474807
738506.44678968505468219519,-21.704077272866,-10.9489730521561,-301.401409955138
738506.44678977550938725471,-21.704077272866,-10.9489730521561,-301.429105502487
738506.44678986596409231424,-21.6948454237495,-10.9397412030396,-301.512192144536
738506.44678995630238205194,-21.722540971099,-10.9397412030396,-301.530655842769
738506.44679004675708711147,-21.704077272866,-10.8566545609912,-301.466032898953
738506.44679013721179217100,-21.4640491958373,-10.8012634662923,-301.438337351604
738506.44679022766649723053,-20.9655293435469,-10.7827997680593,-301.382946256905
738506.44679031812120229006,-20.6239509262368,-11.078218939787,-301.419873653371
738506.44679040857590734959,-21.0209204382458,-11.2536240730003,-301.44756920072
738506.44679049903061240911,-22.0456556901761,-11.2443922238838,-301.63220618305
738506.44679058936890214682,-22.0179601428266,-10.9766685995056,-301.549119541002
738506.44679067982360720634,-21.722540971099,-10.9028138065737,-301.429105502487
738506.44679077027831226587,-21.5655995361187,-10.8935819574572,-301.484496597186
738506.44679086073301732540,-21.5932950834681,-10.9305093539232,-301.484496597186
738506.44679095118772238493,-21.6025269325846,-10.9028138065737,-301.429105502487
738506.44679104164242744446,-21.6117587817011,-10.9305093539232,-301.502960295419
738506.44679113209713250399,-21.6025269325846,-10.9120456556902,-301.493728446303
738506.44679122243542224169,-21.6025269325846,-10.9120456556902,-301.456801049837
738506.44679131289012730122,-21.5840632343516,-10.9028138065737,-301.429105502487
738506.44679140334483236074,-21.5840632343516,-10.9028138065737,-301.484496597186
738506.44679149379953742027,-21.5748313852351,-10.9028138065737,-301.493728446303
738506.44679158425424247980,-21.5563676870022,-10.8843501083407,-301.438337351604
738506.44679167470894753933,-21.5655995361187,-10.9120456556902,-301.47526474807
738506.44679176516365259886,-21.5286721396527,-10.8843501083407,-301.493728446303
738506.44679185550194233656,-21.5286721396527,-10.8935819574572,-301.410641804254
738506.44679194595664739609,-21.5009765923032,-10.8751182592242,-301.392178106021
738506.44679203641135245562,-21.5102084414197,-10.8935819574572,-301.410641804254
738506.44679212686605751514,-21.4732810449538,-10.8751182592242,-301.401409955138
738506.44679221732076257467,-21.4640491958373,-10.8751182592242,-301.382946256905
738506.44679230777546763420,-21.4363536484878,-10.8474227118748,-301.382946256905
738506.44679239823017269373,-21.4271217993713,-10.8658864101077,-301.392178106021
738506.44679248856846243143,-21.3901944029054,-10.8289590136418,-301.419873653371
738506.44679257902316749096,-21.3809625537889,-10.8381908627583,-301.401409955138
738506.44679266947787255049,-21.3532670064394,-10.8289590136418,-301.438337351604
738506.44679275993257761002,-21.3255714590899,-10.8012634662923,-301.401409955138
738506.44679285038728266954,-21.2794122135075,-10.7827997680593,-301.438337351604
738506.44679294084198772907,-21.251716666158,-10.7735679189428,-301.336787011322
738506.44679303129669278860,-21.2055574205756,-10.7551042207099,-301.355250709555
738506.44679312163498252630,-21.1686300241096,-10.7366405224769,-301.152150028993
738506.44679321208968758583,-21.1593981749931,-10.7458723715934,-301.198309274575
738506.44679330254439264536,-21.1224707785272,-10.7181768242439,-301.327555162206
738506.44679339299909770489,-21.1040070802942,-10.7366405224769,-301.318323313089
738506.44679348345380276442,-21.0855433820612,-10.7181768242439,-301.327555162206
738506.44679357390850782394,-21.1224707785272,-10.7458723715934,-301.346018860439
738506.44679366436321288347,-21.1593981749931,-10.7643360698263,-301.364482558672
738506.44679375481791794300,-21.2609485152745,-10.8104953154088,-301.44756920072
738506.44679384515620768070,-21.3532670064394,-10.8381908627583,-301.502960295419
738506.44679393561091274023,-21.4271217993713,-10.8751182592242,-301.419873653371
738506.44679402606561779976,-21.5009765923032,-10.8935819574572,-301.466032898953
738506.44679411652032285929,-21.5471358378857,-10.9120456556902,-301.502960295419
738506.44679420697502791882,-21.5655995361187,-10.9305093539232,-301.47526474807
738506.44679429742973297834,-21.5932950834681,-10.9305093539232,-301.512192144536
738506.44679438788443803787,-21.5932950834681,-10.9489730521561,-301.502960295419
738506.44679447822272777557,-21.6025269325846,-10.9397412030396,-301.521423993652
738506.44679456867743283510,-21.6025269325846,-10.9489730521561,-301.466032898953
738506.44679465913213789463,-21.6025269325846,-10.9305093539232,-301.549119541002
738506.44679474958684295416,-21.6025269325846,-10.9489730521561,-301.521423993652
738506.44679484004154801369,-21.5932950834681,-10.9305093539232,-301.438337351604
738506.44679493049625307322,-21.6025269325846,-10.9582049012726,-301.502960295419
738506.44679502095095813274,-21.5932950834681,-10.9305093539232,-301.549119541002
738506.44679511128924787045,-21.6025269325846,-10.9397412030396,-301.512192144536
738506.44679520174395292997,-21.5840632343516,-10.9305093539232,-301.466032898953
738506.44679529219865798950,-21.5932950834681,-10.9305093539232,-301.521423993652
738506.44679538265336304903,-21.5932950834681,-10.9489730521561,-301.530655842769
738506.44679547310806810856,-21.5932950834681,-10.9305093539232,-301.47526474807
738506.44679556356277316809,-21.5932950834681,-10.9489730521561,-301.521423993652
738506.44679565401747822762,-21.5840632343516,-10.9305093539232,-301.530655842769
738506.44679574435576796532,-21.5932950834681,-10.9397412030396,-301.521423993652
738506.44679583481047302485,-21.5840632343516,-10.9305093539232,-301.484496597186
738506.44679592526517808437,-21.5932950834681,-10.9489730521561,-301.530655842769
738506.44679601571988314390,-21.5932950834681,-10.9397412030396,-301.530655842769
738506.44679610617458820343,-21.6025269325846,-10.9489730521561,-301.47526474807
738506.44679619662929326296,-21.5932950834681,-10.9305093539232,-301.493728446303
738506.44679628708399832249,-21.6117587817011,-10.9582049012726,-301.382946256905
738506.44679637742228806019,-21.6117587817011,-10.9397412030396,-301.419873653371
738506.44679646787699311972,-21.6209906308176,-10.9582049012726,-301.392178106021
738506.44679655833169817924,-21.6117587817011,-10.9305093539232,-301.410641804254
738506.44679664878640323877,-21.6302224799341,-10.9582049012726,-301.26293221839
738506.44679673924110829830,-21.6117587817011,-10.9397412030396,-301.401409955138
738506.44679682969581335783,-21.6302224799341,-10.9582049012726,-301.438337351604
738506.44679692015051841736,-21.6117587817011,-10.9397412030396,-301.410641804254
738506.44679701048880815506,-21.6209906308176,-10.9397412030396,-301.466032898953
738506.44679710094351321459,-21.6394543290506,-10.9582049012726,-301.484496597186
738506.44679719139821827412,-21.6302224799341,-10.9489730521561,-301.466032898953
738506.44679728185292333364,-21.6302224799341,-10.9582049012726,-301.410641804254
738506.44679737230762839317,-21.6302224799341,-10.9397412030396,-301.438337351604
738506.44679746276233345270,-21.6486861781671,-10.9674367503891,-301.438337351604
738506.44679755321703851223,-21.6302224799341,-10.9489730521561,-301.466032898953
738506.44679764355532824993,-21.6486861781671,-10.9674367503891,-301.456801049837
738506.44679773401003330946,-21.6394543290506,-10.9489730521561,-301.47526474807
738506.44679782446473836899,-21.6579180272835,-10.9859004486221,-301.47526474807
738506.44679791491944342852,-21.6394543290506,-10.9582049012726,-301.484496597186
738506.44679800537414848804,-21.6579180272835,-10.9582049012726,-301.512192144536
738506.44679809582885354757,-21.6394543290506,-10.9397412030396,-301.512192144536
738506.44679818628355860710,-21.6486861781671,-10.9582049012726,-301.521423993652
738506.44679827662184834480,-21.6394543290506,-10.9489730521561,-301.484496597186
738506.44679836707655340433,-21.6486861781671,-10.9674367503891,-301.530655842769
738506.44679845753125846386,-21.6394543290506,-10.9674367503891,-301.549119541002
738506.44679854798596352339,-21.6486861781671,-10.9489730521561,-301.44756920072
738506.44679863844066858292,-21.6486861781671,-10.9582049012726,-301.530655842769
738506.44679872889537364244,-21.6486861781671,-10.9674367503891,-301.549119541002
738506.44679881935007870197,-21.6579180272835,-10.9859004486221,-301.502960295419
738506.44679890968836843967,-21.6486861781671,-10.9489730521561,-301.484496597186
738506.44679900014307349920,-21.6579180272835,-10.9674367503891,-301.530655842769
738506.44679909059777855873,-21.6486861781671,-10.9489730521561,-301.530655842769
738506.44679918105248361826,-21.6579180272835,-10.9766685995056,-301.438337351604
738506.44679927150718867779,-21.6394543290506,-10.9674367503891,-301.530655842769
738506.44679936196189373732,-21.6486861781671,-10.9674367503891,-301.512192144536
738506.44679945241659879684,-21.6394543290506,-10.9489730521561,-301.484496597186
738506.44679954275488853455,-21.6579180272835,-10.9674367503891,-301.410641804254
738506.44679963320959359407,-21.6486861781671,-10.9582049012726,-301.44756920072
738506.44679972366429865360,-21.6486861781671,-10.9582049012726,-301.44756920072
738506.44679981411900371313,-21.6486861781671,-10.9489730521561,-301.419873653371
738506.44679990457370877266,-21.6579180272835,-10.9674367503891,-301.502960295419
738506.44679999502841383219,-21.6579180272835,-10.9674367503891,-301.512192144536
738506.44680008548311889172,-21.6486861781671,-10.9489730521561,-301.493728446303
738506.44680017582140862942,-21.6486861781671,-10.9674367503891,-301.346018860439
738506.44680026627611368895,-21.6486861781671,-10.9582049012726,-301.44756920072
738506.44680035673081874847,-21.6579180272835,-10.9674367503891,-301.410641804254
738506.44680044718552380800,-21.6486861781671,-10.9397412030396,-301.47526474807
738506.44680053764022886753,-21.6579180272835,-10.9674367503891,-301.521423993652
738506.44680062809493392706,-21.6486861781671,-10.9489730521561,-301.484496597186
738506.44680071854963898659,-21.6579180272835,-10.9674367503891,-301.438337351604
738506.44680080888792872429,-21.6394543290506,-10.9489730521561,-301.466032898953
738506.44680089934263378382,-21.6579180272835,-10.9582049012726,-301.47526474807
738506.44680098979733884335,-21.6579180272835,-10.9489730521561,-301.512192144536
738506.44680108025204390287,-21.6579180272835,-10.9489730521561,-301.502960295419
738506.44680117070674896240,-21.6579180272835,-10.9674367503891,-301.47526474807
738506.44680126116145402193,-21.6579180272835,-10.9489730521561,-301.512192144536
738506.44680135161615908146,-21.6486861781671,-10.9489730521561,-301.502960295419
738506.44680144195444881916,-21.6209906308176,-10.9305093539232,-301.539887691885
738506.44680153240915387869,-21.6025269325846,-10.9489730521561,-301.512192144536
738506.44680162286385893822,-21.5840632343516,-10.9305093539232,-301.502960295419
738506.44680171331856399775,-21.5379039887692,-10.9305093539232,-301.539887691885
738506.44680180377326905727,-21.5009765923032,-10.9120456556902,-301.466032898953
738506.44680189422797411680,-21.5102084414197,-10.9397412030396,-301.484496597186
738506.44680198468267917633,-21.4732810449538,-10.9028138065737,-301.493728446303
738506.44680207502096891403,-21.4917447431867,-10.9305093539232,-301.493728446303
738506.44680216547567397356,-21.5286721396527,-10.9028138065737,-301.456801049837
738506.44680225593037903309,-21.6209906308176,-10.9489730521561,-301.512192144536
738506.44680234638508409262,-21.6394543290506,-10.9397412030396,-301.521423993652
738506.44680243683978915215,-21.685613574633,-10.9766685995056,-301.47526474807
738506.44680252729449421167,-21.685613574633,-10.9489730521561,-301.484496597186
738506.44680261774919927120,-21.685613574633,-10.9674367503891,-301.44756920072
738506.44680270808748900890,-21.704077272866,-10.9674367503891,-301.438337351604
738506.44680279854219406843,-21.6948454237495,-10.9489730521561,-301.429105502487
738506.44680288899689912796,-21.7133091219825,-10.9766685995056,-301.429105502487
738506.44680297945160418749,-21.704077272866,-10.9489730521561,-301.493728446303
738506.44680306990630924702,-21.7133091219825,-10.9766685995056,-301.512192144536
738506.44680316036101430655,-21.704077272866,-10.9582049012726,-301.493728446303
738506.44680325081571936607,-21.704077272866,-10.9766685995056,-301.521423993652
738506.44680334115400910378,-21.704077272866,-10.9582049012726,-301.549119541002
738506.44680343160871416330,-21.722540971099,-10.9582049012726,-301.521423993652
738506.44680352206341922283,-21.741004669332,-10.8843501083407,-301.484496597186
738506.44680361251812428236,-21.5471358378857,-10.8381908627583,-301.410641804254
738506.44680370297282934189,-21.0670796838282,-10.7735679189428,-301.299859614856
738506.44680379342753440142,-20.6978057191687,-11.022827845088,-301.346018860439
738506.44680388388223946095,-20.8085879085665,-11.2259285256508,-301.382946256905
738506.44680397422052919865,-21.8979461043123,-11.2720877712333,-301.576815088351
738506.44680406467523425817,-22.0271919919431,-11.022827845088,-301.567583239235
738506.44680415512993931770,-21.7779320657979,-10.9120456556902,-301.502960295419
738506.44680424558464437723,-21.5748313852351,-10.9028138065737,-301.521423993652
738506.44680433603934943676,-21.5840632343516,-10.9212775048067,-301.539887691885
738506.44680442649405449629,-21.5932950834681,-10.9397412030396,-301.539887691885
738506.44680451694875955582,-21.6025269325846,-10.9028138065737,-301.47526474807
738506.44680460728704929352,-21.6117587817011,-10.9305093539232,-301.484496597186
738506.44680469774175435305,-21.5932950834681,-10.9028138065737,-301.512192144536
738506.44680478819645941257,-21.5932950834681,-10.9212775048067,-301.401409955138
738506.44680487865116447210,-21.5748313852351,-10.8935819574572,-301.410641804254
738506.44680496910586953163,-21.5748313852351,-10.9120456556902,-301.429105502487
738506.44680505956057459116,-21.5563676870022,-10.8935819574572,-301.429105502487
738506.44680515001527965069,-21.5655995361187,-10.9120456556902,-301.44756920072
738506.44680524035356938839,-21.5471358378857,-10.8843501083407,-301.410641804254
738506.44680533080827444792,-21.5379039887692,-10.9028138065737,-301.410641804254
738506.44680542126297950745,-21.5194402905362,-10.8751182592242,-301.484496597186
738506.44680551171768456697,-21.5194402905362,-10.8935819574572,-301.410641804254
738506.44680560217238962650,-21.4917447431867,-10.8751182592242,-301.419873653371
738506.44680569262709468603,-21.4917447431867,-10.8751182592242,-301.419873653371
738506.44680578308179974556,-21.4548173467208,-10.8658864101077,-301.410641804254
738506.44680587342008948326,-21.4455854976043,-10.8566545609912,-301.429105502487
738506.44680596387479454279,-21.4178899502548,-10.8566545609912,-301.456801049837
738506.44680605432949960232,-21.3901944029054,-10.8289590136418,-301.466032898953
738506.44680614478420466185,-21.3717307046724,-10.8197271645253,-301.429105502487
738506.44680623523890972137,-21.3532670064394,-10.8012634662923,-301.44756920072
738506.44680632569361478090,-21.3440351573229,-10.8104953154088,-301.419873653371
738506.44680641614831984043,-21.2978759117405,-10.7827997680593,-301.373714407788
738506.44680650648660957813,-21.2609485152745,-10.7827997680593,-301.419873653371
738506.44680659694131463766,-21.2147892696921,-10.7551042207099,-301.438337351604
738506.44680668739601969719,-21.1963255714591,-10.7366405224769,-301.373714407788
738506.44680677785072475672,-21.1686300241096,-10.7274086733604,-301.419873653371
738506.44680686830542981625,-21.1501663258766,-10.7181768242439,-301.429105502487
738506.44680695876013487577,-21.1224707785272,-10.7181768242439,-301.382946256905
738506.44680704921483993530,-21.1224707785272,-10.7181768242439,-301.382946256905
738506.44680713955312967300,-21.1409344767602,-10.7366405224769,-301.410641804254
738506.44680723000783473253,-21.2055574205756,-10.7643360698263,-301.299859614856
738506.44680732046253979206,-21.2978759117405,-10.8012634662923,-301.346018860439
738506.44680741091724485159,-21.3717307046724,-10.8289590136418,-301.493728446303
738506.44680750137194991112,-21.4455854976043,-10.8843501083407,-301.466032898953
738506.44680759182665497065,-21.5009765923032,-10.8751182592242,-301.484496597186
738506.44680768228136003017,-21.5563676870022,-10.9028138065737,-301.466032898953
738506.44680777261964976788,-21.5655995361187,-10.9028138065737,-301.502960295419
738506.44680786307435482740,-21.5932950834681,-10.9305093539232,-301.47526474807
738506.44680795352905988693,-21.5932950834681,-10.9305093539232,-301.438337351604
738506.44680804398376494646,-21.6117587817011,-10.9397412030396,-301.419873653371
738506.44680813443847000599,-21.6025269325846,-10.9212775048067,-301.429105502487
738506.44680822489317506552,-21.6117587817011,-10.9305093539232,-301.419873653371
738506.44680831534788012505,-21.6117587817011,-10.9397412030396,-301.429105502487
738506.44680840568616986275,-21.6025269325846,-10.9305093539232,-301.493728446303
738506.44680849614087492228,-21.6117587817011,-10.9489730521561,-301.438337351604
738506.44680858659557998180,-21.6117587817011,-10.9489730521561,-301.419873653371
738506.44680867705028504133,-21.6117587817011,-10.9582049012726,-301.484496597186
738506.44680876750499010086,-21.6025269325846,-10.9028138065737,-301.512192144536
738506.44680885795969516039,-21.6025269325846,-10.9212775048067,-301.493728446303
738506.44680894841440021992,-21.6025269325846,-10.9120456556902,-301.438337351604
738506.44680903875268995762,-21.6117587817011,-10.9397412030396,-301.47526474807
738506.44680912920739501715,-21.6117587817011,-10.9212775048067,-301.549119541002
738506.44680921966210007668,-21.6209906308176,-10.9397412030396,-301.438337351604
738506.44680931011680513620,-21.6117587817011,-10.9212775048067,-301.512192144536
738506.44680940057151019573,-21.6302224799341,-10.9489730521561,-301.521423993652
738506.44680949102621525526,-21.6209906308176,-10.9212775048067,-301.521423993652
738506.44680958148092031479,-21.6302224799341,-10.9397412030396,-301.47526474807
738506.44680967181921005249,-21.6209906308176,-10.9212775048067,-301.521423993652
738506.44680976227391511202,-21.6209906308176,-10.9397412030396,-301.530655842769
738506.44680985272862017155,-21.6209906308176,-10.9305093539232,-301.410641804254
738506.44680994318332523108,-21.6486861781671,-10.9582049012726,-301.47526474807
738506.44681003363803029060,-21.6394543290506,-10.9212775048067,-301.512192144536
738506.44681012409273535013,-21.6394543290506,-10.9305093539232,-301.539887691885
738506.44681021454744040966,-21.6486861781671,-10.9489730521561,-301.549119541002
738506.44681030488573014736,-21.6394543290506,-10.9305093539232,-301.530655842769
738506.44681039534043520689,-21.6671498764,-10.9674367503891,-301.512192144536
738506.44681048579514026642,-21.6486861781671,-10.9489730521561,-301.539887691885
738506.44681057624984532595,-21.6579180272835,-10.9582049012726,-301.539887691885
738506.44681066670455038548,-21.6671498764,-10.9397412030396,-301.47526474807
738506.44681075715925544500,-21.6579180272835,-10.9582049012726,-301.44756920072
738506.44681084761396050453,-21.6579180272835,-10.9489730521561,-301.410641804254
738506.44681093795225024223,-21.6671498764,-10.9674367503891,-301.484496597186
738506.44681102840695530176,-21.6579180272835,-10.9489730521561,-301.392178106021
738506.44681111886166036129,-21.6763817255165,-10.9489730521561,-301.493728446303
738506.44681120931636542082,-21.6763817255165,-10.9489730521561,-301.502960295419
738506.44681129977107048035,-21.6671498764,-10.9582049012726,-301.47526474807
738506.44681139022577553988,-21.6671498764,-10.9582049012726,-301.484496597186
738506.44681148068048059940,-21.6671498764,-10.9489730521561,-301.484496597186
738506.44681157101877033710,-21.6671498764,-10.9582049012726,-301.493728446303
738506.44681166147347539663,-21.6763817255165,-10.9582049012726,-301.382946256905
738506.44681175192818045616,-21.6763817255165,-10.9582049012726,-301.493728446303
738506.44681184238288551569,-21.685613574633,-10.9489730521561,-301.493728446303
738506.44681193283759057522,-21.685613574633,-10.9674367503891,-301.484496597186
738506.44681202329229563475,-21.6763817255165,-10.9489730521561,-301.438337351604
738506.44681211374700069427,-21.6763817255165,-10.9674367503891,-301.502960295419
738506.44681220408529043198,-21.6671498764,-10.9582049012726,-301.502960295419
738506.44681229453999549150,-21.685613574633,-10.9674367503891,-301.466032898953
738506.44681238499470055103,-21.6948454237495,-10.9489730521561,-301.493728446303
738506.44681247544940561056,-21.6948454237495,-10.9582049012726,-301.502960295419
738506.44681256590411067009,-21.6763817255165,-10.9397412030396,-301.502960295419
738506.44681265635881572962,-21.6763817255165,-10.9489730521561,-301.466032898953
738506.44681274681352078915,-21.6763817255165,-10.9489730521561,-301.502960295419
738506.44681283715181052685,-21.685613574633,-10.9489730521561,-301.493728446303
738506.44681292760651558638,-21.6763817255165,-10.9489730521561,-301.429105502487
738506.44681301806122064590,-21.6763817255165,-10.9489730521561,-301.493728446303
738506.44681310851592570543,-21.685613574633,-10.9489730521561,-301.493728446303
738506.44681319897063076496,-21.6763817255165,-10.9397412030396,-301.456801049837
738506.44681328942533582449,-21.685613574633,-10.9582049012726,-301.373714407788
738506.44681337988004088402,-21.685613574633,-10.9489730521561,-301.493728446303
738506.44681347021833062172,-21.6948454237495,-10.9582049012726,-301.493728446303
738506.44681356067303568125,-21.6671498764,-10.9489730521561,-301.502960295419
738506.44681365112774074078,-21.685613574633,-10.9766685995056,-301.44756920072
738506.44681374158244580030,-21.6948454237495,-10.9489730521561,-301.493728446303
738506.44681383203715085983,-21.6948454237495,-10.9582049012726,-301.493728446303
738506.44681392249185591936,-21.685613574633,-10.9489730521561,-301.47526474807
738506.44681401294656097889,-21.685613574633,-10.9582049012726,-301.47526474807
738506.44681410328485071659,-21.685613574633,-10.9489730521561,-301.493728446303
738506.44681419373955577612,-21.685613574633,-10.9489730521561,-301.484496597186
738506.44681428419426083565,-21.6948454237495,-10.9674367503891,-301.373714407788
738506.44681437464896589518,-21.685613574633,-10.9582049012726,-301.382946256905
738506.44681446510367095470,-21.6948454237495,-10.9674367503891,-301.47526474807
738506.44681455555837601423,-21.685613574633,-10.9489730521561,-301.429105502487
738506.44681464601308107376,-21.685613574633,-10.9674367503891,-301.484496597186
738506.44681473635137081146,-21.6579180272835,-10.9397412030396,-301.493728446303
738506.44681482680607587099,-21.6394543290506,-10.9582049012726,-301.456801049837
738506.44681491726078093052,-21.6302224799341,-10.9305093539232,-301.493728446303
738506.44681500771548599005,-21.5840632343516,-10.9305093539232,-301.484496597186
738506.44681509817019104958,-21.5379039887692,-10.9120456556902,-301.502960295419
738506.44681518862489610910,-21.5286721396527,-10.9582049012726,-301.47526474807
738506.44681527907960116863,-21.5194402905362,-10.9212775048067,-301.521423993652
738506.44681536941789090633,-21.5102084414197,-10.9489730521561,-301.484496597186
738506.44681545987259596586,-21.5563676870022,-10.9212775048067,-301.438337351604
738506.44681555032730102539,-21.6302224799341,-10.9489730521561,-301.484496597186
738506.44681564078200608492,-21.6671498764,-10.9397412030396,-301.493728446303
738506.44681573123671114445,-21.685613574633,-10.9397412030396,-301.493728446303
738506.44681582169141620398,-21.7133091219825,-10.9674367503891,-301.438337351604
738506.44681591214612126350,-21.704077272866,-10.9489730521561,-301.512192144536
738506.44681600248441100121,-21.7317728202155,-10.9766685995056,-301.493728446303
738506.44681609293911606073,-21.7317728202155,-10.9397412030396,-301.466032898953
738506.44681618339382112026,-21.7317728202155,-10.9766685995056,-301.493728446303
738506.44681627384852617979,-21.722540971099,-10.9489730521561,-301.502960295419
738506.44681636430323123932,-21.741004669332,-10.9766685995056,-301.47526474807
738506.44681645475793629885,-21.741004669332,-10.9397412030396,-301.493728446303
738506.44681654521264135838,-21.7502365184484,-10.9582049012726,-301.484496597186
738506.44681663555093109608,-21.722540971099,-10.9397412030396,-301.47526474807
738506.44681672600563615561,-21.741004669332,-10.9489730521561,-301.401409955138
738506.44681681646034121513,-21.7594683675649,-10.8843501083407,-301.419873653371
738506.44681690691504627466,-21.6117587817011,-10.8381908627583,-301.373714407788
738506.44681699736975133419,-21.1593981749931,-10.7643360698263,-301.29062776574
738506.44681708782445639372,-20.7624286629841,-10.9305093539232,-301.346018860439
738506.44681717827916145325,-20.6978057191687,-11.1982329783013,-301.410641804254
738506.44681726861745119095,-21.9071779534288,-11.2813196203497,-301.549119541002
738506.44681735907215625048,-22.1749015778069,-11.09668263802,-301.521423993652
738506.44681744952686131001,-21.9533371990112,-10.9305093539232,-301.456801049837
738506.44681753998156636953,-21.8056276131474,-10.9120456556902,-301.484496597186
738506.44681763043627142906,-21.6302224799341,-10.8843501083407,-301.530655842769
738506.44681772089097648859,-21.6486861781671,-10.9120456556902,-301.456801049837
738506.44681781134568154812,-21.6579180272835,-10.9028138065737,-301.410641804254
738506.44681790168397128582,-21.6579180272835,-10.9120456556902,-301.364482558672
738506.44681799213867634535,-21.6394543290506,-10.9028138065737,-301.47526474807
738506.44681808259338140488,-21.6486861781671,-10.9120456556902,-301.410641804254
738506.44681817304808646441,-21.6117587817011,-10.8935819574572,-301.456801049837
738506.44681826350279152393,-21.6117587817011,-10.9028138065737,-301.456801049837
738506.44681835395749658346,-21.6025269325846,-10.8843501083407,-301.429105502487
738506.44681844441220164299,-21.5932950834681,-10.8935819574572,-301.410641804254
738506.44681853475049138069,-21.5840632343516,-10.8751182592242,-301.410641804254
738506.44681862520519644022,-21.5748313852351,-10.8751182592242,-301.410641804254
738506.44681871565990149975,-21.5563676870022,-10.8751182592242,-301.401409955138
738506.44681880611460655928,-21.5471358378857,-10.8658864101077,-301.438337351604
738506.44681889656931161880,-21.5379039887692,-10.8751182592242,-301.438337351604
738506.44681898702401667833,-21.5102084414197,-10.8566545609912,-301.410641804254
738506.44681907747872173786,-21.4825128940703,-10.8566545609912,-301.410641804254
738506.44681916781701147556,-21.4825128940703,-10.8474227118748,-301.438337351604
738506.44681925827171653509,-21.4825128940703,-10.8381908627583,-301.44756920072
738506.44681934872642159462,-21.4455854976043,-10.8197271645253,-301.484496597186
738506.44681943918112665415,-21.4455854976043,-10.8197271645253,-301.493728446303
738506.44681952963583171368,-21.4086581011383,-10.8104953154088,-301.373714407788
738506.44681962009053677320,-21.3717307046724,-10.8012634662923,-301.429105502487
738506.44681971054524183273,-21.3440351573229,-10.7735679189428,-301.438337351604
738506.44681980088353157043,-21.3255714590899,-10.7735679189428,-301.419873653371
738506.44681989133823662996,-21.2978759117405,-10.7551042207099,-301.382946256905
738506.44681998179294168949,-21.2609485152745,-10.7366405224769,-301.419873653371
738506.44682007224764674902,-21.2424848170415,-10.7366405224769,-301.401409955138
738506.44682016270235180855,-21.2147892696921,-10.7181768242439,-301.346018860439
738506.44682025315705686808,-21.2055574205756,-10.7274086733604,-301.410641804254
738506.44682034361176192760,-21.1963255714591,-10.7089449751274,-301.373714407788
738506.44682043395005166531,-21.2240211188086,-10.7458723715934,-301.309091463973
738506.44682052440475672483,-21.2794122135075,-10.7643360698263,-301.401409955138
738506.44682061485946178436,-21.3440351573229,-10.8104953154088,-301.401409955138
738506.44682070531416684389,-21.4178899502548,-10.8289590136418,-301.382946256905
738506.44682079576887190342,-21.4917447431867,-10.8751182592242,-301.438337351604
738506.44682088622357696295,-21.5286721396527,-10.8843501083407,-301.466032898953
738506.44682097667828202248,-21.5932950834681,-10.9305093539232,-301.438337351604
738506.44682106701657176018,-21.6025269325846,-10.9120456556902,-301.456801049837
738506.44682115747127681971,-21.6302224799341,-10.9397412030396,-301.410641804254
738506.44682124792598187923,-21.6302224799341,-10.9212775048067,-301.401409955138
738506.44682133838068693876,-21.6302224799341,-10.9305093539232,-301.429105502487
738506.44682142883539199829,-21.6394543290506,-10.9397412030396,-301.309091463973
738506.44682151929009705782,-21.6302224799341,-10.9212775048067,-301.429105502487
738506.44682160974480211735,-21.6302224799341,-10.9305093539232,-301.382946256905
738506.44682170008309185505,-21.6209906308176,-10.9305093539232,-301.392178106021
738506.44682179053779691458,-21.6209906308176,-10.9397412030396,-301.392178106021
738506.44682188099250197411,-21.6117587817011,-10.9212775048067,-301.392178106021
738506.44682197144720703363,-21.6209906308176,-10.9305093539232,-301.373714407788
738506.44682206190191209316,-21.6025269325846,-10.9120456556902,-301.382946256905
738506.44682215235661715269,-21.6209906308176,-10.9489730521561,-301.419873653371
738506.44682224281132221222,-21.6025269325846,-10.9028138065737,-301.44756920072
738506.44682233314961194992,-21.6209906308176,-10.9305093539232,-301.429105502487
738506.44682242360431700945,-21.6117587817011,-10.9212775048067,-301.466032898953
738506.44682251405902206898,-21.6117587817011,-10.9305093539232,-301.429105502487
738506.44682260451372712851,-21.6025269325846,-10.9120456556902,-301.466032898953
738506.44682269496843218803,-21.6302224799341,-10.9305093539232,-301.419873653371
738506.44682278542313724756,-21.6209906308176,-10.9212775048067,-301.419873653371
738506.44682287587784230709,-21.6209906308176,-10.9305093539232,-301.493728446303
738506.44682296621613204479,-21.6302224799341,-10.9212775048067,-301.44756920072
738506.44682305667083710432,-21.6302224799341,-10.9305093539232,-301.429105502487
738506.44682314712554216385,-21.6394543290506,-10.9397412030396,-301.410641804254
738506.44682323758024722338,-21.6394543290506,-10.9305093539232,-301.47526474807
738506.44682332803495228291,-21.6486861781671,-10.9397412030396,-301.456801049837
738506.44682341848965734243,-21.6394543290506,-10.9212775048067,-301.484496597186
738506.44682350894436240196,-21.6486861781671,-10.9397412030396,-301.44756920072
738506.44682359928265213966,-21.6394543290506,-10.9212775048067,-301.484496597186
738506.44682368973735719919,-21.6579180272835,-10.9397412030396,-301.456801049837
738506.44682378019206225872,-21.6486861781671,-10.9212775048067,-301.502960295419
738506.44682387064676731825,-21.6579180272835,-10.9397412030396,-301.512192144536
738506.44682396110147237778,-21.6394543290506,-10.9212775048067,-301.512192144536
738506.44682405155617743731,-21.6579180272835,-10.9397412030396,-301.466032898953
738506.44682414201088249683,-21.6486861781671,-10.9212775048067,-301.493728446303
738506.44682423234917223454,-21.6579180272835,-10.9397412030396,-301.502960295419
738506.44682432280387729406,-21.6579180272835,-10.9305093539232,-301.512192144536
738506.44682441325858235359,-21.6671498764,-10.9397412030396,-301.539887691885
738506.44682450371328741312,-21.6579180272835,-10.9397412030396,-301.521423993652
738506.44682459416799247265,-21.6579180272835,-10.9305093539232,-301.456801049837
738506.44682468462269753218,-21.6671498764,-10.9489730521561,-301.484496597186
738506.44682477507740259171,-21.6579180272835,-10.9305093539232,-301.502960295419
738506.44682486541569232941,-21.6579180272835,-10.9397412030396,-301.29062776574
738506.44682495587039738894,-21.6579180272835,-10.9305093539232,-301.346018860439
738506.44682504632510244846,-21.6671498764,-10.9397412030396,-301.512192144536
738506.44682513677980750799,-21.6486861781671,-10.9212775048067,-301.530655842769
738506.44682522723451256752,-21.6486861781671,-10.9305093539232,-301.530655842769
738506.44682531768921762705,-21.6486861781671,-10.9305093539232,-301.47526474807
738506.44682540814392268658,-21.6579180272835,-10.9397412030396,-301.484496597186
738506.44682549848221242428,-21.6486861781671,-10.9305093539232,-301.530655842769
738506.44682558893691748381,-21.6486861781671,-10.9397412030396,-301.466032898953
738506.44682567939162254333,-21.6579180272835,-10.9397412030396,-301.530655842769
738506.44682576984632760286,-21.6486861781671,-10.9212775048067,-301.47526474807
738506.44682586030103266239,-21.6579180272835,-10.9397412030396,-301.392178106021
738506.44682595075573772192,-21.6486861781671,-10.9305093539232,-301.438337351604
738506.44682604121044278145,-21.6579180272835,-10.9397412030396,-301.419873653371
738506.44682613154873251915,-21.6486861781671,-10.9212775048067,-301.438337351604
738506.44682622200343757868,-21.6579180272835,-10.9397412030396,-301.429105502487
738506.44682631245814263821,-21.6579180272835,-10.9305093539232,-301.382946256905
738506.44682640291284769773,-21.6671498764,-10.9397412030396,-301.419873653371
738506.44682649336755275726,-21.6579180272835,-10.9305093539232,-301.438337351604
738506.44682658382225781679,-21.6671498764,-10.9489730521561,-301.410641804254
738506.44682667427696287632,-21.6486861781671,-10.9212775048067,-301.373714407788
738506.44682676461525261402,-21.6671498764,-10.9489730521561,-301.484496597186
738506.44682685506995767355,-21.6486861781671,-10.9305093539232,-301.493728446303
738506.44682694552466273308,-21.6579180272835,-10.9397412030396,-301.484496597186
738506.44682703597936779261,-21.6579180272835,-10.9397412030396,-301.466032898953
738506.44682712643407285213,-21.6671498764,-10.9212775048067,-301.521423993652
738506.44682721688877791166,-21.6579180272835,-10.9397412030396,-301.512192144536
738506.44682730734348297119,-21.6302224799341,-10.9305093539232,-301.429105502487
738506.44682739768177270889,-21.6209906308176,-10.9305093539232,-301.493728446303
738506.44682748813647776842,-21.6025269325846,-10.9212775048067,-301.530655842769
738506.44682757859118282795,-21.5840632343516,-10.9305093539232,-301.521423993652
738506.44682766904588788748,-21.5194402905362,-10.9120456556902,-301.410641804254
738506.44682775950059294701,-21.5102084414197,-10.9305093539232,-301.502960295419
738506.44682784995529800653,-21.4917447431867,-10.9120456556902,-301.502960295419
738506.44682794041000306606,-21.4917447431867,-10.9212775048067,-301.502960295419
738506.44682803074829280376,-21.5102084414197,-10.9028138065737,-301.47526474807
738506.44682812120299786329,-21.5840632343516,-10.9305093539232,-301.512192144536
738506.44682821165770292282,-21.6394543290506,-10.9212775048067,-301.530655842769
738506.44682830211240798235,-21.685613574633,-10.9397412030396,-301.484496597186
738506.44682839256711304188,-21.6948454237495,-10.9397412030396,-301.346018860439
738506.44682848302181810141,-21.704077272866,-10.9489730521561,-301.419873653371
738506.44682857347652316093,-21.6948454237495,-10.9489730521561,-301.521423993652
738506.44682866381481289864,-21.7133091219825,-10.9582049012726,-301.456801049837
738506.44682875426951795816,-21.722540971099,-10.9582049012726,-301.466032898953
738506.44682884472422301769,-21.704077272866,-10.9397412030396,-301.484496597186
738506.44682893517892807722,-21.722540971099,-10.9397412030396,-301.466032898953
738506.44682902563363313675,-21.704077272866,-10.9305093539232,-301.466032898953
738506.44682911608833819628,-21.7133091219825,-10.9489730521561,-301.466032898953
738506.44682920654304325581,-21.704077272866,-10.9212775048067,-301.466032898953
738506.44682929699774831533,-21.7133091219825,-10.9397412030396,-301.429105502487
738506.44682938733603805304,-21.741004669332,-10.8658864101077,-301.466032898953
738506.44682947779074311256,-21.5932950834681,-10.8197271645253,-301.410641804254
738506.44682956824544817209,-21.1593981749931,-10.7458723715934,-301.299859614856
738506.44682965870015323162,-20.7624286629841,-10.9212775048067,-301.364482558672
738506.44682974915485829115,-20.6516464735862,-11.1705374309519,-301.355250709555
738506.44682983960956335068,-21.7502365184484,-11.2443922238838,-301.493728446303
738506.44682993006426841021,-22.1472060304575,-11.0689870906705,-301.502960295419
738506.44683002040255814791,-21.9071779534288,-10.8935819574572,-301.44756920072
738506.44683011085726320744,-21.6117587817011,-10.8658864101077,-301.410641804254
738506.44683020131196826696,-21.5840632343516,-10.9028138065737,-301.410641804254
738506.44683029176667332649,-21.6025269325846,-10.9028138065737,-301.410641804254
738506.44683038222137838602,-21.6025269325846,-10.8843501083407,-301.438337351604
738506.44683047267608344555,-21.6025269325846,-10.8935819574572,-301.419873653371
738506.44683056313078850508,-21.5932950834681,-10.8843501083407,-301.382946256905
738506.44683065346907824278,-21.5932950834681,-10.8935819574572,-301.355250709555
738506.44683074392378330231,-21.5748313852351,-10.8843501083407,-301.336787011322
738506.44683083437848836184,-21.5840632343516,-10.8935819574572,-301.373714407788
738506.44683092483319342136,-21.5563676870022,-10.8751182592242,-301.382946256905
738506.44683101528789848089,-21.5563676870022,-10.8751182592242,-301.336787011322
738506.44683110574260354042,-21.5379039887692,-10.8751182592242,-301.392178106021
738506.44683119619730859995,-21.5379039887692,-10.8751182592242,-301.456801049837
738506.44683128653559833765,-21.5102084414197,-10.8566545609912,-301.438337351604
738506.44683137699030339718,-21.5009765923032,-10.8658864101077,-301.429105502487
738506.44683146744500845671,-21.4825128940703,-10.8474227118748,-301.438337351604
738506.44683155789971351624,-21.4640491958373,-10.8474227118748,-301.438337351604
738506.44683164835441857576,-21.4548173467208,-10.8566545609912,-301.382946256905
738506.44683173880912363529,-21.4363536484878,-10.8197271645253,-301.429105502487
738506.44683182926382869482,-21.4178899502548,-10.8289590136418,-301.419873653371
738506.44683191960211843252,-21.3809625537889,-10.8104953154088,-301.226004821925
738506.44683201005682349205,-21.3717307046724,-10.8104953154088,-301.346018860439
738506.44683210051152855158,-21.3348033082064,-10.7827997680593,-301.410641804254
738506.44683219096623361111,-21.307107760857,-10.7920316171758,-301.382946256905
738506.44683228142093867064,-21.270180364391,-10.7551042207099,-301.401409955138
738506.44683237187564373016,-21.2424848170415,-10.7458723715934,-301.382946256905
738506.44683246233034878969,-21.1870937223426,-10.7089449751274,-301.382946256905
738506.44683255266863852739,-21.1778618732261,-10.7181768242439,-301.346018860439
738506.44683264312334358692,-21.1409344767602,-10.7089449751274,-301.373714407788
738506.44683273357804864645,-21.1040070802942,-10.6997131260109,-301.364482558672
738506.44683282403275370598,-21.0855433820612,-10.6904812768944,-301.336787011322
738506.44683291448745876551,-21.0947752311777,-10.6997131260109,-301.364482558672
738506.44683300494216382504,-21.1132389294107,-10.7089449751274,-301.373714407788
738506.44683309539686888456,-21.1778618732261,-10.7366405224769,-301.373714407788
738506.44683318573515862226,-21.270180364391,-10.7920316171758,-301.401409955138
738506.44683327618986368179,-21.3532670064394,-10.8104953154088,-301.438337351604
738506.44683336664456874132,-21.4363536484878,-10.8566545609912,-301.44756920072
738506.44683345709927380085,-21.4825128940703,-10.8658864101077,-301.456801049837
738506.44683354755397886038,-21.5379039887692,-10.9028138065737,-301.466032898953
738506.44683363800868391991,-21.5471358378857,-10.8843501083407,-301.484496597186
738506.44683372846338897943,-21.5840632343516,-10.9212775048067,-301.438337351604
738506.44683381880167871714,-21.5840632343516,-10.9028138065737,-301.47526474807
738506.44683390925638377666,-21.6025269325846,-10.9305093539232,-301.466032898953
738506.44683399971108883619,-21.6025269325846,-10.9212775048067,-301.44756920072
738506.44683409016579389572,-21.6025269325846,-10.9305093539232,-301.456801049837
738506.44683418062049895525,-21.5932950834681,-10.9120456556902,-301.466032898953
738506.44683427107520401478,-21.6025269325846,-10.9305093539232,-301.456801049837
738506.44683436152990907431,-21.6025269325846,-10.9305093539232,-301.429105502487
738506.44683445186819881201,-21.5932950834681,-10.9120456556902,-301.47526474807
738506.44683454232290387154,-21.5932950834681,-10.9212775048067,-301.47526474807
738506.44683463277760893106,-21.5932950834681,-10.9028138065737,-301.466032898953
738506.44683472323231399059,-21.5932950834681,-10.9212775048067,-301.456801049837
738506.44683481368701905012,-21.5840632343516,-10.9028138065737,-301.410641804254
738506.44683490414172410965,-21.5840632343516,-10.9120456556902,-301.410641804254
738506.44683499459642916918,-21.5748313852351,-10.8843501083407,-301.429105502487
738506.44683508493471890688,-21.5840632343516,-10.9120456556902,-301.466032898953
738506.44683517538942396641,-21.5748313852351,-10.9120456556902,-301.410641804254
738506.44683526584412902594,-21.5840632343516,-10.9212775048067,-301.484496597186
738506.44683535629883408546,-21.5748313852351,-10.8935819574572,-301.512192144536
738506.44683544675353914499,-21.5840632343516,-10.9120456556902,-301.327555162206
738506.44683553720824420452,-21.5840632343516,-10.9028138065737,-301.401409955138
738506.44683562766294926405,-21.5932950834681,-10.9212775048067,-301.502960295419
738506.44683571800123900175,-21.5840632343516,-10.9028138065737,-301.419873653371
738506.44683580845594406128,-21.5932950834681,-10.9120456556902,-301.392178106021
738506.44683589891064912081,-21.5932950834681,-10.9120456556902,-301.401409955138
738506.44683598936535418034,-21.5932950834681,-10.9120456556902,-301.410641804254
738506.44683607982005923986,-21.5932950834681,-10.9212775048067,-301.364482558672
738506.44683617027476429939,-21.6117587817011,-10.9212775048067,-301.456801049837
738506.44683626072946935892,-21.6209906308176,-10.9212775048067,-301.429105502487
738506.44683635106775909662,-21.6117587817011,-10.9120456556902,-301.47526474807
738506.44683644152246415615,-21.6209906308176,-10.9305093539232,-301.466032898953
738506.44683653197716921568,-21.6117587817011,-10.9028138065737,-301.47526474807
738506.44683662243187427521,-21.6209906308176,-10.9305093539232,-301.47526474807
738506.44683671288657933474,-21.6025269325846,-10.9120456556902,-301.484496597186
738506.44683680334128439426,-21.6117587817011,-10.9212775048067,-301.466032898953
738506.44683689379598945379,-21.6025269325846,-10.9120456556902,-301.410641804254
738506.44683698413427919149,-21.6209906308176,-10.9305093539232,-301.47526474807
738506.44683707458898425102,-21.6117587817011,-10.9212775048067,-301.47526474807
738506.44683716504368931055,-21.6302224799341,-10.9305093539232,-301.44756920072
738506.44683725549839437008,-21.6209906308176,-10.9212775048067,-301.466032898953
738506.44683734595309942961,-21.6209906308176,-10.9212775048067,-301.466032898953
738506.44683743640780448914,-21.6209906308176,-10.9212775048067,-301.438337351604
738506.44683752686250954866,-21.6117587817011,-10.9212775048067,-301.456801049837
738506.44683761720079928637,-21.6209906308176,-10.9212775048067,-301.466032898953
738506.44683770765550434589,-21.6117587817011,-10.9120456556902,-301.466032898953
738506.44683779811020940542,-21.6209906308176,-10.9212775048067,-301.429105502487
738506.44683788856491446495,-21.6117587817011,-10.9120456556902,-301.47526474807
738506.44683797901961952448,-21.6117587817011,-10.9305093539232,-301.456801049837
738506.44683806947432458401,-21.6209906308176,-10.9120456556902,-301.44756920072
738506.44683815992902964354,-21.6209906308176,-10.9212775048067,-301.456801049837
738506.44683825026731938124,-21.6117587817011,-10.9120456556902,-301.466032898953
738506.44683834072202444077,-21.6302224799341,-10.9212775048067,-301.456801049837
738506.44683843117672950029,-21.6117587817011,-10.9212775048067,-301.456801049837
738506.44683852163143455982,-21.6209906308176,-10.9212775048067,-301.47526474807
738506.44683861208613961935,-21.6209906308176,-10.9305093539232,-301.456801049837
738506.44683870254084467888,-21.6209906308176,-10.9212775048067,-301.438337351604
738506.44683879299554973841,-21.6209906308176,-10.9212775048067,-301.466032898953
738506.44683888333383947611,-21.6209906308176,-10.9120456556902,-301.47526474807
738506.44683897378854453564,-21.6209906308176,-10.9212775048067,-301.309091463973
738506.44683906424324959517,-21.6209906308176,-10.9028138065737,-301.327555162206
738506.44683915469795465469,-21.6302224799341,-10.9212775048067,-301.466032898953
738506.44683924515265971422,-21.6117587817011,-10.9028138065737,-301.47526474807
738506.44683933560736477375,-21.6209906308176,-10.9212775048067,-301.401409955138
738506.44683942606206983328,-21.6117587817011,-10.9028138065737,-301.456801049837
738506.44683951640035957098,-21.6209906308176,-10.9212775048067,-301.466032898953
738506.44683960685506463051,-21.6025269325846,-10.9120456556902,-301.484496597186
738506.44683969730976969004,-21.6209906308176,-10.9212775048067,-301.401409955138
738506.44683978776447474957,-21.6117587817011,-10.9028138065737,-301.47526474807
738506.44683987821917980909,-21.6209906308176,-10.9305093539232,-301.466032898953
738506.44683996867388486862,-21.6209906308176,-10.9212775048067,-301.466032898953
738506.44684005912858992815,-21.6117587817011,-10.9028138065737,-301.438337351604
738506.44684014946687966585,-21.6209906308176,-10.9305093539232,-301.484496597186
738506.44684023992158472538,-21.6117587817011,-10.9120456556902,-301.419873653371
738506.44684033037628978491,-21.6209906308176,-10.9212775048067,-301.484496597186
738506.44684042083099484444,-21.6209906308176,-10.9120456556902,-301.47526474807
738506.44684051128569990396,-21.6209906308176,-10.9305093539232,-301.429105502487
738506.44684060174040496349,-21.6025269325846,-10.9028138065737,-301.44756920072
738506.44684069219511002302,-21.6209906308176,-10.9305093539232,-301.466032898953
738506.44684078253339976072,-21.6117587817011,-10.9120456556902,-301.466032898953
738506.44684087298810482025,-21.6209906308176,-10.9305093539232,-301.336787011322
738506.44684096344280987978,-21.6117587817011,-10.9028138065737,-301.419873653371
738506.44684105389751493931,-21.6117587817011,-10.9212775048067,-301.401409955138
738506.44684114435221999884,-21.5748313852351,-10.9028138065737,-301.410641804254
738506.44684123480692505836,-21.5655995361187,-10.9212775048067,-301.410641804254
738506.44684132526163011789,-21.5471358378857,-10.8935819574572,-301.466032898953
738506.44684141559991985559,-21.5009765923032,-10.9028138065737,-301.47526474807
738506.44684150605462491512,-21.4732810449538,-10.8935819574572,-301.44756920072
738506.44684159650932997465,-21.4825128940703,-10.9120456556902,-301.484496597186
738506.44684168696403503418,-21.4455854976043,-10.8843501083407,-301.47526474807
738506.44684177741874009371,-21.4548173467208,-10.8935819574572,-301.419873653371
738506.44684186787344515324,-21.4825128940703,-10.9028138065737,-301.429105502487
738506.44684195832815021276,-21.5286721396527,-10.8843501083407,-301.47526474807
738506.44684204866643995047,-21.6025269325846,-10.9305093539232,-301.466032898953
738506.44684213912114500999,-21.6302224799341,-10.9120456556902,-301.44756920072
738506.44684222957585006952,-21.6579180272835,-10.9305093539232,-301.466032898953
738506.44684232003055512905,-21.6579180272835,-10.9120456556902,-301.47526474807
738506.44684241048526018858,-21.6763817255165,-10.9397412030396,-301.44756920072
738506.44684250093996524811,-21.6579180272835,-10.9212775048067,-301.401409955138
738506.44684259139467030764,-21.6763817255165,-10.9305093539232,-301.364482558672
738506.44684268173296004534,-21.6671498764,-10.9120456556902,-301.466032898953
738506.44684277218766510487,-21.6763817255165,-10.9305093539232,-301.466032898953
738506.44684286264237016439,-21.6671498764,-10.9120456556902,-301.466032898953
738506.44684295309707522392,-21.685613574633,-10.9305093539232,-301.456801049837
738506.44684304355178028345,-21.6671498764,-10.9212775048067,-301.392178106021
738506.44684313400648534298,-21.6948454237495,-10.9028138065737,-301.456801049837
738506.44684322446119040251,-21.685613574633,-10.8289590136418,-301.438337351604
738506.44684331479948014021,-21.4178899502548,-10.7643360698263,-301.392178106021
738506.44684340525418519974,-20.9193700979644,-10.7735679189428,-301.318323313089
738506.44684349570889025927,-20.5962553788873,-11.022827845088,-301.373714407788
738506.44684358616359531879,-20.9932248908963,-11.2166966765343,-301.346018860439
738506.44684367661830037832,-21.9994964445936,-11.1797692800684,-301.47526474807
738506.44684376707300543785,-22.0548875392926,-11.059755241554,-301.512192144536
738506.44684385752771049738,-21.8517868587298,-10.8751182592242,-301.47526474807
738506.44684394786600023508,-21.5748313852351,-10.8658864101077,-301.382946256905
738506.44684403832070529461,-21.5563676870022,-10.8751182592242,-301.44756920072
738506.44684412877541035414,-21.5748313852351,-10.8843501083407,-301.44756920072
738506.44684421923011541367,-21.5840632343516,-10.8843501083407,-301.401409955138
738506.44684430968482047319,-21.5748313852351,-10.8843501083407,-301.44756920072
738506.44684440013952553272,-21.5655995361187,-10.8843501083407,-301.456801049837
738506.44684449059423059225,-21.5563676870022,-10.8751182592242,-301.429105502487
738506.44684458093252032995,-21.5563676870022,-10.8843501083407,-301.438337351604
738506.44684467138722538948,-21.5379039887692,-10.8566545609912,-301.429105502487
738506.44684476184193044901,-21.5286721396527,-10.8658864101077,-301.429105502487
738506.44684485229663550854,-21.5102084414197,-10.8566545609912,-301.438337351604
738506.44684494275134056807,-21.5102084414197,-10.8658864101077,-301.438337351604
738506.44684503320604562759,-21.4917447431867,-10.8474227118748,-301.438337351604
738506.44684512366075068712,-21.4825128940703,-10.8566545609912,-301.429105502487
738506.44684521399904042482,-21.4640491958373,-10.8381908627583,-301.44756920072
738506.44684530445374548435,-21.4548173467208,-10.8566545609912,-301.438337351604
738506.44684539490845054388,-21.4271217993713,-10.8197271645253,-301.401409955138
738506.44684548536315560341,-21.4178899502548,-10.8381908627583,-301.429105502487
738506.44684557581786066294,-21.3994262520219,-10.8289590136418,-301.429105502487
738506.44684566627256572247,-21.3809625537889,-10.8104953154088,-301.419873653371
738506.44684575672727078199,-21.3532670064394,-10.8104953154088,-301.410641804254
738506.44684584706556051970,-21.3348033082064,-10.7920316171758,-301.419873653371
738506.44684593752026557922,-21.3163396099734,-10.7920316171758,-301.401409955138
738506.44684602797497063875,-21.2794122135075,-10.7643360698263,-301.309091463973
738506.44684611842967569828,-21.251716666158,-10.7643360698263,-301.281395916623
738506.44684620888438075781,-21.1963255714591,-10.7274086733604,-301.392178106021
738506.44684629933908581734,-21.1686300241096,-10.7181768242439,-301.336787011322
738506.44684638979379087687,-21.1224707785272,-10.6904812768944,-301.364482558672
738506.44684648013208061457,-21.1040070802942,-10.6997131260109,-301.364482558672
738506.44684657058678567410,-21.0578478347118,-10.662785729545,-301.327555162206
738506.44684666104149073362,-21.0486159855953,-10.6812494277779,-301.346018860439
738506.44684675149619579315,-21.0393841364788,-10.6720175786615,-301.346018860439
738506.44684684195090085268,-21.0763115329447,-10.7181768242439,-301.318323313089
738506.44684693240560591221,-21.1317026276437,-10.7274086733604,-301.373714407788
738506.44684702286031097174,-21.2424848170415,-10.7827997680593,-301.382946256905
738506.44684711319860070944,-21.3163396099734,-10.8104953154088,-301.373714407788
738506.44684720365330576897,-21.3994262520219,-10.8566545609912,-301.410641804254
738506.44684729410801082850,-21.4548173467208,-10.8658864101077,-301.429105502487
738506.44684738456271588802,-21.5009765923032,-10.9028138065737,-301.44756920072
738506.44684747501742094755,-21.5194402905362,-10.9028138065737,-301.429105502487
738506.44684756547212600708,-21.5286721396527,-10.8935819574572,-301.456801049837
738506.44684765592683106661,-21.5471358378857,-10.9028138065737,-301.429105502487
738506.44684774626512080431,-21.5471358378857,-10.8935819574572,-301.44756920072
738506.44684783671982586384,-21.5563676870022,-10.9212775048067,-301.410641804254
738506.44684792717453092337,-21.5471358378857,-10.8935819574572,-301.438337351604
738506.44684801762923598289,-21.5563676870022,-10.9028138065737,-301.419873653371
738506.44684810808394104242,-21.5471358378857,-10.8935819574572,-301.456801049837
738506.44684819853864610195,-21.5655995361187,-10.9120456556902,-301.438337351604
738506.44684828899335116148,-21.5471358378857,-10.8935819574572,-301.44756920072
738506.44684837933164089918,-21.5655995361187,-10.9120456556902,-301.410641804254
738506.44684846978634595871,-21.5379039887692,-10.8935819574572,-301.456801049837
738506.44684856024105101824,-21.5563676870022,-10.9120456556902,-301.336787011322
738506.44684865069575607777,-21.5471358378857,-10.8935819574572,-301.364482558672
738506.44684874115046113729,-21.5563676870022,-10.9120456556902,-301.392178106021
738506.44684883160516619682,-21.5471358378857,-10.8935819574572,-301.392178106021
738506.44684892205987125635,-21.5563676870022,-10.8935819574572,-301.392178106021
738506.44684901239816099405,-21.5471358378857,-10.8935819574572,-301.401409955138
738506.44684910285286605358,-21.5563676870022,-10.8935819574572,-301.419873653371
738506.44684919330757111311,-21.5563676870022,-10.9028138065737,-301.466032898953
738506.44684928376227617264,-21.5655995361187,-10.8935819574572,-301.456801049837
738506.44684937421698123217,-21.5655995361187,-10.9120456556902,-301.44756920072
738506.44684946467168629169,-21.5655995361187,-10.8935819574572,-301.466032898953
738506.44684955512639135122,-21.5840632343516,-10.9120456556902,-301.401409955138
738506.44684964546468108892,-21.5748313852351,-10.9028138065737,-301.29062776574
738506.44684973591938614845,-21.5748313852351,-10.9120456556902,-301.44756920072
738506.44684982637409120798,-21.5655995361187,-10.8935819574572,-301.466032898953
738506.44684991682879626751,-21.5840632343516,-10.9120456556902,-301.401409955138
738506.44685000728350132704,-21.5840632343516,-10.9028138065737,-301.456801049837
738506.44685009773820638657,-21.5840632343516,-10.9120456556902,-301.44756920072
738506.44685018819291144609,-21.5840632343516,-10.9028138065737,-301.438337351604
738506.44685027853120118380,-21.5932950834681,-10.9120456556902,-301.456801049837
738506.44685036898590624332,-21.5932950834681,-10.9120456556902,-301.456801049837
738506.44685045944061130285,-21.5932950834681,-10.9120456556902,-301.466032898953
738506.44685054989531636238,-21.6025269325846,-10.9212775048067,-301.44756920072
738506.44685064035002142191,-21.6025269325846,-10.9120456556902,-301.456801049837
738506.44685073080472648144,-21.5932950834681,-10.9212775048067,-301.456801049837
738506.44685082125943154097,-21.6025269325846,-10.9120456556902,-301.419873653371
738506.44685091159772127867,-21.6117587817011,-10.9212775048067,-301.456801049837
738506.44685100205242633820,-21.6025269325846,-10.9028138065737,-301.410641804254
738506.44685109250713139772,-21.6117587817011,-10.9212775048067,-301.401409955138
738506.44685118296183645725,-21.5932950834681,-10.9028138065737,-301.429105502487
738506.44685127341654151678,-21.6025269325846,-10.9120456556902,-301.401409955138
738506.44685136387124657631,-21.6025269325846,-10.9028138065737,-301.419873653371
738506.44685145432595163584,-21.6117587817011,-10.9120456556902,-301.44756920072
738506.44685154466424137354,-21.6117587817011,-10.9120456556902,-301.456801049837
738506.44685163511894643307,-21.6025269325846,-10.9028138065737,-301.512192144536
738506.44685172557365149260,-21.6025269325846,-10.9120456556902,-301.456801049837
738506.44685181602835655212,-21.6025269325846,-10.9028138065737,-301.44756920072
738506.44685190648306161165,-21.6117587817011,-10.9212775048067,-301.438337351604
738506.44685199693776667118,-21.6117587817011,-10.9120456556902,-301.429105502487
738506.44685208739247173071,-21.6117587817011,-10.9120456556902,-301.466032898953
738506.44685217773076146841,-21.6117587817011,-10.9028138065737,-301.493728446303
738506.44685226818546652794,-21.6117587817011,-10.9120456556902,-301.382946256905
738506.44685235864017158747,-21.6117587817011,-10.9028138065737,-301.419873653371
738506.44685244909487664700,-21.6209906308176,-10.9305093539232,-301.419873653371
738506.44685253954958170652,-21.6025269325846,-10.9028138065737,-301.382946256905
738506.44685263000428676605,-21.6209906308176,-10.9212775048067,-301.466032898953
738506.44685272045899182558,-21.6117587817011,-10.9120456556902,-301.493728446303
738506.44685281079728156328,-21.6117587817011,-10.9212775048067,-301.484496597186
738506.44685290125198662281,-21.6117587817011,-10.9028138065737,-301.466032898953
738506.44685299170669168234,-21.6209906308176,-10.9212775048067,-301.530655842769
738506.44685308216139674187,-21.6209906308176,-10.9305093539232,-301.47526474807
738506.44685317261610180140,-21.6117587817011,-10.9212775048067,-301.299859614856
738506.44685326307080686092,-21.6117587817011,-10.9305093539232,-301.419873653371
738506.44685335352551192045,-21.6025269325846,-10.8935819574572,-301.410641804254
738506.44685344386380165815,-21.6209906308176,-10.9212775048067,-301.401409955138
738506.44685353431850671768,-21.6025269325846,-10.9028138065737,-301.410641804254
738506.44685362477321177721,-21.6025269325846,-10.9212775048067,-301.410641804254
738506.44685371522791683674,-21.6025269325846,-10.9120456556902,-301.493728446303
738506.44685380568262189627,-21.6209906308176,-10.9305093539232,-301.484496597186
738506.44685389613732695580,-21.6117587817011,-10.9028138065737,-301.502960295419
738506.44685398659203201532,-21.6117587817011,-10.9212775048067,-301.521423993652
738506.44685407693032175303,-21.6117587817011,-10.9120456556902,-301.466032898953
738506.44685416738502681255,-21.6209906308176,-10.9305093539232,-301.456801049837
738506.44685425783973187208,-21.5932950834681,-10.8935819574572,-301.47526474807
738506.44685434829443693161,-21.6209906308176,-10.9212775048067,-301.456801049837
738506.44685443874914199114,-21.6117587817011,-10.9120456556902,-301.429105502487
738506.44685452920384705067,-21.6209906308176,-10.9305093539232,-301.466032898953
738506.44685461965855211020,-21.6209906308176,-10.9212775048067,-301.466032898953
738506.44685470999684184790,-21.6209906308176,-10.9212775048067,-301.392178106021
738506.44685480045154690742,-21.6209906308176,-10.9212775048067,-301.484496597186
738506.44685489090625196695,-21.6302224799341,-10.9305093539232,-301.484496597186
738506.44685498136095702648,-21.6209906308176,-10.9305093539232,-301.456801049837
738506.44685507181566208601,-21.6025269325846,-10.9120456556902,-301.456801049837
738506.44685516227036714554,-21.6394543290506,-10.9489730521561,-301.484496597186
738506.44685525272507220507,-21.6302224799341,-10.9305093539232,-301.47526474807
738506.44685534306336194277,-21.5840632343516,-10.9305093539232,-301.44756920072
738506.44685543351806700230,-21.5563676870022,-10.9028138065737,-301.466032898953
738506.44685552397277206182,-21.5655995361187,-10.9212775048067,-301.47526474807
738506.44685561442747712135,-21.4917447431867,-10.8843501083407,-301.419873653371
738506.44685570488218218088,-21.4825128940703,-10.9120456556902,-301.493728446303
738506.44685579533688724041,-21.4548173467208,-10.8935819574572,-301.493728446303
738506.44685588579159229994,-21.4363536484878,-10.8843501083407,-301.44756920072
738506.44685597612988203764,-21.4178899502548,-10.8751182592242,-301.456801049837
738506.44685606658458709717,-21.5102084414197,-10.9028138065737,-301.419873653371
738506.44685615703929215670,-21.5748313852351,-10.9305093539232,-301.47526474807
738506.44685624749399721622,-21.6394543290506,-10.9766685995056,-301.539887691885
738506.44685633794870227575,-21.6671498764,-10.9674367503891,-301.456801049837
738506.44685642840340733528,-21.6948454237495,-10.9674367503891,-301.502960295419
738506.44685651885811239481,-21.6763817255165,-10.9582049012726,-301.493728446303
738506.44685660919640213251,-21.6302224799341,-10.9028138065737,-301.235236671041
738506.44685669965110719204,-21.5379039887692,-10.8197271645253,-301.364482558672
738506.44685679010581225157,-21.5655995361187,-10.8289590136418,-301.410641804254
738506.44685688056051731110,-21.6209906308176,-10.9028138065737,-301.466032898953
738506.44685697101522237062,-21.7594683675649,-11.0135959959716,-301.484496597186
738506.44685706146992743015,-21.6948454237495,-10.9582049012726,-301.410641804254
738506.44685715192463248968,-21.6671498764,-10.9397412030396,-301.438337351604
738506.44685724226292222738,-21.7687002166814,-11.041291543321,-301.438337351604
738506.44685733271762728691,-21.7687002166814,-11.0135959959716,-301.401409955138
738506.44685742317233234644,-21.741004669332,-10.9028138065737,-301.466032898953
738506.44685751362703740597,-21.4917447431867,-10.8104953154088,-301.438337351604
738506.44685760408174246550,-21.0024567400128,-10.7643360698263,-301.29062776574
738506.44685769453644752502,-20.6424146244697,-11.0043641468551,-301.29062776574
738506.44685778499115258455,-20.854747154149,-11.1890011291849,-301.364482558672
738506.44685787532944232225,-22.0364238410596,-11.2720877712333,-301.530655842769
738506.44685796578414738178,-22.1102786339915,-11.0505233924375,-301.502960295419
738506.44685805623885244131,-21.8333231604968,-10.9212775048067,-301.419873653371
738506.44685814669355750084,-21.5471358378857,-10.8104953154088,-301.502960295419
738506.44685823714826256037,-21.5748313852351,-10.8843501083407,-301.466032898953
738506.44685832760296761990,-21.6486861781671,-10.9674367503891,-301.493728446303
738506.44685841805767267942,-21.6394543290506,-10.9489730521561,-301.502960295419
738506.44685850839596241713,-21.5471358378857,-10.8566545609912,-301.512192144536
738506.44685859885066747665,-21.6209906308176,-10.9397412030396,-301.484496597186
738506.44685868930537253618,-21.6302224799341,-10.9582049012726,-301.44756920072
738506.44685877976007759571,-21.6117587817011,-10.9489730521561,-301.484496597186
738506.44685887021478265524,-21.5840632343516,-10.9212775048067,-301.466032898953
738506.44685896066948771477,-21.5563676870022,-10.8935819574572,-301.466032898953
738506.44685905112419277430,-21.5471358378857,-10.8935819574572,-301.484496597186
738506.44685914146248251200,-21.5194402905362,-10.8658864101077,-301.521423993652
738506.44685923191718757153,-21.5194402905362,-10.8843501083407,-301.456801049837
738506.44685932237189263105,-21.4917447431867,-10.8566545609912,-301.493728446303
738506.44685941282659769058,-21.4917447431867,-10.8843501083407,-301.47526474807
738506.44685950328130275011,-21.4363536484878,-10.8104953154088,-301.456801049837
738506.44685959373600780964,-21.3717307046724,-10.7643360698263,-301.401409955138
738506.44685968419071286917,-21.3809625537889,-10.7643360698263,-301.44756920072
738506.44685977452900260687,-21.4086581011383,-10.8289590136418,-301.29062776574
738506.44685986498370766640,-21.4548173467208,-10.8843501083407,-301.392178106021
738506.44685995543841272593,-21.4732810449538,-10.9120456556902,-301.373714407788
738506.44686004589311778545,-21.4178899502548,-10.8658864101077,-301.373714407788
738506.44686013634782284498,-21.3163396099734,-10.7735679189428,-301.189077425459
738506.44686022680252790451,-21.233252967925,-10.7089449751274,-301.309091463973
738506.44686031725723296404,-21.307107760857,-10.8197271645253,-301.364482558672
738506.44686040759552270174,-21.1963255714591,-10.7089449751274,-301.355250709555
738506.44686049805022776127,-21.1593981749931,-10.6997131260109,-301.392178106021
738506.44686058850493282080,-21.2424848170415,-10.7920316171758,-301.373714407788
738506.44686067895963788033,-21.2055574205756,-10.7551042207099,-301.401409955138
738506.44686076941434293985,-21.1224707785272,-10.7089449751274,-301.410641804254
738506.44686085986904799938,-21.0116885891293,-10.607394634846,-301.281395916623
738506.44686095032375305891,-21.1317026276437,-10.7181768242439,-301.373714407788
738506.44686104066204279661,-21.1593981749931,-10.7458723715934,-301.401409955138
738506.44686113111674785614,-21.3163396099734,-10.8843501083407,-301.336787011322
738506.44686122157145291567,-21.3348033082064,-10.8658864101077,-301.392178106021
738506.44686131202615797520,-21.3809625537889,-10.8658864101077,-301.401409955138
738506.44686140248086303473,-21.3717307046724,-10.8197271645253,-301.382946256905
738506.44686149293556809425,-21.5286721396527,-10.9305093539232,-301.493728446303
738506.44686158339027315378,-21.6117587817011,-10.9859004486221,-301.429105502487
738506.44686167372856289148,-21.5840632343516,-10.9489730521561,-301.410641804254
738506.44686176418326795101,-21.5471358378857,-10.9120456556902,-301.44756920072
738506.44686185463797301054,-21.6117587817011,-10.9766685995056,-301.502960295419
738506.44686194509267807007,-21.6117587817011,-10.9674367503891,-301.493728446303
738506.44686203554738312960,-21.6302224799341,-10.9766685995056,-301.456801049837
738506.44686212600208818913,-21.5471358378857,-10.9120456556902,-301.484496597186
738506.44686221645679324865,-21.5379039887692,-10.8935819574572,-301.484496597186
738506.44686230679508298635,-21.6671498764,-11.0320596942045,-301.493728446303
738506.44686239724978804588,-21.5286721396527,-10.9028138065737,-301.466032898953
738506.44686248770449310541,-21.5471358378857,-10.9305093539232,-301.47526474807
738506.44686257815919816494,-21.6486861781671,-11.0043641468551,-301.466032898953
738506.44686266861390322447,-21.6394543290506,-11.0135959959716,-301.401409955138
738506.44686275906860828400,-21.5748313852351,-10.9305093539232,-301.410641804254
738506.44686284952331334352,-21.6394543290506,-11.0043641468551,-301.401409955138
738506.44686293986160308123,-21.6671498764,-11.0320596942045,-301.419873653371
738506.44686303031630814075,-21.6486861781671,-11.0043641468551,-301.466032898953
738506.44686312077101320028,-21.6209906308176,-11.0043641468551,-301.521423993652
738506.44686321122571825981,-21.5748313852351,-10.9489730521561,-301.512192144536
738506.44686330168042331934,-21.5932950834681,-10.9674367503891,-301.466032898953
738506.44686339213512837887,-21.4825128940703,-10.8566545609912,-301.484496597186
738506.44686348258983343840,-21.6394543290506,-11.0135959959716,-301.512192144536
738506.44686357292812317610,-21.5655995361187,-10.9212775048067,-301.47526474807
738506.44686366338282823563,-21.6394543290506,-11.0043641468551,-301.29062776574
738506.44686375383753329515,-21.685613574633,-11.041291543321,-301.44756920072
738506.44686384429223835468,-21.6209906308176,-10.9951322977386,-301.512192144536
738506.44686393474694341421,-21.5748313852351,-10.9305093539232,-301.410641804254
738506.44686402520164847374,-21.5563676870022,-10.9305093539232,-301.456801049837
738506.44686411565635353327,-21.6117587817011,-10.9859004486221,-301.530655842769
738506.44686420599464327097,-21.5932950834681,-10.9766685995056,-301.410641804254
738506.44686429644934833050,-21.6579180272835,-11.0320596942045,-301.429105502487
738506.44686438690405339003,-21.6486861781671,-11.0043641468551,-301.47526474807
738506.44686447735875844955,-21.685613574633,-11.0505233924375,-301.456801049837
738506.44686456781346350908,-21.6394543290506,-11.0135959959716,-301.401409955138
738506.44686465826816856861,-21.6394543290506,-10.9951322977386,-301.410641804254
738506.44686474872287362814,-21.6117587817011,-10.9674367503891,-301.438337351604
738506.44686483917757868767,-21.5932950834681,-10.9766685995056,-301.429105502487
738506.44686492951586842537,-21.6117587817011,-10.9674367503891,-301.429105502487
738506.44686501997057348490,-21.6025269325846,-10.9766685995056,-301.44756920072
738506.44686511042527854443,-21.6117587817011,-10.9766685995056,-301.521423993652
738506.44686520087998360395,-21.6117587817011,-10.9951322977386,-301.493728446303
738506.44686529133468866348,-21.6117587817011,-11.0043641468551,-301.521423993652
738506.44686538178939372301,-21.6117587817011,-10.9766685995056,-301.493728446303
738506.44686547224409878254,-21.6394543290506,-11.0043641468551,-301.493728446303
738506.44686556258238852024,-21.6302224799341,-11.022827845088,-301.401409955138
738506.44686565303709357977,-21.5748313852351,-10.9674367503891,-301.47526474807
738506.44686574349179863930,-21.5748313852351,-10.9397412030396,-301.456801049837
738506.44686583394650369883,-21.6302224799341,-10.9951322977386,-301.419873653371
738506.44686592440120875835,-21.6209906308176,-11.022827845088,-301.456801049837
738506.44686601485591381788,-21.5655995361187,-10.9582049012726,-301.466032898953
738506.44686610531061887741,-21.6671498764,-11.0320596942045,-301.456801049837
738506.44686619564890861511,-21.704077272866,-11.059755241554,-301.429105502487
738506.44686628610361367464,-21.5840632343516,-10.9582049012726,-301.466032898953
738506.44686637655831873417,-21.6025269325846,-11.0135959959716,-301.466032898953
738506.44686646701302379370,-21.5655995361187,-10.9489730521561,-301.410641804254
738506.44686655746772885323,-21.5748313852351,-10.9859004486221,-301.456801049837
738506.44686664792243391275,-21.5932950834681,-11.0135959959716,-301.484496597186
738506.44686673837713897228,-21.7133091219825,-11.1059144871364,-301.44756920072
738506.44686682871542870998,-21.6209906308176,-10.9766685995056,-301.484496597186
738506.44686691917013376951,-21.6302224799341,-11.0043641468551,-301.438337351604
738506.44686700962483882904,-21.5655995361187,-10.9489730521561,-301.410641804254
738506.44686710007954388857,-21.6394543290506,-11.059755241554,-301.336787011322
738506.44686719053424894810,-21.6025269325846,-11.0135959959716,-301.309091463973
738506.44686728098895400763,-21.5932950834681,-11.022827845088,-301.336787011322
738506.44686737144365906715,-21.5563676870022,-10.9859004486221,-301.44756920072
738506.44686746178194880486,-21.5102084414197,-10.9489730521561,-301.466032898953
738506.44686755223665386438,-21.4732810449538,-10.9859004486221,-301.502960295419
738506.44686764269135892391,-21.4363536484878,-10.9582049012726,-301.484496597186
738506.44686773314606398344,-21.4917447431867,-11.0320596942045,-301.47526474807
738506.44686782360076904297,-21.4732810449538,-11.0320596942045,-301.484496597186
738506.44686791405547410250,-21.4363536484878,-10.9582049012726,-301.484496597186
738506.44686800451017916203,-21.4178899502548,-10.8658864101077,-301.493728446303
738506.44686809484846889973,-21.5286721396527,-10.9859004486221,-301.466032898953
738506.44686818530317395926,-21.6394543290506,-11.059755241554,-301.493728446303
738506.44686827575787901878,-21.5748313852351,-10.9582049012726,-301.47526474807
738506.44686836621258407831,-21.6117587817011,-10.9766685995056,-301.484496597186
738506.44686845666728913784,-21.6671498764,-11.0505233924375,-301.47526474807
738506.44686854712199419737,-21.7687002166814,-11.1613055818354,-301.512192144536
738506.44686863757669925690,-21.6394543290506,-11.041291543321,-301.429105502487
738506.44686872791498899460,-21.6763817255165,-11.0505233924375,-301.484496597186
738506.44686881836969405413,-21.6763817255165,-11.041291543321,-301.44756920072
738506.44686890882439911366,-21.6486861781671,-11.0043641468551,-301.419873653371
738506.44686899927910417318,-21.7317728202155,-11.0689870906705,-301.493728446303
738506.44686908973380923271,-21.6671498764,-11.022827845088,-301.44756920072
738506.44686918018851429224,-21.6394543290506,-10.9859004486221,-301.484496597186
738506.44686927064321935177,-21.685613574633,-10.9766685995056,-301.410641804254
738506.44686936098150908947,-21.6302224799341,-10.8843501083407,-301.429105502487
738506.44686945143621414900,-21.3348033082064,-10.8751182592242,-301.382946256905
738506.44686954189091920853,-20.854747154149,-10.9489730521561,-301.364482558672
738506.44686963234562426805,-20.4947050386059,-11.1982329783013,-301.318323313089
738506.44686972280032932758,-21.251716666158,-11.3182470168157,-301.502960295419
738506.44686981325503438711,-22.1472060304575,-11.2905514694662,-301.530655842769
738506.44686990370973944664,-22.119510483108,-11.1520737327189,-301.493728446303
738506.44686999404802918434,-21.7871639149144,-10.9859004486221,-301.392178106021
738506.44687008450273424387,-21.5379039887692,-10.9120456556902,-301.373714407788
738506.44687017495743930340,-21.5286721396527,-10.9305093539232,-301.392178106021
738506.44687026541214436293,-21.5009765923032,-10.9028138065737,-301.364482558672
738506.44687035586684942245,-21.685613574633,-11.0689870906705,-301.410641804254
738506.44687044632155448198,-21.6302224799341,-10.9951322977386,-301.44756920072
738506.44687053677625954151,-21.5840632343516,-10.9674367503891,-301.456801049837
738506.44687062711454927921,-21.5286721396527,-10.9305093539232,-301.44756920072
738506.44687071756925433874,-21.5379039887692,-10.9212775048067,-301.410641804254
738506.44687080802395939827,-21.4455854976043,-10.8658864101077,-301.382946256905
738506.44687089847866445780,-21.5379039887692,-10.9766685995056,-301.466032898953
738506.44687098893336951733,-21.5655995361187,-10.9951322977386,-301.484496597186
738506.44687107938807457685,-21.5102084414197,-10.9489730521561,-301.466032898953
738506.44687116984277963638,-21.5379039887692,-11.0043641468551,-301.382946256905
738506.44687126018106937408,-21.5286721396527,-10.9766685995056,-301.484496597186
738506.44687135063577443361,-21.4825128940703,-10.9951322977386,-301.44756920072
738506.44687144109047949314,-21.4548173467208,-10.9489730521561,-301.44756920072
738506.44687153154518455267,-21.4455854976043,-10.9489730521561,-301.44756920072
738506.44687162199988961220,-21.4178899502548,-10.8935819574572,-301.466032898953
738506.44687171245459467173,-21.3809625537889,-10.9120456556902,-301.456801049837
738506.44687180290929973125,-21.3255714590899,-10.8843501083407,-301.364482558672
738506.44687189324758946896,-21.251716666158,-10.8104953154088,-301.438337351604
738506.44687198370229452848,-21.3532670064394,-10.9212775048067,-301.410641804254
738506.44687207415699958801,-21.3348033082064,-10.8843501083407,-301.429105502487
738506.44687216461170464754,-21.3717307046724,-10.9674367503891,-301.382946256905
738506.44687225506640970707,-21.2055574205756,-10.8104953154088,-301.410641804254
738506.44687234552111476660,-21.233252967925,-10.8474227118748,-301.373714407788
738506.44687243597581982613,-21.1317026276437,-10.7643360698263,-301.355250709555
738506.44687252631410956383,-21.1040070802942,-10.8012634662923,-301.364482558672
738506.44687261676881462336,-21.0855433820612,-10.7920316171758,-301.373714407788
738506.44687270722351968288,-20.9747611926634,-10.7089449751274,-301.318323313089
738506.44687279767822474241,-20.9378337961974,-10.7089449751274,-301.364482558672
738506.44687288813292980194,-20.9562974944304,-10.7274086733604,-301.346018860439
738506.44687297858763486147,-21.1317026276437,-10.8197271645253,-301.382946256905
738506.44687306904233992100,-21.1501663258766,-10.8104953154088,-301.355250709555
738506.44687315938062965870,-21.307107760857,-10.9305093539232,-301.438337351604
738506.44687324983533471823,-21.3440351573229,-10.8751182592242,-301.419873653371
738506.44687334029003977776,-21.4732810449538,-10.9305093539232,-301.382946256905
738506.44687343074474483728,-21.5379039887692,-10.9674367503891,-301.44756920072
738506.44687352119944989681,-21.5748313852351,-10.9674367503891,-301.466032898953
738506.44687361165415495634,-21.5379039887692,-10.9212775048067,-301.466032898953
738506.44687370210886001587,-21.5102084414197,-10.9120456556902,-301.410641804254
738506.44687379244714975357,-21.5748313852351,-10.9766685995056,-301.47526474807
738506.44687388290185481310,-21.5379039887692,-10.9212775048067,-301.429105502487
738506.44687397335655987263,-21.4455854976043,-10.7920316171758,-301.466032898953
738506.44687406381126493216,-21.6763817255165,-11.041291543321,-301.392178106021
738506.44687415426596999168,-21.5655995361187,-10.9489730521561,-301.429105502487
738506.44687424472067505121,-21.6117587817011,-10.9582049012726,-301.346018860439
738506.44687433517538011074,-21.6117587817011,-10.9489730521561,-301.364482558672
738506.44687442551366984844,-21.6302224799341,-10.9859004486221,-301.456801049837
738506.44687451596837490797,-21.6209906308176,-11.0043641468551,-301.419873653371
738506.44687460642307996750,-21.5471358378857,-10.9120456556902,-301.502960295419
738506.44687469687778502703,-21.5655995361187,-10.9305093539232,-301.512192144536
738506.44687478733249008656,-21.5563676870022,-10.9212775048067,-301.438337351604
738506.44687487778719514608,-21.4548173467208,-10.8197271645253,-301.466032898953
738506.44687496824190020561,-21.5655995361187,-10.9489730521561,-301.530655842769
738506.44687505858018994331,-21.6579180272835,-11.0135959959716,-301.44756920072
738506.44687514903489500284,-21.5655995361187,-10.9305093539232,-301.44756920072
738506.44687523948960006237,-21.5471358378857,-10.9120456556902,-301.456801049837
738506.44687532994430512190,-21.6117587817011,-10.9674367503891,-301.47526474807
738506.44687542039901018143,-21.5194402905362,-10.8751182592242,-301.419873653371
738506.44687551085371524096,-21.5563676870022,-10.9028138065737,-301.47526474807
738506.44687560130842030048,-21.6302224799341,-10.9951322977386,-301.47526474807
738506.44687569164671003819,-21.5932950834681,-10.9766685995056,-301.456801049837
738506.44687578210141509771,-21.5471358378857,-10.9212775048067,-301.456801049837
738506.44687587255612015724,-21.5102084414197,-10.8104953154088,-301.466032898953
738506.44687596301082521677,-21.6948454237495,-11.0043641468551,-301.466032898953
738506.44687605346553027630,-21.6486861781671,-10.9951322977386,-301.456801049837
738506.44687614392023533583,-21.5563676870022,-10.8843501083407,-301.466032898953
738506.44687623437494039536,-21.5748313852351,-10.8935819574572,-301.429105502487
738506.44687632471323013306,-21.6394543290506,-10.9766685995056,-301.44756920072
738506.44687641516793519258,-21.6209906308176,-10.9212775048067,-301.410641804254
738506.44687650562264025211,-21.6209906308176,-10.9120456556902,-301.438337351604
738506.44687659607734531164,-21.5194402905362,-10.8658864101077,-301.438337351604
738506.44687668653205037117,-21.6025269325846,-10.8843501083407,-301.438337351604
738506.44687677698675543070,-21.704077272866,-10.9951322977386,-301.429105502487
738506.44687686744146049023,-21.5748313852351,-10.8843501083407,-301.484496597186
738506.44687695777975022793,-21.6671498764,-11.0043641468551,-301.512192144536
738506.44687704823445528746,-21.6486861781671,-10.9397412030396,-301.530655842769
738506.44687713868916034698,-21.5748313852351,-10.9028138065737,-301.44756920072
738506.44687722914386540651,-21.6117587817011,-10.9305093539232,-301.419873653371
738506.44687731959857046604,-21.6117587817011,-10.9582049012726,-301.466032898953
738506.44687741005327552557,-21.6486861781671,-10.9766685995056,-301.456801049837
738506.44687750050798058510,-21.6579180272835,-10.9674367503891,-301.493728446303
738506.44687759084627032280,-21.5840632343516,-10.8566545609912,-301.521423993652
738506.44687768130097538233,-21.6025269325846,-10.8935819574572,-301.502960295419
738506.44687777175568044186,-21.6763817255165,-11.0135959959716,-301.438337351604
738506.44687786221038550138,-21.6394543290506,-10.9582049012726,-301.355250709555
738506.44687795266509056091,-21.6302224799341,-10.9028138065737,-301.44756920072
738506.44687804311979562044,-21.6025269325846,-10.8843501083407,-301.47526474807
738506.44687813357450067997,-21.5932950834681,-10.9120456556902,-301.484496597186
738506.44687822391279041767,-21.6394543290506,-10.9489730521561,-301.438337351604
738506.44687831436749547720,-21.6117587817011,-10.8935819574572,-301.493728446303
738506.44687840482220053673,-21.6486861781671,-10.9120456556902,-301.539887691885
738506.44687849527690559626,-21.5840632343516,-10.9120456556902,-301.493728446303
738506.44687858573161065578,-21.6209906308176,-10.9305093539232,-301.456801049837
738506.44687867618631571531,-21.5840632343516,-10.9212775048067,-301.502960295419
738506.44687876664102077484,-21.6394543290506,-10.9859004486221,-301.521423993652
738506.44687885697931051254,-21.5748313852351,-10.9212775048067,-301.401409955138
738506.44687894743401557207,-21.4732810449538,-10.8289590136418,-301.429105502487
738506.44687903788872063160,-21.6025269325846,-10.9582049012726,-301.419873653371
738506.44687912834342569113,-21.5655995361187,-10.9397412030396,-301.438337351604
738506.44687921879813075066,-21.4178899502548,-10.8843501083407,-301.410641804254
738506.44687930925283581018,-21.4363536484878,-10.9397412030396,-301.484496597186
738506.44687939970754086971,-21.4825128940703,-10.9120456556902,-301.484496597186
738506.44687949004583060741,-21.4363536484878,-10.9028138065737,-301.429105502487
738506.44687958050053566694,-21.4548173467208,-10.9028138065737,-301.493728446303
738506.44687967095524072647,-21.5471358378857,-10.9397412030396,-301.466032898953
738506.44687976140994578600,-21.5655995361187,-10.8935819574572,-301.466032898953
738506.44687985186465084553,-21.5840632343516,-10.8935819574572,-301.456801049837
738506.44687994231935590506,-21.6302224799341,-10.9028138065737,-301.493728446303
738506.44688003277406096458,-21.6671498764,-10.9582049012726,-301.466032898953
738506.44688012311235070229,-21.6486861781671,-10.9212775048067,-301.429105502487
738506.44688021356705576181,-21.6948454237495,-10.9489730521561,-301.47526474807
738506.44688030402176082134,-21.704077272866,-10.9859004486221,-301.493728446303
738506.44688039447646588087,-21.7133091219825,-10.9212775048067,-301.410641804254
738506.44688048493117094040,-21.704077272866,-10.9397412030396,-301.493728446303
738506.44688057538587599993,-21.6948454237495,-10.9582049012726,-301.47526474807
738506.44688066584058105946,-21.6117587817011,-10.8658864101077,-301.456801049837
738506.44688075617887079716,-21.6671498764,-10.8935819574572,-301.47526474807
738506.44688084663357585669,-21.741004669332,-10.8935819574572,-301.484496597186
738506.44688093708828091621,-21.6579180272835,-10.8197271645253,-301.466032898953
738506.44688102754298597574,-21.270180364391,-10.7735679189428,-301.355250709555
738506.44688111799769103527,-21.0116885891293,-10.8197271645253,-301.382946256905
738506.44688120845239609480,-20.5316324350719,-11.041291543321,-301.382946256905
738506.44688129890710115433,-20.6147190771203,-11.1705374309519,-301.355250709555
738506.44688138924539089203,-21.7779320657979,-11.1982329783013,-301.392178106021
738506.44688147970009595156,-22.0271919919431,-10.9674367503891,-301.512192144536
