time_dn,ecg_projection_ll_ra_mV,ecg_projection_la_ra_mV,ecg_projection_vx_rl_mV
738506.43542105250526219606,-20.7901242103336,-10.3673665578173,-301.207541123691
738506.43542114295996725559,-20.8085879085665,-10.3765984069338,-301.13368633076
738506.43542123341467231512,-20.8270516067995,-10.3765984069338,-301.124454481643
738506.43542132386937737465,-20.8270516067995,-10.3765984069338,-301.152150028993
738506.43542141432408243418,-20.8270516067995,-10.3858302560503,-301.170613727226
738506.43542150477878749371,-20.8270516067995,-10.3858302560503,-301.170613727226
738506.43542159523349255323,-20.836283455916,-10.3858302560503,-301.170613727226
738506.43542168557178229094,-20.836283455916,-10.3950621051668,-301.170613727226
738506.43542177602648735046,-20.836283455916,-10.3858302560503,-301.198309274575
738506.43542186648119240999,-20.836283455916,-10.3950621051668,-301.216772972808
738506.43542195693589746952,-20.836283455916,-10.3858302560503,-301.115222632527
738506.43542204739060252905,-20.8455153050325,-10.4042939542833,-301.189077425459
738506.43542213784530758858,-20.836283455916,-10.3858302560503,-301.13368633076
738506.43542222830001264811,-20.836283455916,-10.4042939542833,-301.179845576342
738506.43542231875471770763,-20.836283455916,-10.3858302560503,-301.216772972808
738506.43542240920942276716,-20.8455153050325,-10.4042939542833,-301.142918179876
738506.43542249954771250486,-20.836283455916,-10.3858302560503,-301.179845576342
738506.43542259000241756439,-20.8455153050325,-10.4042939542833,-301.207541123691
738506.43542268045712262392,-20.836283455916,-10.3858302560503,-301.226004821925
738506.43542277091182768345,-20.8455153050325,-10.4042939542833,-301.13368633076
738506.43542286136653274298,-20.8455153050325,-10.4042939542833,-301.207541123691
738506.43542295182123780251,-20.836283455916,-10.3950621051668,-301.226004821925
738506.43542304227594286203,-20.8455153050325,-10.4042939542833,-301.115222632527
738506.43542313273064792156,-20.836283455916,-10.3858302560503,-301.124454481643
738506.43542322306893765926,-20.8455153050325,-10.4042939542833,-301.124454481643
738506.43542331352364271879,-20.8455153050325,-10.3950621051668,-301.124454481643
738506.43542340397834777832,-20.854747154149,-10.4042939542833,-301.115222632527
738506.43542349443305283785,-20.854747154149,-10.3950621051668,-301.198309274575
738506.43542358488775789738,-20.8639790032655,-10.4135258033998,-301.198309274575
738506.43542367534246295691,-20.8639790032655,-10.3950621051668,-301.161381878109
738506.43542376579716801643,-20.873210852382,-10.4135258033998,-301.216772972808
738506.43542385625187307596,-20.8639790032655,-10.3950621051668,-301.207541123691
738506.43542394659016281366,-20.873210852382,-10.4135258033998,-301.226004821925
738506.43542403704486787319,-20.8639790032655,-10.3950621051668,-301.207541123691
738506.43542412749957293272,-20.873210852382,-10.4135258033998,-301.050599688711
738506.43542421795427799225,-20.8639790032655,-10.3950621051668,-301.13368633076
738506.43542430840898305178,-20.873210852382,-10.4135258033998,-301.198309274575
738506.43542439886368811131,-20.8639790032655,-10.3950621051668,-301.170613727226
738506.43542448931839317083,-20.873210852382,-10.4042939542833,-301.13368633076
738506.43542457977309823036,-20.873210852382,-10.4042939542833,-301.161381878109
738506.43542467022780328989,-20.873210852382,-10.3950621051668,-301.152150028993
738506.43542476056609302759,-20.8824427014985,-10.4135258033998,-301.161381878109
738506.43542485102079808712,-20.8824427014985,-10.3950621051668,-301.152150028993
738506.43542494147550314665,-20.8824427014985,-10.4135258033998,-301.179845576342
738506.43542503193020820618,-20.873210852382,-10.3950621051668,-301.253700369274
738506.43542512238491326571,-20.8824427014985,-10.4135258033998,-301.207541123691
738506.43542521283961832523,-20.873210852382,-10.3950621051668,-301.198309274575
738506.43542530329432338476,-20.8824427014985,-10.4135258033998,-301.170613727226
738506.43542539374902844429,-20.8824427014985,-10.3950621051668,-301.189077425459
738506.43542548408731818199,-20.8916745506149,-10.4135258033998,-301.142918179876
738506.43542557454202324152,-20.8824427014985,-10.3950621051668,-301.142918179876
738506.43542566499672830105,-20.8916745506149,-10.4042939542833,-301.152150028993
738506.43542575545143336058,-20.8824427014985,-10.3950621051668,-301.179845576342
738506.43542584590613842010,-20.8916745506149,-10.4042939542833,-301.179845576342
738506.43542593636084347963,-20.8916745506149,-10.4042939542833,-301.161381878109
738506.43542602681554853916,-20.8916745506149,-10.4135258033998,-301.198309274575
738506.43542611727025359869,-20.8916745506149,-10.4135258033998,-301.161381878109
738506.43542620772495865822,-20.8824427014985,-10.4042939542833,-301.198309274575
738506.43542629806324839592,-20.8639790032655,-10.4135258033998,-301.226004821925
738506.43542638851795345545,-20.8455153050325,-10.4042939542833,-301.235236671041
738506.43542647897265851498,-20.8270516067995,-10.3950621051668,-301.152150028993
738506.43542656942736357450,-20.817819757683,-10.3765984069338,-301.235236671041
738506.43542665988206863403,-20.7808923612171,-10.3858302560503,-301.244468520157
738506.43542675033677369356,-20.7439649647511,-10.3765984069338,-301.152150028993
738506.43542684079147875309,-20.7347331156346,-10.4042939542833,-301.235236671041
738506.43542693124618381262,-20.7162694174017,-10.3673665578173,-301.207541123691
738506.43542702158447355032,-20.7162694174017,-10.3858302560503,-301.189077425459
738506.43542711203917860985,-20.7531968138676,-10.3673665578173,-301.179845576342
738506.43542720249388366938,-20.836283455916,-10.3950621051668,-301.235236671041
738506.43542729294858872890,-20.873210852382,-10.4135258033998,-301.198309274575
738506.43542738340329378843,-20.9101382488479,-10.4227576525162,-301.13368633076
738506.43542747385799884796,-20.9193700979644,-10.4319895016327,-301.226004821925
738506.43542756431270390749,-20.9286019470809,-10.4319895016327,-301.226004821925
738506.43542765476740896702,-20.9378337961974,-10.4319895016327,-301.087527085177
738506.43542774510569870472,-20.9286019470809,-10.4319895016327,-301.124454481643
738506.43542783556040376425,-20.9378337961974,-10.4319895016327,-301.216772972808
738506.43542792601510882378,-20.9378337961974,-10.4135258033998,-301.207541123691
738506.43542801646981388330,-20.9470656453139,-10.4412213507492,-301.198309274575
738506.43542810692451894283,-20.9286019470809,-10.4227576525162,-301.244468520157
738506.43542819737922400236,-20.9286019470809,-10.4412213507492,-301.216772972808
738506.43542828783392906189,-20.9193700979644,-10.4135258033998,-301.13368633076
738506.43542837828863412142,-20.9562974944304,-10.4042939542833,-301.152150028993
738506.43542846874333918095,-20.9747611926634,-10.3581347087008,-301.115222632527
738506.43542855908162891865,-20.836283455916,-10.2935117648854,-301.10599078341
738506.43542864953633397818,-20.4300820947905,-10.2196569719535,-301.069063386944
738506.43542873999103903770,-19.9961851863155,-10.3950621051668,-301.069063386944
738506.43542883044574409723,-19.9592577898495,-10.6812494277779,-301.096758934294
738506.43542892090044915676,-20.9655293435469,-10.7643360698263,-301.281395916623
738506.43542901135515421629,-21.307107760857,-10.5612353892636,-301.216772972808
738506.43542910180985927582,-21.0947752311777,-10.3489028595843,-301.198309274575
738506.43542919226456433535,-20.8455153050325,-10.3489028595843,-301.152150028993
738506.43542928260285407305,-20.817819757683,-10.3673665578173,-301.235236671041
738506.43542937305755913258,-20.8455153050325,-10.3858302560503,-301.189077425459
738506.43542946351226419210,-20.8455153050325,-10.3673665578173,-301.161381878109
738506.43542955396696925163,-20.836283455916,-10.3765984069338,-301.170613727226
738506.43542964442167431116,-20.8270516067995,-10.3673665578173,-301.198309274575
738506.43542973487637937069,-20.8270516067995,-10.3765984069338,-301.142918179876
738506.43542982533108443022,-20.817819757683,-10.3581347087008,-301.179845576342
738506.43542991578578948975,-20.817819757683,-10.3765984069338,-301.13368633076
738506.43543000612407922745,-20.7993560594501,-10.3489028595843,-301.161381878109
738506.43543009657878428698,-20.7901242103336,-10.3581347087008,-301.161381878109
738506.43543018703348934650,-20.7716605121006,-10.3489028595843,-301.142918179876
738506.43543027748819440603,-20.7624286629841,-10.3396710104678,-301.170613727226
738506.43543036794289946556,-20.7531968138676,-10.3489028595843,-301.142918179876
738506.43543045839760452509,-20.7439649647511,-10.3304391613514,-301.115222632527
738506.43543054885230958462,-20.7347331156346,-10.3489028595843,-301.10599078341
738506.43543063930701464415,-20.7162694174017,-10.3212073122349,-301.142918179876
738506.43543072976171970367,-20.6978057191687,-10.3304391613514,-301.124454481643
738506.43543082010000944138,-20.6793420209357,-10.3027436140019,-301.170613727226
738506.43543091055471450090,-20.6701101718192,-10.3119754631184,-301.13368633076
738506.43543100100941956043,-20.6331827753533,-10.2842799157689,-301.078295236061
738506.43543109146412461996,-20.6239509262368,-10.2842799157689,-301.115222632527
738506.43543118191882967949,-20.5870235297708,-10.2565843684194,-301.050599688711
738506.43543127237353473902,-20.5593279824213,-10.2565843684194,-301.032135990478
738506.43543136282823979855,-20.5224005859554,-10.2196569719535,-301.152150028993
738506.43543145328294485807,-20.4947050386059,-10.210425122837,-301.124454481643
738506.43543154362123459578,-20.439313943907,-10.1827295754875,-301.087527085177
738506.43543163407593965530,-20.402386547441,-10.173497726371,-301.041367839595
738506.43543172453064471483,-20.3654591509751,-10.1458021790216,-301.096758934294
738506.43543181498534977436,-20.3377636036256,-10.1458021790216,-301.115222632527
738506.43543190544005483389,-20.3192999053926,-10.1458021790216,-300.995208594012
738506.43543199589475989342,-20.3192999053926,-10.1458021790216,-301.069063386944
738506.43543208634946495295,-20.3654591509751,-10.1827295754875,-301.115222632527
738506.43543217680417001247,-20.402386547441,-10.191961424604,-301.096758934294
738506.43543226714245975018,-20.4947050386059,-10.247352519303,-301.069063386944
738506.43543235759716480970,-20.5870235297708,-10.2750480666524,-301.170613727226
738506.43543244805186986923,-20.6793420209357,-10.3304391613514,-301.189077425459
738506.43543253850657492876,-20.7347331156346,-10.3489028595843,-301.078295236061
738506.43543262896127998829,-20.7808923612171,-10.3765984069338,-301.189077425459
738506.43543271941598504782,-20.817819757683,-10.3765984069338,-301.189077425459
738506.43543280987069010735,-20.8455153050325,-10.3950621051668,-301.124454481643
738506.43543290032539516687,-20.8455153050325,-10.3950621051668,-301.216772972808
738506.43543299078010022640,-20.854747154149,-10.4042939542833,-301.216772972808
738506.43543308111838996410,-20.8639790032655,-10.3950621051668,-301.198309274575
738506.43543317157309502363,-20.8455153050325,-10.3950621051668,-301.087527085177
738506.43543326202780008316,-20.854747154149,-10.4042939542833,-301.115222632527
738506.43543335248250514269,-20.8639790032655,-10.4042939542833,-301.115222632527
738506.43543344293721020222,-20.8639790032655,-10.4135258033998,-301.087527085177
738506.43543353339191526175,-20.8639790032655,-10.4042939542833,-301.13368633076
738506.43543362384662032127,-20.854747154149,-10.4135258033998,-301.170613727226
738506.43543371430132538080,-20.836283455916,-10.3950621051668,-301.152150028993
738506.43543380463961511850,-20.854747154149,-10.4135258033998,-301.189077425459
738506.43543389509432017803,-20.854747154149,-10.3950621051668,-301.124454481643
738506.43543398554902523756,-20.8455153050325,-10.4135258033998,-301.124454481643
738506.43543407600373029709,-20.8455153050325,-10.3950621051668,-301.161381878109
738506.43543416645843535662,-20.854747154149,-10.4135258033998,-301.096758934294
738506.43543425691314041615,-20.854747154149,-10.4042939542833,-301.115222632527
738506.43543434736784547567,-20.854747154149,-10.4042939542833,-301.13368633076
738506.43543443782255053520,-20.8639790032655,-10.4042939542833,-301.152150028993
738506.43543452816084027290,-20.8639790032655,-10.4042939542833,-301.152150028993
738506.43543461861554533243,-20.8639790032655,-10.4135258033998,-301.179845576342
738506.43543470907025039196,-20.8639790032655,-10.4135258033998,-301.096758934294
738506.43543479952495545149,-20.873210852382,-10.4135258033998,-301.032135990478
738506.43543488997966051102,-20.8824427014985,-10.4135258033998,-301.152150028993
738506.43543498043436557055,-20.8916745506149,-10.4227576525162,-301.161381878109
738506.43543507088907063007,-20.8916745506149,-10.4042939542833,-301.235236671041
738506.43543516134377568960,-20.8916745506149,-10.4227576525162,-301.216772972808
738506.43543525179848074913,-20.8824427014985,-10.4042939542833,-301.161381878109
738506.43543534213677048683,-20.9009063997314,-10.4227576525162,-301.189077425459
738506.43543543259147554636,-20.8916745506149,-10.4135258033998,-301.207541123691
738506.43543552304618060589,-20.9101382488479,-10.4319895016327,-301.189077425459
738506.43543561350088566542,-20.9009063997314,-10.4135258033998,-301.207541123691
738506.43543570395559072495,-20.9009063997314,-10.4319895016327,-301.207541123691
738506.43543579441029578447,-20.8916745506149,-10.4135258033998,-301.198309274575
738506.43543588486500084400,-20.8916745506149,-10.4135258033998,-301.124454481643
738506.43543597531970590353,-20.9009063997314,-10.4319895016327,-301.207541123691
738506.43543606565799564123,-20.9009063997314,-10.4227576525162,-301.226004821925
738506.43543615611270070076,-20.9101382488479,-10.4319895016327,-301.207541123691
738506.43543624656740576029,-20.8916745506149,-10.4135258033998,-301.198309274575
738506.43543633702211081982,-20.9009063997314,-10.4319895016327,-301.226004821925
738506.43543642747681587934,-20.9101382488479,-10.4227576525162,-301.198309274575
738506.43543651793152093887,-20.9101382488479,-10.4319895016327,-301.152150028993
738506.43543660838622599840,-20.9009063997314,-10.4227576525162,-301.216772972808
738506.43543669884093105793,-20.9193700979644,-10.4412213507492,-301.244468520157
738506.43543678917922079563,-20.9009063997314,-10.4227576525162,-301.13368633076
738506.43543687963392585516,-20.9193700979644,-10.4412213507492,-301.207541123691
738506.43543697008863091469,-20.9193700979644,-10.4227576525162,-301.226004821925
738506.43543706054333597422,-20.9101382488479,-10.4412213507492,-301.161381878109
738506.43543715099804103374,-20.9009063997314,-10.4319895016327,-301.198309274575
738506.43543724145274609327,-20.9286019470809,-10.4412213507492,-301.226004821925
738506.43543733190745115280,-20.9101382488479,-10.4319895016327,-301.161381878109
738506.43543742236215621233,-20.9193700979644,-10.4412213507492,-301.207541123691
738506.43543751281686127186,-20.9101382488479,-10.4319895016327,-301.142918179876
738506.43543760315515100956,-20.9193700979644,-10.4319895016327,-301.124454481643
738506.43543769360985606909,-20.9193700979644,-10.4319895016327,-301.170613727226
738506.43543778406456112862,-20.9193700979644,-10.4227576525162,-301.170613727226
738506.43543787451926618814,-20.9193700979644,-10.4412213507492,-301.13368633076
738506.43543796497397124767,-20.9101382488479,-10.4319895016327,-301.10599078341
738506.43543805542867630720,-20.9193700979644,-10.4319895016327,-301.10599078341
738506.43543814588338136673,-20.9101382488479,-10.4227576525162,-301.124454481643
738506.43543823633808642626,-20.9286019470809,-10.4412213507492,-301.087527085177
738506.43543832667637616396,-20.9193700979644,-10.4227576525162,-301.022904141362
738506.43543841713108122349,-20.9286019470809,-10.4319895016327,-301.124454481643
738506.43543850758578628302,-20.9193700979644,-10.4227576525162,-301.170613727226
738506.43543859804049134254,-20.9286019470809,-10.4319895016327,-301.161381878109
738506.43543868849519640207,-20.9193700979644,-10.4227576525162,-301.189077425459
738506.43543877894990146160,-20.9378337961974,-10.4319895016327,-301.142918179876
738506.43543886940460652113,-20.9286019470809,-10.4227576525162,-301.198309274575
738506.43543895985931158066,-20.9101382488479,-10.4319895016327,-301.142918179876
738506.43543905019760131836,-20.8916745506149,-10.4227576525162,-301.170613727226
738506.43543914065230637789,-20.873210852382,-10.4135258033998,-301.179845576342
738506.43543923110701143742,-20.8639790032655,-10.4042939542833,-301.189077425459
738506.43543932156171649694,-20.7901242103336,-10.3950621051668,-301.216772972808
738506.43543941201642155647,-20.7901242103336,-10.4227576525162,-301.207541123691
738506.43543950247112661600,-20.7808923612171,-10.4135258033998,-301.161381878109
738506.43543959292583167553,-20.7624286629841,-10.4042939542833,-301.179845576342
738506.43543968338053673506,-20.7531968138676,-10.3950621051668,-301.198309274575
738506.43543977383524179459,-20.8085879085665,-10.4042939542833,-301.179845576342
738506.43543986417353153229,-20.854747154149,-10.4135258033998,-301.207541123691
738506.43543995462823659182,-20.9101382488479,-10.4319895016327,-301.179845576342
738506.43544004508294165134,-20.9378337961974,-10.4319895016327,-301.235236671041
738506.43544013553764671087,-20.9655293435469,-10.4412213507492,-301.189077425459
738506.43544022599235177040,-20.9655293435469,-10.4412213507492,-301.170613727226
738506.43544031644705682993,-20.9655293435469,-10.4412213507492,-301.189077425459
738506.43544040690176188946,-20.9839930417798,-10.4412213507492,-301.207541123691
738506.43544049735646694899,-20.9747611926634,-10.4412213507492,-301.152150028993
738506.43544058769475668669,-20.9932248908963,-10.4504531998657,-301.216772972808
738506.43544067814946174622,-20.9932248908963,-10.4412213507492,-301.216772972808
738506.43544076860416680574,-20.9839930417798,-10.4504531998657,-301.207541123691
738506.43544085905887186527,-20.9839930417798,-10.4412213507492,-301.198309274575
738506.43544094951357692480,-20.9747611926634,-10.4504531998657,-301.207541123691
738506.43544103996828198433,-20.9839930417798,-10.4227576525162,-301.216772972808
738506.43544113042298704386,-21.0024567400128,-10.3673665578173,-301.13368633076
738506.43544122087769210339,-20.7993560594501,-10.2750480666524,-301.142918179876
738506.43544131121598184109,-20.3469954527421,-10.2381206701865,-301.087527085177
738506.43544140167068690062,-19.9777214880825,-10.4319895016327,-301.022904141362
738506.43544149212539196014,-19.8946348460341,-10.5981627857295,-301.078295236061
738506.43544158258009701967,-20.7624286629841,-10.7735679189428,-301.207541123691
738506.43544167303480207920,-21.4548173467208,-10.6997131260109,-301.207541123691
738506.43544176348950713873,-21.270180364391,-10.4412213507492,-301.152150028993
738506.43544185394421219826,-21.0024567400128,-10.3489028595843,-301.115222632527
738506.43544194439891725779,-20.8916745506149,-10.3765984069338,-301.115222632527
738506.43544203485362231731,-20.8824427014985,-10.3950621051668,-301.124454481643
738506.43544212519191205502,-20.8824427014985,-10.4042939542833,-301.115222632527
738506.43544221564661711454,-20.9009063997314,-10.3950621051668,-301.142918179876
738506.43544230610132217407,-20.8916745506149,-10.4042939542833,-301.124454481643
738506.43544239655602723360,-20.873210852382,-10.3765984069338,-301.142918179876
738506.43544248701073229313,-20.873210852382,-10.3950621051668,-301.124454481643
738506.43544257746543735266,-20.8455153050325,-10.3765984069338,-301.115222632527
738506.43544266792014241219,-20.8455153050325,-10.3858302560503,-301.115222632527
738506.43544275837484747171,-20.8270516067995,-10.3673665578173,-301.161381878109
738506.43544284871313720942,-20.817819757683,-10.3765984069338,-301.13368633076
738506.43544293916784226894,-20.7993560594501,-10.3581347087008,-301.087527085177
738506.43544302962254732847,-20.7993560594501,-10.3673665578173,-301.059831537828
738506.43544312007725238800,-20.7808923612171,-10.3396710104678,-301.069063386944
738506.43544321053195744753,-20.7808923612171,-10.3489028595843,-301.087527085177
738506.43544330098666250706,-20.7624286629841,-10.3304391613514,-301.096758934294
738506.43544339144136756659,-20.7439649647511,-10.3304391613514,-301.059831537828
738506.43544348189607262611,-20.7347331156346,-10.3396710104678,-301.13368633076
738506.43544357223436236382,-20.7162694174017,-10.3119754631184,-301.152150028993
738506.43544366268906742334,-20.7070375682852,-10.3212073122349,-301.13368633076
738506.43544375314377248287,-20.6701101718192,-10.2842799157689,-301.161381878109
738506.43544384359847754240,-20.6701101718192,-10.2935117648854,-301.13368633076
738506.43544393405318260193,-20.6239509262368,-10.2658162175359,-301.10599078341
738506.43544402450788766146,-20.6054872280038,-10.2658162175359,-301.13368633076
738506.43544411496259272099,-20.5593279824213,-10.2196569719535,-301.10599078341
738506.43544420541729778051,-20.5408642841884,-10.2196569719535,-301.10599078341
738506.43544429587200284004,-20.4947050386059,-10.191961424604,-301.115222632527
738506.43544438621029257774,-20.4670094912564,-10.191961424604,-301.096758934294
738506.43544447666499763727,-20.439313943907,-10.173497726371,-301.096758934294
738506.43544456711970269680,-20.4300820947905,-10.173497726371,-301.115222632527
738506.43544465757440775633,-20.420850245674,-10.1642658772546,-301.078295236061
738506.43544474802911281586,-20.439313943907,-10.1827295754875,-301.096758934294
738506.43544483848381787539,-20.4854731894894,-10.210425122837,-301.078295236061
738506.43544492893852293491,-20.5593279824213,-10.2565843684194,-301.13368633076
738506.43544501939322799444,-20.6331827753533,-10.3027436140019,-301.170613727226
738506.43544510973151773214,-20.7070375682852,-10.3304391613514,-301.124454481643
738506.43544520018622279167,-20.7716605121006,-10.3673665578173,-301.161381878109
738506.43544529064092785120,-20.7901242103336,-10.3673665578173,-301.142918179876
738506.43544538109563291073,-20.836283455916,-10.4042939542833,-301.059831537828
738506.43544547155033797026,-20.836283455916,-10.3950621051668,-301.189077425459
738506.43544556200504302979,-20.8639790032655,-10.4135258033998,-301.207541123691
738506.43544565245974808931,-20.8639790032655,-10.4042939542833,-301.096758934294
738506.43544574291445314884,-20.8824427014985,-10.4227576525162,-301.124454481643
738506.43544583325274288654,-20.873210852382,-10.4135258033998,-301.161381878109
738506.43544592370744794607,-20.873210852382,-10.4135258033998,-301.13368633076
738506.43544601416215300560,-20.8639790032655,-10.4135258033998,-301.115222632527
738506.43544610461685806513,-20.8639790032655,-10.4135258033998,-301.179845576342
738506.43544619507156312466,-20.8639790032655,-10.4042939542833,-301.207541123691
738506.43544628552626818419,-20.8639790032655,-10.4135258033998,-301.198309274575
738506.43544637598097324371,-20.8639790032655,-10.4135258033998,-301.179845576342
738506.43544646643567830324,-20.8639790032655,-10.4042939542833,-301.189077425459
738506.43544655689038336277,-20.8639790032655,-10.4042939542833,-301.207541123691
738506.43544664722867310047,-20.854747154149,-10.3950621051668,-301.170613727226
738506.43544673768337816000,-20.8639790032655,-10.4042939542833,-301.235236671041
738506.43544682813808321953,-20.8639790032655,-10.3950621051668,-301.235236671041
738506.43544691859278827906,-20.8639790032655,-10.4135258033998,-301.13368633076
738506.43544700904749333858,-20.8639790032655,-10.4042939542833,-301.179845576342
738506.43544709950219839811,-20.8639790032655,-10.4042939542833,-301.198309274575
738506.43544718995690345764,-20.873210852382,-10.4042939542833,-301.207541123691
738506.43544728041160851717,-20.873210852382,-10.4135258033998,-301.170613727226
738506.43544737074989825487,-20.8824427014985,-10.4135258033998,-301.235236671041
738506.43544746120460331440,-20.8824427014985,-10.4135258033998,-301.244468520157
738506.43544755165930837393,-20.8824427014985,-10.4227576525162,-301.170613727226
738506.43544764211401343346,-20.8916745506149,-10.4227576525162,-301.207541123691
738506.43544773256871849298,-20.8916745506149,-10.4319895016327,-301.152150028993
738506.43544782302342355251,-20.8916745506149,-10.4227576525162,-301.198309274575
738506.43544791347812861204,-20.9009063997314,-10.4319895016327,-301.244468520157
738506.43544800393283367157,-20.9101382488479,-10.4227576525162,-301.10599078341
738506.43544809427112340927,-20.9101382488479,-10.4412213507492,-301.10599078341
738506.43544818472582846880,-20.9101382488479,-10.4227576525162,-301.13368633076
738506.43544827518053352833,-20.9193700979644,-10.4412213507492,-301.096758934294
738506.43544836563523858786,-20.9009063997314,-10.4227576525162,-301.124454481643
738506.43544845608994364738,-20.9101382488479,-10.4412213507492,-301.170613727226
738506.43544854654464870691,-20.9101382488479,-10.4227576525162,-301.189077425459
738506.43544863699935376644,-20.9286019470809,-10.4412213507492,-301.161381878109
738506.43544872745405882597,-20.9193700979644,-10.4227576525162,-301.179845576342
738506.43544881790876388550,-20.9193700979644,-10.4412213507492,-300.976744895779
738506.43544890824705362320,-20.9101382488479,-10.4227576525162,-301.087527085177
738506.43544899870175868273,-20.9193700979644,-10.4319895016327,-301.170613727226
738506.43544908915646374226,-20.9286019470809,-10.4412213507492,-301.179845576342
738506.43544917961116880178,-20.9286019470809,-10.4319895016327,-301.189077425459
738506.43544927006587386131,-20.9286019470809,-10.4412213507492,-301.161381878109
738506.43544936052057892084,-20.9286019470809,-10.4319895016327,-301.198309274575
738506.43544945097528398037,-20.9378337961974,-10.4412213507492,-301.189077425459
738506.43544954142998903990,-20.9286019470809,-10.4319895016327,-301.13368633076
738506.43544963176827877760,-20.9378337961974,-10.4412213507492,-301.179845576342
738506.43544972222298383713,-20.9286019470809,-10.4227576525162,-301.189077425459
738506.43544981267768889666,-20.9378337961974,-10.4412213507492,-301.142918179876
738506.43544990313239395618,-20.9193700979644,-10.4319895016327,-301.189077425459
738506.43544999358709901571,-20.9286019470809,-10.4412213507492,-301.170613727226
738506.43545008404180407524,-20.9286019470809,-10.4227576525162,-301.179845576342
738506.43545017449650913477,-20.9286019470809,-10.4412213507492,-301.152150028993
738506.43545026495121419430,-20.9286019470809,-10.4319895016327,-301.13368633076
738506.43545035528950393200,-20.9286019470809,-10.4412213507492,-301.152150028993
738506.43545044574420899153,-20.9193700979644,-10.4227576525162,-301.152150028993
738506.43545053619891405106,-20.9378337961974,-10.4319895016327,-301.152150028993
738506.43545062665361911058,-20.9286019470809,-10.4227576525162,-301.179845576342
738506.43545071710832417011,-20.9193700979644,-10.4227576525162,-301.161381878109
738506.43545080756302922964,-20.9101382488479,-10.4319895016327,-301.161381878109
738506.43545089801773428917,-20.8916745506149,-10.4227576525162,-301.161381878109
738506.43545098847243934870,-20.8824427014985,-10.4227576525162,-301.179845576342
738506.43545107892714440823,-20.854747154149,-10.4042939542833,-301.152150028993
738506.43545116926543414593,-20.817819757683,-10.4135258033998,-301.13368633076
738506.43545125972013920546,-20.7808923612171,-10.4042939542833,-301.152150028993
738506.43545135017484426498,-20.7808923612171,-10.4319895016327,-301.170613727226
738506.43545144062954932451,-20.7624286629841,-10.3950621051668,-301.253700369274
738506.43545153108425438404,-20.7624286629841,-10.4135258033998,-301.161381878109
738506.43545162153895944357,-20.8085879085665,-10.4042939542833,-301.226004821925
738506.43545171199366450310,-20.8824427014985,-10.4227576525162,-301.13368633076
738506.43545180244836956263,-20.9286019470809,-10.4319895016327,-301.179845576342
738506.43545189278665930033,-20.9655293435469,-10.4504531998657,-301.189077425459
738506.43545198324136435986,-20.9655293435469,-10.4412213507492,-301.244468520157
738506.43545207369606941938,-20.9747611926634,-10.4504531998657,-301.244468520157
738506.43545216415077447891,-20.9747611926634,-10.4504531998657,-301.161381878109
738506.43545225460547953844,-20.9747611926634,-10.4412213507492,-301.207541123691
738506.43545234506018459797,-20.9839930417798,-10.4504531998657,-301.022904141362
738506.43545243551488965750,-20.9839930417798,-10.4504531998657,-301.170613727226
738506.43545252596959471703,-20.9839930417798,-10.4504531998657,-301.198309274575
738506.43545261630788445473,-20.9747611926634,-10.4412213507492,-301.207541123691
738506.43545270676258951426,-20.9747611926634,-10.4504531998657,-301.235236671041
738506.43545279721729457378,-20.9655293435469,-10.4319895016327,-301.207541123691
738506.43545288767199963331,-20.9839930417798,-10.4319895016327,-301.198309274575
738506.43545297812670469284,-21.0116885891293,-10.3673665578173,-301.189077425459
738506.43545306858140975237,-20.854747154149,-10.2935117648854,-301.161381878109
738506.43545315903611481190,-20.420850245674,-10.2196569719535,-301.087527085177
738506.43545324949081987143,-20.0515762810144,-10.4135258033998,-301.13368633076
738506.43545333994552493095,-20.0515762810144,-10.6997131260109,-301.152150028993
738506.43545343028381466866,-21.0947752311777,-10.7735679189428,-301.198309274575
738506.43545352073851972818,-21.3901944029054,-10.5520035401471,-301.179845576342
738506.43545361119322478771,-21.1409344767602,-10.3581347087008,-301.10599078341
738506.43545370164792984724,-20.8824427014985,-10.3581347087008,-301.059831537828
738506.43545379210263490677,-20.854747154149,-10.3765984069338,-301.115222632527
738506.43545388255733996630,-20.8824427014985,-10.3950621051668,-301.087527085177
738506.43545397301204502583,-20.873210852382,-10.3765984069338,-301.096758934294
738506.43545406346675008535,-20.8824427014985,-10.3950621051668,-301.087527085177
738506.43545415380503982306,-20.8639790032655,-10.3765984069338,-301.096758934294
738506.43545424425974488258,-20.8639790032655,-10.3858302560503,-301.115222632527
738506.43545433471444994211,-20.8455153050325,-10.3673665578173,-301.124454481643
738506.43545442516915500164,-20.854747154149,-10.3858302560503,-301.13368633076
738506.43545451562386006117,-20.8270516067995,-10.3673665578173,-301.10599078341
738506.43545460607856512070,-20.8270516067995,-10.3765984069338,-301.115222632527
738506.43545469653327018023,-20.8085879085665,-10.3673665578173,-301.179845576342
738506.43545478698797523975,-20.7993560594501,-10.3581347087008,-301.198309274575
738506.43545487732626497746,-20.7901242103336,-10.3673665578173,-301.13368633076
738506.43545496778097003698,-20.7808923612171,-10.3489028595843,-301.124454481643
738506.43545505823567509651,-20.7716605121006,-10.3581347087008,-301.115222632527
738506.43545514869038015604,-20.7531968138676,-10.3396710104678,-301.124454481643
738506.43545523914508521557,-20.7439649647511,-10.3489028595843,-301.10599078341
738506.43545532959979027510,-20.7162694174017,-10.3212073122349,-301.124454481643
738506.43545542005449533463,-20.7070375682852,-10.3304391613514,-301.10599078341
738506.43545551050920039415,-20.6793420209357,-10.2935117648854,-301.10599078341
738506.43545560096390545368,-20.6608783227027,-10.3027436140019,-301.096758934294
738506.43545569130219519138,-20.6331827753533,-10.2750480666524,-301.078295236061
738506.43545578175690025091,-20.6054872280038,-10.2750480666524,-301.078295236061
738506.43545587221160531044,-20.5593279824213,-10.2381206701865,-300.958281197546
738506.43545596266631036997,-20.5316324350719,-10.22888882107,-300.995208594012
738506.43545605312101542950,-20.4854731894894,-10.2011932737205,-301.115222632527
738506.43545614357572048903,-20.45777764214,-10.191961424604,-301.115222632527
738506.43545623403042554855,-20.4116183965575,-10.1642658772546,-301.022904141362
738506.43545632448513060808,-20.3931546983245,-10.1642658772546,-301.050599688711
738506.43545641482342034578,-20.3654591509751,-10.1458021790216,-301.013672292245
738506.43545650527812540531,-20.3654591509751,-10.1458021790216,-300.995208594012
738506.43545659573283046484,-20.3931546983245,-10.191961424604,-300.976744895779
738506.43545668618753552437,-20.439313943907,-10.2011932737205,-301.032135990478
738506.43545677664224058390,-20.5316324350719,-10.2565843684194,-301.050599688711
738506.43545686709694564342,-20.6147190771203,-10.2842799157689,-301.096758934294
738506.43545695755165070295,-20.7070375682852,-10.3396710104678,-301.179845576342
738506.43545704800635576248,-20.7531968138676,-10.3489028595843,-301.189077425459
738506.43545713834464550018,-20.8085879085665,-10.3858302560503,-301.152150028993
738506.43545722879935055971,-20.8270516067995,-10.3858302560503,-301.207541123691
738506.43545731925405561924,-20.8639790032655,-10.4042939542833,-301.207541123691
738506.43545740970876067877,-20.8639790032655,-10.3950621051668,-301.152150028993
738506.43545750016346573830,-20.873210852382,-10.4135258033998,-301.179845576342
738506.43545759061817079782,-20.873210852382,-10.4042939542833,-301.189077425459
738506.43545768107287585735,-20.873210852382,-10.4135258033998,-301.207541123691
738506.43545777152758091688,-20.873210852382,-10.4042939542833,-301.170613727226
738506.43545786198228597641,-20.873210852382,-10.4042939542833,-301.235236671041
738506.43545795232057571411,-20.873210852382,-10.4042939542833,-301.244468520157
738506.43545804277528077364,-20.873210852382,-10.4042939542833,-301.13368633076
738506.43545813322998583317,-20.873210852382,-10.4042939542833,-301.207541123691
738506.43545822368469089270,-20.8639790032655,-10.4042939542833,-301.226004821925
738506.43545831413939595222,-20.873210852382,-10.4135258033998,-301.198309274575
738506.43545840459410101175,-20.854747154149,-10.3950621051668,-301.170613727226
738506.43545849504880607128,-20.8639790032655,-10.4135258033998,-301.244468520157
738506.43545858550351113081,-20.8639790032655,-10.3950621051668,-301.235236671041
738506.43545867584180086851,-20.873210852382,-10.4042939542833,-301.124454481643
738506.43545876629650592804,-20.8639790032655,-10.3950621051668,-301.216772972808
738506.43545885675121098757,-20.873210852382,-10.4042939542833,-301.189077425459
738506.43545894720591604710,-20.873210852382,-10.3950621051668,-301.115222632527
738506.43545903766062110662,-20.8824427014985,-10.4042939542833,-301.170613727226
738506.43545912811532616615,-20.8824427014985,-10.4042939542833,-301.152150028993
738506.43545921857003122568,-20.8916745506149,-10.4042939542833,-301.115222632527
738506.43545930902473628521,-20.8916745506149,-10.4135258033998,-301.152150028993
738506.43545939936302602291,-20.8916745506149,-10.4042939542833,-301.050599688711
738506.43545948981773108244,-20.8916745506149,-10.4135258033998,-301.142918179876
738506.43545958027243614197,-20.8916745506149,-10.4042939542833,-301.124454481643
738506.43545967072714120150,-20.9009063997314,-10.4227576525162,-301.198309274575
738506.43545976118184626102,-20.9009063997314,-10.4042939542833,-301.207541123691
738506.43545985163655132055,-20.9009063997314,-10.4227576525162,-301.13368633076
738506.43545994209125638008,-20.9009063997314,-10.4042939542833,-301.189077425459
738506.43546003254596143961,-20.9193700979644,-10.4319895016327,-301.216772972808
738506.43546012300066649914,-20.9009063997314,-10.4042939542833,-301.179845576342
738506.43546021333895623684,-20.9009063997314,-10.4135258033998,-301.115222632527
738506.43546030379366129637,-20.9101382488479,-10.4135258033998,-301.189077425459
738506.43546039424836635590,-20.9101382488479,-10.4227576525162,-301.198309274575
738506.43546048470307141542,-20.9101382488479,-10.4227576525162,-301.13368633076
738506.43546057515777647495,-20.9101382488479,-10.4135258033998,-301.189077425459
738506.43546066561248153448,-20.9193700979644,-10.4227576525162,-301.189077425459
738506.43546075606718659401,-20.9193700979644,-10.4227576525162,-301.170613727226
738506.43546084652189165354,-20.9193700979644,-10.4319895016327,-301.189077425459
738506.43546093686018139124,-20.9101382488479,-10.4135258033998,-301.189077425459
738506.43546102731488645077,-20.9286019470809,-10.4319895016327,-301.179845576342
738506.43546111776959151030,-20.9286019470809,-10.4227576525162,-301.189077425459
738506.43546120822429656982,-20.9286019470809,-10.4319895016327,-301.179845576342
738506.43546129867900162935,-20.9286019470809,-10.4135258033998,-301.198309274575
738506.43546138913370668888,-20.9286019470809,-10.4319895016327,-301.170613727226
738506.43546147958841174841,-20.9286019470809,-10.4135258033998,-301.189077425459
738506.43546157004311680794,-20.9286019470809,-10.4319895016327,-301.179845576342
738506.43546166038140654564,-20.9193700979644,-10.4135258033998,-301.152150028993
738506.43546175083611160517,-20.9286019470809,-10.4319895016327,-301.179845576342
738506.43546184129081666470,-20.9193700979644,-10.4135258033998,-301.198309274575
738506.43546193174552172422,-20.9286019470809,-10.4319895016327,-301.152150028993
738506.43546202220022678375,-20.9193700979644,-10.4135258033998,-301.179845576342
738506.43546211265493184328,-20.9193700979644,-10.4135258033998,-301.189077425459
738506.43546220310963690281,-20.9286019470809,-10.4319895016327,-301.189077425459
738506.43546229356434196234,-20.9193700979644,-10.4227576525162,-301.161381878109
738506.43546238401904702187,-20.9286019470809,-10.4319895016327,-301.189077425459
738506.43546247435733675957,-20.9193700979644,-10.4227576525162,-301.198309274575
738506.43546256481204181910,-20.9286019470809,-10.4412213507492,-301.170613727226
738506.43546265526674687862,-20.9193700979644,-10.4227576525162,-301.189077425459
738506.43546274572145193815,-20.9286019470809,-10.4412213507492,-301.179845576342
738506.43546283617615699768,-20.9193700979644,-10.4227576525162,-301.189077425459
738506.43546292663086205721,-20.9193700979644,-10.4412213507492,-301.041367839595
738506.43546301708556711674,-20.9193700979644,-10.4227576525162,-301.087527085177
738506.43546310754027217627,-20.9193700979644,-10.4412213507492,-301.10599078341
738506.43546319787856191397,-20.9101382488479,-10.4227576525162,-301.152150028993
738506.43546328833326697350,-20.8824427014985,-10.4319895016327,-301.152150028993
738506.43546337878797203302,-20.854747154149,-10.4042939542833,-301.142918179876
738506.43546346924267709255,-20.8455153050325,-10.4135258033998,-301.142918179876
738506.43546355969738215208,-20.7901242103336,-10.3950621051668,-301.189077425459
738506.43546365015208721161,-20.7716605121006,-10.4135258033998,-301.189077425459
738506.43546374060679227114,-20.7624286629841,-10.4042939542833,-301.198309274575
738506.43546383106149733067,-20.7439649647511,-10.3950621051668,-301.179845576342
738506.43546392139978706837,-20.7624286629841,-10.3950621051668,-301.161381878109
738506.43546401185449212790,-20.7901242103336,-10.3858302560503,-301.189077425459
738506.43546410230919718742,-20.8639790032655,-10.4227576525162,-301.170613727226
738506.43546419276390224695,-20.9193700979644,-10.4227576525162,-301.152150028993
738506.43546428321860730648,-20.9562974944304,-10.4504531998657,-301.189077425459
738506.43546437367331236601,-20.9470656453139,-10.4227576525162,-301.13368633076
738506.43546446412801742554,-20.9747611926634,-10.4504531998657,-301.13368633076
738506.43546455458272248507,-20.9747611926634,-10.4319895016327,-301.152150028993
738506.43546464503742754459,-20.9747611926634,-10.4504531998657,-301.13368633076
738506.43546473537571728230,-20.9655293435469,-10.4319895016327,-301.198309274575
738506.43546482583042234182,-20.9747611926634,-10.4412213507492,-301.216772972808
738506.43546491628512740135,-20.9747611926634,-10.4319895016327,-301.170613727226
738506.43546500673983246088,-20.9747611926634,-10.4319895016327,-301.115222632527
738506.43546509719453752041,-20.9747611926634,-10.4412213507492,-301.13368633076
738506.43546518764924257994,-20.9747611926634,-10.4412213507492,-301.142918179876
738506.43546527810394763947,-20.9932248908963,-10.4042939542833,-301.10599078341
738506.43546536855865269899,-20.9655293435469,-10.3304391613514,-301.152150028993
738506.43546545889694243670,-20.6978057191687,-10.247352519303,-301.13368633076
738506.43546554935164749622,-20.2177495651112,-10.2658162175359,-301.078295236061
738506.43546563980635255575,-19.9223303933836,-10.5889309366131,-301.115222632527
738506.43546573026105761528,-20.4485457930235,-10.7458723715934,-301.244468520157
738506.43546582071576267481,-21.0116885891293,-10.7643360698263,-301.299859614856
738506.43546591117046773434,-21.3348033082064,-10.5427716910306,-301.216772972808
738506.43546600162517279387,-21.1224707785272,-10.3581347087008,-301.207541123691
738506.43546609207987785339,-20.8639790032655,-10.3489028595843,-301.216772972808
738506.43546618241816759109,-20.8455153050325,-10.3858302560503,-301.179845576342
738506.43546627287287265062,-20.8639790032655,-10.4042939542833,-301.198309274575
738506.43546636332757771015,-20.873210852382,-10.3950621051668,-301.216772972808
738506.43546645378228276968,-20.873210852382,-10.3950621051668,-301.124454481643
738506.43546654423698782921,-20.8639790032655,-10.3858302560503,-301.078295236061
738506.43546663469169288874,-20.854747154149,-10.3858302560503,-301.226004821925
738506.43546672514639794827,-20.8455153050325,-10.3673665578173,-301.216772972808
738506.43546681560110300779,-20.8455153050325,-10.3858302560503,-301.161381878109
738506.43546690605580806732,-20.836283455916,-10.3581347087008,-301.226004821925
738506.43546699639409780502,-20.8270516067995,-10.3765984069338,-301.216772972808
738506.43546708684880286455,-20.7993560594501,-10.3581347087008,-301.10599078341
738506.43546717730350792408,-20.8085879085665,-10.3765984069338,-301.161381878109
738506.43546726775821298361,-20.7901242103336,-10.3489028595843,-301.198309274575
738506.43546735821291804314,-20.7808923612171,-10.3673665578173,-301.096758934294
738506.43546744866762310266,-20.7531968138676,-10.3396710104678,-301.179845576342
738506.43546753912232816219,-20.7531968138676,-10.3489028595843,-301.096758934294
738506.43546762957703322172,-20.7255012665181,-10.3212073122349,-301.142918179876
738506.43546771991532295942,-20.7255012665181,-10.3212073122349,-301.142918179876
738506.43546781037002801895,-20.7070375682852,-10.3212073122349,-301.13368633076
738506.43546790082473307848,-20.6793420209357,-10.3027436140019,-301.142918179876
738506.43546799127943813801,-20.6701101718192,-10.3027436140019,-301.096758934294
738506.43546808173414319754,-20.6331827753533,-10.2750480666524,-301.078295236061
738506.43546817218884825706,-20.6147190771203,-10.2750480666524,-301.078295236061
738506.43546826264355331659,-20.5685598315378,-10.2381206701865,-301.078295236061
738506.43546835309825837612,-20.5408642841884,-10.22888882107,-301.050599688711
738506.43546844343654811382,-20.5039368877224,-10.191961424604,-301.041367839595
738506.43546853389125317335,-20.4762413403729,-10.191961424604,-301.004440443129
738506.43546862434595823288,-20.4300820947905,-10.1642658772546,-301.004440443129
738506.43546871480066329241,-20.402386547441,-10.1642658772546,-301.022904141362
738506.43546880525536835194,-20.3746910000916,-10.1458021790216,-301.013672292245
738506.43546889571007341146,-20.383922849208,-10.1642658772546,-301.050599688711
738506.43546898616477847099,-20.3931546983245,-10.173497726371,-301.069063386944
738506.43546907661948353052,-20.4670094912564,-10.2196569719535,-301.10599078341
738506.43546916707418859005,-20.5500961333048,-10.2565843684194,-301.13368633076
738506.43546925741247832775,-20.6331827753533,-10.3027436140019,-301.124454481643
738506.43546934786718338728,-20.7070375682852,-10.3304391613514,-301.189077425459
738506.43546943832188844681,-20.7808923612171,-10.3673665578173,-301.216772972808
738506.43546952877659350634,-20.8085879085665,-10.3858302560503,-301.189077425459
738506.43546961923129856586,-20.8270516067995,-10.3858302560503,-301.216772972808
738506.43546970968600362539,-20.8639790032655,-10.4042939542833,-301.161381878109
738506.43546980014070868492,-20.8639790032655,-10.3950621051668,-301.198309274575
738506.43546989059541374445,-20.8824427014985,-10.4135258033998,-301.216772972808
738506.43546998093370348215,-20.873210852382,-10.3950621051668,-301.124454481643
738506.43547007138840854168,-20.8916745506149,-10.4227576525162,-301.10599078341
738506.43547016184311360121,-20.8824427014985,-10.3950621051668,-301.235236671041
738506.43547025229781866074,-20.8916745506149,-10.4135258033998,-301.189077425459
738506.43547034275252372026,-20.8824427014985,-10.4042939542833,-301.216772972808
738506.43547043320722877979,-20.8824427014985,-10.4135258033998,-301.216772972808
738506.43547052366193383932,-20.873210852382,-10.3950621051668,-301.226004821925
738506.43547061411663889885,-20.8824427014985,-10.4042939542833,-301.198309274575
738506.43547070445492863655,-20.873210852382,-10.4042939542833,-301.244468520157
738506.43547079490963369608,-20.873210852382,-10.4042939542833,-301.179845576342
738506.43547088536433875561,-20.873210852382,-10.4042939542833,-301.179845576342
738506.43547097581904381514,-20.8824427014985,-10.4042939542833,-301.189077425459
738506.43547106627374887466,-20.8824427014985,-10.4042939542833,-301.189077425459
738506.43547115672845393419,-20.8824427014985,-10.4042939542833,-301.13368633076
738506.43547124718315899372,-20.8824427014985,-10.4135258033998,-301.152150028993
738506.43547133763786405325,-20.8824427014985,-10.4042939542833,-301.13368633076
738506.43547142809256911278,-20.9009063997314,-10.4227576525162,-301.152150028993
738506.43547151843085885048,-20.8916745506149,-10.4042939542833,-301.161381878109
738506.43547160888556391001,-20.9101382488479,-10.4227576525162,-301.170613727226
738506.43547169934026896954,-20.9009063997314,-10.4042939542833,-301.179845576342
738506.43547178979497402906,-20.9101382488479,-10.4135258033998,-301.152150028993
738506.43547188024967908859,-20.9101382488479,-10.4042939542833,-301.13368633076
738506.43547197070438414812,-20.9101382488479,-10.4135258033998,-301.142918179876
738506.43547206115908920765,-20.9193700979644,-10.4135258033998,-301.189077425459
738506.43547215161379426718,-20.9286019470809,-10.4135258033998,-301.216772972808
738506.43547224195208400488,-20.9193700979644,-10.4135258033998,-301.189077425459
738506.43547233240678906441,-20.9286019470809,-10.4135258033998,-301.179845576342
738506.43547242286149412394,-20.9378337961974,-10.4227576525162,-301.161381878109
738506.43547251331619918346,-20.9378337961974,-10.4135258033998,-301.198309274575
738506.43547260377090424299,-20.9378337961974,-10.4227576525162,-301.161381878109
738506.43547269422560930252,-20.9286019470809,-10.4135258033998,-301.179845576342
738506.43547278468031436205,-20.9470656453139,-10.4319895016327,-301.198309274575
738506.43547287513501942158,-20.9378337961974,-10.4135258033998,-301.152150028993
738506.43547296547330915928,-20.9470656453139,-10.4319895016327,-301.216772972808
738506.43547305592801421881,-20.9378337961974,-10.4135258033998,-301.216772972808
738506.43547314638271927834,-20.9470656453139,-10.4319895016327,-301.115222632527
738506.43547323683742433786,-20.9378337961974,-10.4042939542833,-301.142918179876
738506.43547332729212939739,-20.9378337961974,-10.4135258033998,-301.13368633076
738506.43547341774683445692,-20.9470656453139,-10.4227576525162,-301.13368633076
738506.43547350820153951645,-20.9378337961974,-10.4227576525162,-301.059831537828
738506.43547359865624457598,-20.9470656453139,-10.4227576525162,-301.041367839595
738506.43547368911094963551,-20.9470656453139,-10.4227576525162,-301.189077425459
738506.43547377944923937321,-20.9470656453139,-10.4319895016327,-301.13368633076
738506.43547386990394443274,-20.9470656453139,-10.4227576525162,-301.226004821925
738506.43547396035864949226,-20.9562974944304,-10.4319895016327,-301.244468520157
738506.43547405081335455179,-20.9470656453139,-10.4135258033998,-301.170613727226
738506.43547414126805961132,-20.9655293435469,-10.4319895016327,-301.207541123691
738506.43547423172276467085,-20.9470656453139,-10.4227576525162,-301.235236671041
738506.43547432217746973038,-20.9655293435469,-10.4319895016327,-301.244468520157
738506.43547441263217478991,-20.9470656453139,-10.4227576525162,-301.198309274575
738506.43547450297046452761,-20.9562974944304,-10.4319895016327,-301.216772972808
738506.43547459342516958714,-20.9470656453139,-10.4135258033998,-301.235236671041
738506.43547468387987464666,-20.9562974944304,-10.4319895016327,-301.152150028993
738506.43547477433457970619,-20.9562974944304,-10.4227576525162,-301.235236671041
738506.43547486478928476572,-20.9747611926634,-10.4319895016327,-301.253700369274
738506.43547495524398982525,-20.9562974944304,-10.4227576525162,-301.189077425459
738506.43547504569869488478,-20.9562974944304,-10.4319895016327,-301.216772972808
738506.43547513615339994431,-20.9562974944304,-10.4227576525162,-301.226004821925
738506.43547522649168968201,-20.9562974944304,-10.4227576525162,-301.253700369274
738506.43547531694639474154,-20.9655293435469,-10.4319895016327,-301.179845576342
738506.43547540740109980106,-20.9562974944304,-10.4135258033998,-301.216772972808
738506.43547549785580486059,-20.9655293435469,-10.4319895016327,-301.26293221839
738506.43547558831050992012,-20.9655293435469,-10.4227576525162,-301.152150028993
738506.43547567876521497965,-20.9655293435469,-10.4319895016327,-301.253700369274
738506.43547576921992003918,-20.9286019470809,-10.4135258033998,-301.253700369274
738506.43547585967462509871,-20.9101382488479,-10.4227576525162,-301.226004821925
738506.43547595012933015823,-20.8916745506149,-10.4042939542833,-301.189077425459
738506.43547604046761989594,-20.8639790032655,-10.4042939542833,-301.226004821925
738506.43547613092232495546,-20.8270516067995,-10.4042939542833,-301.207541123691
738506.43547622137703001499,-20.817819757683,-10.4227576525162,-301.13368633076
738506.43547631183173507452,-20.7993560594501,-10.3858302560503,-301.142918179876
738506.43547640228644013405,-20.8085879085665,-10.4042939542833,-301.115222632527
738506.43547649274114519358,-20.8455153050325,-10.3950621051668,-301.115222632527
738506.43547658319585025311,-20.9009063997314,-10.4135258033998,-301.115222632527
738506.43547667365055531263,-20.9562974944304,-10.4319895016327,-301.170613727226
738506.43547676398884505033,-21.0024567400128,-10.4412213507492,-301.179845576342
738506.43547685444355010986,-20.9932248908963,-10.4412213507492,-301.198309274575
738506.43547694489825516939,-21.0024567400128,-10.4412213507492,-301.253700369274
738506.43547703535296022892,-21.0116885891293,-10.4504531998657,-301.189077425459
738506.43547712580766528845,-21.0116885891293,-10.4319895016327,-301.096758934294
738506.43547721626237034798,-21.0301522873623,-10.4504531998657,-301.115222632527
738506.43547730671707540751,-21.0116885891293,-10.4319895016327,-301.142918179876
738506.43547739717178046703,-21.0209204382458,-10.4412213507492,-301.161381878109
738506.43547748751007020473,-21.0024567400128,-10.4227576525162,-301.170613727226
738506.43547757796477526426,-21.0209204382458,-10.4412213507492,-301.189077425459
738506.43547766841948032379,-21.0024567400128,-10.4319895016327,-301.244468520157
738506.43547775887418538332,-21.0301522873623,-10.4135258033998,-301.189077425459
738506.43547784932889044285,-21.0486159855953,-10.3489028595843,-301.198309274575
738506.43547793978359550238,-20.8455153050325,-10.2750480666524,-301.179845576342
738506.43547803023830056190,-20.4300820947905,-10.2196569719535,-301.124454481643
738506.43547812069300562143,-20.0700399792474,-10.4135258033998,-301.087527085177
738506.43547821114771068096,-20.1161992248299,-10.7181768242439,-301.189077425459
738506.43547830148600041866,-21.2055574205756,-10.7735679189428,-301.327555162206
738506.43547839194070547819,-21.4178899502548,-10.5520035401471,-301.244468520157
738506.43547848239541053772,-21.1870937223426,-10.3489028595843,-301.235236671041
738506.43547857285011559725,-20.9562974944304,-10.3489028595843,-301.170613727226
738506.43547866330482065678,-20.9101382488479,-10.3765984069338,-301.152150028993
738506.43547875375952571630,-20.9378337961974,-10.3950621051668,-301.170613727226
738506.43547884421423077583,-20.9286019470809,-10.3765984069338,-301.179845576342
738506.43547893466893583536,-20.9286019470809,-10.3858302560503,-301.170613727226
738506.43547902500722557306,-20.9101382488479,-10.3765984069338,-301.13368633076
738506.43547911546193063259,-20.9101382488479,-10.3765984069338,-301.161381878109
738506.43547920591663569212,-20.9101382488479,-10.3858302560503,-301.170613727226
738506.43547929637134075165,-20.8916745506149,-10.3673665578173,-301.124454481643
738506.43547938682604581118,-20.8824427014985,-10.3765984069338,-301.152150028993
738506.43547947728075087070,-20.873210852382,-10.3581347087008,-301.050599688711
738506.43547956773545593023,-20.854747154149,-10.3673665578173,-301.069063386944
738506.43547965819016098976,-20.836283455916,-10.3581347087008,-301.115222632527
738506.43547974852845072746,-20.836283455916,-10.3581347087008,-301.096758934294
738506.43547983898315578699,-20.8270516067995,-10.3489028595843,-301.10599078341
738506.43547992943786084652,-20.817819757683,-10.3489028595843,-301.115222632527
738506.43548001989256590605,-20.7993560594501,-10.3396710104678,-301.096758934294
738506.43548011034727096558,-20.7808923612171,-10.3396710104678,-301.10599078341
738506.43548020080197602510,-20.7716605121006,-10.3212073122349,-301.078295236061
738506.43548029125668108463,-20.7531968138676,-10.3304391613514,-301.059831537828
738506.43548038171138614416,-20.7255012665181,-10.2935117648854,-301.069063386944
738506.43548047216609120369,-20.7162694174017,-10.3027436140019,-301.069063386944
738506.43548056250438094139,-20.6885738700522,-10.2750480666524,-300.958281197546
738506.43548065295908600092,-20.6516464735862,-10.2750480666524,-301.059831537828
738506.43548074341379106045,-20.6331827753533,-10.2381206701865,-301.087527085177
738506.43548083386849611998,-20.6147190771203,-10.2381206701865,-301.087527085177
738506.43548092432320117950,-20.5685598315378,-10.2381206701865,-301.059831537828
738506.43548101477790623903,-20.5408642841884,-10.210425122837,-301.059831537828
738506.43548110523261129856,-20.5131687368389,-10.2011932737205,-301.041367839595
738506.43548119568731635809,-20.4947050386059,-10.1827295754875,-301.041367839595
738506.43548128602560609579,-20.4762413403729,-10.191961424604,-301.013672292245
738506.43548137648031115532,-20.45777764214,-10.1827295754875,-301.032135990478
738506.43548146693501621485,-20.4762413403729,-10.2011932737205,-301.013672292245
738506.43548155738972127438,-20.5131687368389,-10.210425122837,-301.022904141362
738506.43548164784442633390,-20.5962553788873,-10.2750480666524,-301.050599688711
738506.43548173829913139343,-20.6701101718192,-10.3027436140019,-301.078295236061
738506.43548182875383645296,-20.7531968138676,-10.3489028595843,-301.10599078341
738506.43548191920854151249,-20.817819757683,-10.3673665578173,-301.161381878109
738506.43548200954683125019,-20.8639790032655,-10.3950621051668,-301.142918179876
738506.43548210000153630972,-20.8824427014985,-10.4042939542833,-301.216772972808
738506.43548219045624136925,-20.9101382488479,-10.4227576525162,-301.226004821925
738506.43548228091094642878,-20.9193700979644,-10.4135258033998,-301.170613727226
738506.43548237136565148830,-20.9286019470809,-10.4319895016327,-301.179845576342
738506.43548246182035654783,-20.9286019470809,-10.4227576525162,-301.216772972808
738506.43548255227506160736,-20.9193700979644,-10.4135258033998,-301.161381878109
738506.43548264272976666689,-20.9286019470809,-10.4227576525162,-301.142918179876
738506.43548273318447172642,-20.9286019470809,-10.4135258033998,-301.207541123691
738506.43548282352276146412,-20.9193700979644,-10.4227576525162,-301.207541123691
738506.43548291397746652365,-20.9193700979644,-10.4042939542833,-301.170613727226
738506.43548300443217158318,-20.9286019470809,-10.4227576525162,-301.235236671041
738506.43548309488687664270,-20.9101382488479,-10.4135258033998,-301.216772972808
738506.43548318534158170223,-20.9101382488479,-10.4227576525162,-301.170613727226
738506.43548327579628676176,-20.9101382488479,-10.4135258033998,-301.226004821925
738506.43548336625099182129,-20.9193700979644,-10.4135258033998,-301.207541123691
738506.43548345670569688082,-20.9101382488479,-10.4135258033998,-301.226004821925
738506.43548354704398661852,-20.9193700979644,-10.4135258033998,-301.179845576342
738506.43548363749869167805,-20.9101382488479,-10.4135258033998,-301.198309274575
738506.43548372795339673758,-20.9101382488479,-10.4135258033998,-301.198309274575
738506.43548381840810179710,-20.9193700979644,-10.4135258033998,-301.198309274575
738506.43548390886280685663,-20.9193700979644,-10.4135258033998,-301.226004821925
738506.43548399931751191616,-20.9101382488479,-10.4135258033998,-301.235236671041
738506.43548408977221697569,-20.9286019470809,-10.4135258033998,-300.985976744896
738506.43548418022692203522,-20.9378337961974,-10.4227576525162,-301.096758934294
738506.43548427056521177292,-20.9286019470809,-10.4227576525162,-301.244468520157
738506.43548436101991683245,-20.9378337961974,-10.4227576525162,-301.235236671041
738506.43548445147462189198,-20.9378337961974,-10.4227576525162,-301.235236671041
738506.43548454192932695150,-20.9378337961974,-10.4319895016327,-301.179845576342
738506.43548463238403201103,-20.9378337961974,-10.4227576525162,-301.124454481643
738506.43548472283873707056,-20.9378337961974,-10.4319895016327,-301.142918179876
738506.43548481329344213009,-20.9378337961974,-10.4227576525162,-301.189077425459
738506.43548490374814718962,-20.9470656453139,-10.4227576525162,-301.13368633076
738506.43548499420285224915,-20.9470656453139,-10.4227576525162,-301.142918179876
738506.43548508454114198685,-20.9470656453139,-10.4319895016327,-301.161381878109
738506.43548517499584704638,-20.9378337961974,-10.4319895016327,-301.170613727226
738506.43548526545055210590,-20.9378337961974,-10.4227576525162,-301.161381878109
738506.43548535590525716543,-20.9470656453139,-10.4319895016327,-301.13368633076
738506.43548544635996222496,-20.9470656453139,-10.4227576525162,-301.124454481643
738506.43548553681466728449,-20.9470656453139,-10.4319895016327,-301.10599078341
738506.43548562726937234402,-20.9470656453139,-10.4227576525162,-301.115222632527
738506.43548571772407740355,-20.9562974944304,-10.4412213507492,-301.096758934294
738506.43548580806236714125,-20.9470656453139,-10.4319895016327,-301.096758934294
738506.43548589851707220078,-20.9562974944304,-10.4412213507492,-301.13368633076
738506.43548598897177726030,-20.9562974944304,-10.4227576525162,-301.170613727226
738506.43548607942648231983,-20.9562974944304,-10.4412213507492,-301.189077425459
738506.43548616988118737936,-20.9470656453139,-10.4227576525162,-301.207541123691
738506.43548626033589243889,-20.9562974944304,-10.4504531998657,-301.198309274575
738506.43548635079059749842,-20.9562974944304,-10.4319895016327,-301.124454481643
738506.43548644124530255795,-20.9562974944304,-10.4319895016327,-301.226004821925
738506.43548653158359229565,-20.9470656453139,-10.4412213507492,-301.235236671041
738506.43548662203829735518,-20.9378337961974,-10.4319895016327,-301.189077425459
738506.43548671249300241470,-20.9101382488479,-10.4319895016327,-301.216772972808
738506.43548680294770747423,-20.8916745506149,-10.4135258033998,-301.235236671041
738506.43548689340241253376,-20.836283455916,-10.4042939542833,-301.207541123691
738506.43548698385711759329,-20.7901242103336,-10.3950621051668,-301.179845576342
738506.43548707431182265282,-20.7901242103336,-10.4319895016327,-301.244468520157
738506.43548716476652771235,-20.7439649647511,-10.3858302560503,-301.216772972808
738506.43548725522123277187,-20.7624286629841,-10.4042939542833,-301.142918179876
738506.43548734555952250957,-20.817819757683,-10.3950621051668,-301.226004821925
738506.43548743601422756910,-20.8824427014985,-10.4227576525162,-301.226004821925
738506.43548752646893262863,-20.9193700979644,-10.4227576525162,-301.152150028993
738506.43548761692363768816,-20.9655293435469,-10.4412213507492,-301.087527085177
738506.43548770737834274769,-20.9839930417798,-10.4412213507492,-301.152150028993
738506.43548779783304780722,-20.9932248908963,-10.4504531998657,-301.179845576342
738506.43548788828775286674,-20.9932248908963,-10.4412213507492,-301.179845576342
738506.43548797874245792627,-21.0024567400128,-10.4504531998657,-301.152150028993
738506.43548806908074766397,-21.0024567400128,-10.4504531998657,-301.189077425459
738506.43548815953545272350,-21.0024567400128,-10.4504531998657,-301.152150028993
738506.43548824999015778303,-21.0209204382458,-10.4596850489822,-301.161381878109
738506.43548834044486284256,-21.0116885891293,-10.4412213507492,-301.179845576342
738506.43548843089956790209,-21.0024567400128,-10.4504531998657,-301.189077425459
738506.43548852135427296162,-20.9932248908963,-10.4412213507492,-301.189077425459
738506.43548861180897802114,-21.0116885891293,-10.4504531998657,-301.179845576342
738506.43548870226368308067,-21.0486159855953,-10.3673665578173,-301.170613727226
738506.43548879260197281837,-20.9101382488479,-10.3212073122349,-301.152150028993
738506.43548888305667787790,-20.5131687368389,-10.2196569719535,-301.096758934294
738506.43548897351138293743,-20.0885036774804,-10.3765984069338,-301.087527085177
738506.43548906396608799696,-19.968489638966,-10.6812494277779,-301.198309274575
738506.43548915442079305649,-21.0486159855953,-10.8104953154088,-301.336787011322
738506.43548924487549811602,-21.4640491958373,-10.6166264839625,-301.281395916623
738506.43548933533020317554,-21.233252967925,-10.3950621051668,-301.170613727226
738506.43548942578490823507,-20.9470656453139,-10.3396710104678,-301.124454481643
738506.43548951623961329460,-20.8916745506149,-10.3765984069338,-301.170613727226
738506.43548960657790303230,-20.9101382488479,-10.3950621051668,-301.161381878109
738506.43548969703260809183,-20.9193700979644,-10.3950621051668,-301.207541123691
738506.43548978748731315136,-20.9101382488479,-10.3950621051668,-301.170613727226
738506.43548987794201821089,-20.9009063997314,-10.3950621051668,-301.152150028993
738506.43548996839672327042,-20.8916745506149,-10.3950621051668,-301.179845576342
738506.43549005885142832994,-20.8824427014985,-10.3858302560503,-301.216772972808
738506.43549014930613338947,-20.8824427014985,-10.3950621051668,-301.198309274575
738506.43549023976083844900,-20.8639790032655,-10.3765984069338,-301.115222632527
738506.43549033009912818670,-20.8639790032655,-10.3858302560503,-301.216772972808
738506.43549042055383324623,-20.8455153050325,-10.3673665578173,-301.207541123691
738506.43549051100853830576,-20.836283455916,-10.3765984069338,-301.189077425459
738506.43549060146324336529,-20.817819757683,-10.3581347087008,-301.161381878109
738506.43549069191794842482,-20.8085879085665,-10.3581347087008,-301.179845576342
738506.43549078237265348434,-20.7901242103336,-10.3489028595843,-301.207541123691
738506.43549087282735854387,-20.7808923612171,-10.3396710104678,-301.161381878109
738506.43549096328206360340,-20.7624286629841,-10.3304391613514,-301.198309274575
738506.43549105362035334110,-20.7439649647511,-10.3212073122349,-301.179845576342
738506.43549114407505840063,-20.7255012665181,-10.3119754631184,-301.022904141362
738506.43549123452976346016,-20.7070375682852,-10.3027436140019,-301.078295236061
738506.43549132498446851969,-20.6885738700522,-10.2842799157689,-301.207541123691
738506.43549141543917357922,-20.6608783227027,-10.2658162175359,-301.115222632527
738506.43549150589387863874,-20.6424146244697,-10.2658162175359,-301.087527085177
738506.43549159634858369827,-20.5962553788873,-10.22888882107,-301.115222632527
738506.43549168680328875780,-20.5685598315378,-10.22888882107,-301.13368633076
738506.43549177725799381733,-20.5224005859554,-10.191961424604,-301.161381878109
738506.43549186759628355503,-20.4947050386059,-10.191961424604,-301.069063386944
738506.43549195805098861456,-20.4485457930235,-10.1642658772546,-301.078295236061
738506.43549204850569367409,-20.439313943907,-10.1642658772546,-301.087527085177
738506.43549213896039873362,-20.4300820947905,-10.1642658772546,-301.142918179876
738506.43549222941510379314,-20.420850245674,-10.1550340281381,-301.059831537828
738506.43549231986980885267,-20.439313943907,-10.1827295754875,-301.124454481643
738506.43549241032451391220,-20.4854731894894,-10.210425122837,-301.142918179876
738506.43549250077921897173,-20.5685598315378,-10.247352519303,-301.041367839595
738506.43549259111750870943,-20.6516464735862,-10.2935117648854,-301.115222632527
738506.43549268157221376896,-20.7347331156346,-10.3396710104678,-301.124454481643
738506.43549277202691882849,-20.7901242103336,-10.3581347087008,-301.142918179876
738506.43549286248162388802,-20.8455153050325,-10.3950621051668,-301.124454481643
738506.43549295293632894754,-20.873210852382,-10.3950621051668,-301.13368633076
738506.43549304339103400707,-20.9009063997314,-10.4227576525162,-301.13368633076
738506.43549313384573906660,-20.9101382488479,-10.4135258033998,-301.13368633076
738506.43549322430044412613,-20.9101382488479,-10.4319895016327,-301.10599078341
738506.43549331463873386383,-20.9101382488479,-10.4135258033998,-301.115222632527
738506.43549340509343892336,-20.9101382488479,-10.4319895016327,-301.13368633076
738506.43549349554814398289,-20.9009063997314,-10.4135258033998,-301.13368633076
738506.43549358600284904242,-20.9193700979644,-10.4319895016327,-301.170613727226
738506.43549367645755410194,-20.9009063997314,-10.4135258033998,-301.13368633076
738506.43549376691225916147,-20.9193700979644,-10.4319895016327,-301.189077425459
738506.43549385736696422100,-20.9101382488479,-10.4227576525162,-301.170613727226
738506.43549394782166928053,-20.9009063997314,-10.4135258033998,-301.198309274575
738506.43549403827637434006,-20.9101382488479,-10.4227576525162,-301.152150028993
738506.43549412861466407776,-20.9009063997314,-10.4042939542833,-301.161381878109
738506.43549421906936913729,-20.9101382488479,-10.4227576525162,-301.170613727226
738506.43549430952407419682,-20.9009063997314,-10.4042939542833,-301.198309274575
738506.43549439997877925634,-20.9101382488479,-10.4227576525162,-301.179845576342
738506.43549449043348431587,-20.9009063997314,-10.4042939542833,-301.189077425459
738506.43549458088818937540,-20.9101382488479,-10.4319895016327,-301.216772972808
738506.43549467134289443493,-20.9101382488479,-10.4135258033998,-301.115222632527
738506.43549476179759949446,-20.9193700979644,-10.4227576525162,-301.087527085177
738506.43549485213588923216,-20.9193700979644,-10.4135258033998,-301.216772972808
738506.43549494259059429169,-20.9193700979644,-10.4227576525162,-301.226004821925
738506.43549503304529935122,-20.9193700979644,-10.4135258033998,-301.216772972808
738506.43549512350000441074,-20.9193700979644,-10.4227576525162,-301.189077425459
738506.43549521395470947027,-20.9193700979644,-10.4135258033998,-301.207541123691
738506.43549530440941452980,-20.9378337961974,-10.4227576525162,-301.198309274575
738506.43549539486411958933,-20.9286019470809,-10.4227576525162,-301.207541123691
738506.43549548531882464886,-20.9378337961974,-10.4227576525162,-301.253700369274
738506.43549557565711438656,-20.9286019470809,-10.4227576525162,-301.253700369274
738506.43549566611181944609,-20.9286019470809,-10.4227576525162,-301.170613727226
738506.43549575656652450562,-20.9286019470809,-10.4319895016327,-301.198309274575
738506.43549584702122956514,-20.9193700979644,-10.4135258033998,-301.226004821925
738506.43549593747593462467,-20.9378337961974,-10.4319895016327,-301.207541123691
738506.43549602793063968420,-20.9286019470809,-10.4135258033998,-301.207541123691
738506.43549611838534474373,-20.9470656453139,-10.4319895016327,-301.253700369274
738506.43549620884004980326,-20.9378337961974,-10.4135258033998,-301.235236671041
738506.43549629929475486279,-20.9378337961974,-10.4227576525162,-301.179845576342
738506.43549638963304460049,-20.9378337961974,-10.4135258033998,-301.226004821925
738506.43549648008774966002,-20.9470656453139,-10.4319895016327,-301.226004821925
738506.43549657054245471954,-20.9378337961974,-10.4227576525162,-301.152150028993
738506.43549666099715977907,-20.9470656453139,-10.4227576525162,-301.189077425459
738506.43549675145186483860,-20.9470656453139,-10.4227576525162,-301.170613727226
738506.43549684190656989813,-20.9470656453139,-10.4319895016327,-301.124454481643
738506.43549693236127495766,-20.9470656453139,-10.4319895016327,-301.115222632527
738506.43549702281598001719,-20.9470656453139,-10.4227576525162,-301.096758934294
738506.43549711315426975489,-20.9470656453139,-10.4227576525162,-301.096758934294
738506.43549720360897481441,-20.9470656453139,-10.4227576525162,-301.152150028993
738506.43549729406367987394,-20.9470656453139,-10.4319895016327,-301.161381878109
738506.43549738451838493347,-20.9378337961974,-10.4227576525162,-301.142918179876
738506.43549747497308999300,-20.9562974944304,-10.4319895016327,-301.152150028993
738506.43549756542779505253,-20.9470656453139,-10.4227576525162,-301.161381878109
738506.43549765588250011206,-20.9562974944304,-10.4319895016327,-301.161381878109
738506.43549774633720517159,-20.9470656453139,-10.4227576525162,-301.179845576342
738506.43549783667549490929,-20.9378337961974,-10.4227576525162,-301.207541123691
738506.43549792713019996881,-20.9378337961974,-10.4227576525162,-301.26293221839
738506.43549801758490502834,-20.9470656453139,-10.4319895016327,-301.207541123691
738506.43549810803961008787,-20.9286019470809,-10.4227576525162,-301.189077425459
738506.43549819849431514740,-20.9101382488479,-10.4227576525162,-301.161381878109
738506.43549828894902020693,-20.8916745506149,-10.4135258033998,-301.087527085177
738506.43549837940372526646,-20.873210852382,-10.3950621051668,-301.207541123691
738506.43549846985843032598,-20.8270516067995,-10.4042939542833,-301.161381878109
738506.43549856031313538551,-20.7993560594501,-10.4042939542833,-301.170613727226
738506.43549865065142512321,-20.7993560594501,-10.4227576525162,-301.179845576342
738506.43549874110613018274,-20.7716605121006,-10.3858302560503,-301.152150028993
738506.43549883156083524227,-20.7993560594501,-10.4135258033998,-301.216772972808
738506.43549892201554030180,-20.8455153050325,-10.3950621051668,-301.235236671041
738506.43549901247024536133,-20.9193700979644,-10.4227576525162,-301.189077425459
738506.43549910292495042086,-20.9470656453139,-10.4227576525162,-301.207541123691
738506.43549919337965548038,-20.9932248908963,-10.4504531998657,-301.253700369274
738506.43549928383436053991,-20.9839930417798,-10.4227576525162,-301.26293221839
738506.43549937417265027761,-21.0024567400128,-10.4504531998657,-301.226004821925
738506.43549946462735533714,-20.9932248908963,-10.4319895016327,-301.198309274575
738506.43549955508206039667,-21.0024567400128,-10.4412213507492,-301.216772972808
738506.43549964553676545620,-21.0024567400128,-10.4504531998657,-301.216772972808
738506.43549973599147051573,-21.0024567400128,-10.4319895016327,-301.207541123691
738506.43549982644617557526,-21.0024567400128,-10.4504531998657,-301.244468520157
738506.43549991690088063478,-20.9932248908963,-10.4319895016327,-301.235236671041
738506.43550000735558569431,-21.0024567400128,-10.4504531998657,-301.253700369274
738506.43550009769387543201,-20.9839930417798,-10.4319895016327,-301.170613727226
738506.43550018814858049154,-21.0301522873623,-10.3950621051668,-301.189077425459
738506.43550027860328555107,-20.9655293435469,-10.3119754631184,-301.207541123691
738506.43550036905799061060,-20.6608783227027,-10.247352519303,-301.10599078341
738506.43550045951269567013,-20.1808221686453,-10.2658162175359,-301.115222632527
738506.43550054996740072966,-19.9038666951506,-10.5981627857295,-301.142918179876
738506.43550064042210578918,-20.5777916806543,-10.7366405224769,-301.253700369274
738506.43550073087681084871,-21.3994262520219,-10.6720175786615,-301.253700369274
738506.43550082133151590824,-21.2609485152745,-10.3858302560503,-301.253700369274
738506.43550091166980564594,-20.9655293435469,-10.3396710104678,-301.226004821925
738506.43550100212451070547,-20.854747154149,-10.3581347087008,-301.152150028993
738506.43550109257921576500,-20.8824427014985,-10.3858302560503,-301.198309274575
738506.43550118303392082453,-20.8824427014985,-10.3673665578173,-301.161381878109
738506.43550127348862588406,-20.8916745506149,-10.3765984069338,-301.087527085177
738506.43550136394333094358,-20.9009063997314,-10.3858302560503,-301.13368633076
738506.43550145439803600311,-20.8824427014985,-10.3673665578173,-301.096758934294
738506.43550154485274106264,-20.8824427014985,-10.3765984069338,-301.078295236061
738506.43550163519103080034,-20.8639790032655,-10.3581347087008,-301.10599078341
738506.43550172564573585987,-20.8639790032655,-10.3765984069338,-301.004440443129
738506.43550181610044091940,-20.8455153050325,-10.3489028595843,-300.976744895779
738506.43550190655514597893,-20.836283455916,-10.3673665578173,-301.10599078341
738506.43550199700985103846,-20.817819757683,-10.3489028595843,-301.096758934294
738506.43550208746455609798,-20.817819757683,-10.3581347087008,-301.115222632527
738506.43550217791926115751,-20.7901242103336,-10.3396710104678,-301.115222632527
738506.43550226837396621704,-20.7901242103336,-10.3489028595843,-301.142918179876
738506.43550235871225595474,-20.7716605121006,-10.3304391613514,-301.142918179876
738506.43550244916696101427,-20.7624286629841,-10.3396710104678,-301.152150028993
738506.43550253962166607380,-20.7439649647511,-10.3212073122349,-301.13368633076
738506.43550263007637113333,-20.7347331156346,-10.3119754631184,-301.10599078341
738506.43550272053107619286,-20.7070375682852,-10.3027436140019,-301.096758934294
738506.43550281098578125238,-20.6793420209357,-10.2935117648854,-301.115222632527
738506.43550290144048631191,-20.6608783227027,-10.2842799157689,-301.13368633076
738506.43550299189519137144,-20.6331827753533,-10.2565843684194,-301.13368633076
738506.43550308234989643097,-20.5962553788873,-10.247352519303,-301.124454481643
738506.43550317268818616867,-20.5500961333048,-10.2196569719535,-301.161381878109
738506.43550326314289122820,-20.5316324350719,-10.2196569719535,-301.142918179876
738506.43550335359759628773,-20.4854731894894,-10.1827295754875,-301.069063386944
738506.43550344405230134726,-20.45777764214,-10.173497726371,-301.115222632527
738506.43550353450700640678,-20.4116183965575,-10.1458021790216,-301.124454481643
738506.43550362496171146631,-20.3931546983245,-10.1458021790216,-301.078295236061
738506.43550371541641652584,-20.3746910000916,-10.1365703299051,-301.115222632527
738506.43550380587112158537,-20.383922849208,-10.1550340281381,-301.096758934294
738506.43550389620941132307,-20.4116183965575,-10.1827295754875,-301.096758934294
738506.43550398666411638260,-20.4854731894894,-10.22888882107,-301.096758934294
738506.43550407711882144213,-20.5870235297708,-10.2658162175359,-301.142918179876
738506.43550416757352650166,-20.6701101718192,-10.3119754631184,-301.189077425459
738506.43550425802823156118,-20.7439649647511,-10.3489028595843,-301.179845576342
738506.43550434848293662071,-20.7993560594501,-10.3581347087008,-301.207541123691
738506.43550443893764168024,-20.8455153050325,-10.3858302560503,-301.198309274575
738506.43550452939234673977,-20.8639790032655,-10.3858302560503,-301.170613727226
738506.43550461984705179930,-20.8916745506149,-10.4042939542833,-301.189077425459
738506.43550471018534153700,-20.8824427014985,-10.3858302560503,-301.124454481643
738506.43550480064004659653,-20.9009063997314,-10.4135258033998,-301.087527085177
738506.43550489109475165606,-20.8916745506149,-10.3950621051668,-301.124454481643
738506.43550498154945671558,-20.9009063997314,-10.4042939542833,-301.124454481643
738506.43550507200416177511,-20.9009063997314,-10.3950621051668,-301.142918179876
738506.43550516245886683464,-20.9009063997314,-10.4042939542833,-301.161381878109
738506.43550525291357189417,-20.8916745506149,-10.4042939542833,-301.087527085177
738506.43550534336827695370,-20.8916745506149,-10.3950621051668,-300.995208594012
738506.43550543370656669140,-20.8916745506149,-10.4042939542833,-301.142918179876
738506.43550552416127175093,-20.8916745506149,-10.3950621051668,-301.152150028993
738506.43550561461597681046,-20.8916745506149,-10.4042939542833,-301.142918179876
738506.43550570507068186998,-20.8824427014985,-10.3950621051668,-301.161381878109
738506.43550579552538692951,-20.8916745506149,-10.4042939542833,-301.13368633076
738506.43550588598009198904,-20.8824427014985,-10.3858302560503,-301.115222632527
738506.43550597643479704857,-20.8916745506149,-10.4135258033998,-301.13368633076
738506.43550606688950210810,-20.8824427014985,-10.3950621051668,-301.170613727226
738506.43550615722779184580,-20.8916745506149,-10.4135258033998,-301.152150028993
738506.43550624768249690533,-20.8824427014985,-10.3858302560503,-301.152150028993
738506.43550633813720196486,-20.8916745506149,-10.4135258033998,-301.152150028993
738506.43550642859190702438,-20.8916745506149,-10.3950621051668,-301.207541123691
738506.43550651904661208391,-20.9101382488479,-10.4135258033998,-301.216772972808
738506.43550660950131714344,-20.9009063997314,-10.3950621051668,-301.235236671041
738506.43550669995602220297,-20.9193700979644,-10.4135258033998,-301.170613727226
738506.43550679041072726250,-20.9101382488479,-10.3950621051668,-301.170613727226
738506.43550688086543232203,-20.9193700979644,-10.4135258033998,-301.152150028993
738506.43550697120372205973,-20.9286019470809,-10.4135258033998,-301.142918179876
738506.43550706165842711926,-20.9193700979644,-10.3950621051668,-301.179845576342
738506.43550715211313217878,-20.9286019470809,-10.4227576525162,-301.189077425459
738506.43550724256783723831,-20.9193700979644,-10.4042939542833,-301.170613727226
738506.43550733302254229784,-20.9378337961974,-10.4227576525162,-301.189077425459
738506.43550742347724735737,-20.9286019470809,-10.4042939542833,-301.244468520157
738506.43550751393195241690,-20.9378337961974,-10.4227576525162,-301.216772972808
738506.43550760438665747643,-20.9286019470809,-10.4042939542833,-301.189077425459
738506.43550769472494721413,-20.9378337961974,-10.4227576525162,-301.235236671041
738506.43550778517965227365,-20.9286019470809,-10.4042939542833,-301.226004821925
738506.43550787563435733318,-20.9378337961974,-10.4227576525162,-301.216772972808
738506.43550796608906239271,-20.9193700979644,-10.4042939542833,-301.189077425459
738506.43550805654376745224,-20.9286019470809,-10.4227576525162,-301.207541123691
738506.43550814699847251177,-20.9193700979644,-10.4042939542833,-301.235236671041
738506.43550823745317757130,-20.9286019470809,-10.4135258033998,-301.207541123691
738506.43550832790788263083,-20.9286019470809,-10.4042939542833,-301.226004821925
738506.43550841824617236853,-20.9286019470809,-10.4135258033998,-301.235236671041
738506.43550850870087742805,-20.9286019470809,-10.4042939542833,-301.170613727226
738506.43550859915558248758,-20.9286019470809,-10.4135258033998,-301.226004821925
738506.43550868961028754711,-20.9286019470809,-10.4135258033998,-301.235236671041
738506.43550878006499260664,-20.9286019470809,-10.4135258033998,-301.124454481643
738506.43550887051969766617,-20.9286019470809,-10.4227576525162,-301.041367839595
738506.43550896097440272570,-20.9286019470809,-10.4135258033998,-301.161381878109
738506.43550905142910778522,-20.9378337961974,-10.4319895016327,-301.152150028993
738506.43550914188381284475,-20.9286019470809,-10.4135258033998,-301.161381878109
738506.43550923222210258245,-20.9378337961974,-10.4227576525162,-301.161381878109
738506.43550932267680764198,-20.9286019470809,-10.4135258033998,-301.161381878109
738506.43550941313151270151,-20.9286019470809,-10.4227576525162,-301.189077425459
738506.43550950358621776104,-20.9286019470809,-10.4135258033998,-301.170613727226
738506.43550959404092282057,-20.9378337961974,-10.4227576525162,-301.152150028993
738506.43550968449562788010,-20.9378337961974,-10.4135258033998,-301.161381878109
738506.43550977495033293962,-20.9470656453139,-10.4135258033998,-301.161381878109
738506.43550986540503799915,-20.9378337961974,-10.4227576525162,-301.170613727226
738506.43550995574332773685,-20.9378337961974,-10.4135258033998,-301.179845576342
738506.43551004619803279638,-20.9470656453139,-10.4135258033998,-301.235236671041
738506.43551013665273785591,-20.9470656453139,-10.4042939542833,-301.161381878109
738506.43551022710744291544,-20.9378337961974,-10.4135258033998,-301.142918179876
738506.43551031756214797497,-20.9286019470809,-10.4042939542833,-301.170613727226
738506.43551040801685303450,-20.9101382488479,-10.4227576525162,-301.124454481643
738506.43551049847155809402,-20.8824427014985,-10.3950621051668,-301.142918179876
738506.43551058892626315355,-20.873210852382,-10.3950621051668,-301.13368633076
738506.43551067926455289125,-20.817819757683,-10.3765984069338,-301.115222632527
738506.43551076971925795078,-20.8085879085665,-10.3858302560503,-301.161381878109
738506.43551086017396301031,-20.7993560594501,-10.3950621051668,-301.170613727226
738506.43551095062866806984,-20.7901242103336,-10.3765984069338,-301.152150028993
738506.43551104108337312937,-20.7808923612171,-10.3765984069338,-301.226004821925
738506.43551113153807818890,-20.817819757683,-10.3673665578173,-301.207541123691
738506.43551122199278324842,-20.8824427014985,-10.3950621051668,-301.124454481643
738506.43551131244748830795,-20.9378337961974,-10.4042939542833,-301.198309274575
738506.43551140290219336748,-20.9655293435469,-10.4227576525162,-301.235236671041
738506.43551149324048310518,-20.9655293435469,-10.4227576525162,-301.189077425459
738506.43551158369518816471,-20.9839930417798,-10.4319895016327,-301.207541123691
738506.43551167414989322424,-20.9747611926634,-10.4135258033998,-301.235236671041
738506.43551176460459828377,-20.9932248908963,-10.4227576525162,-301.198309274575
738506.43551185505930334330,-20.9932248908963,-10.4135258033998,-301.198309274575
738506.43551194551400840282,-20.9932248908963,-10.4319895016327,-301.244468520157
738506.43551203596871346235,-20.9932248908963,-10.4135258033998,-301.226004821925
738506.43551212642341852188,-20.9932248908963,-10.4319895016327,-301.161381878109
738506.43551221676170825958,-20.9839930417798,-10.4135258033998,-301.198309274575
738506.43551230721641331911,-20.9932248908963,-10.4319895016327,-301.032135990478
738506.43551239767111837864,-21.0024567400128,-10.3858302560503,-301.069063386944
738506.43551248812582343817,-21.0024567400128,-10.3304391613514,-301.216772972808
738506.43551257858052849770,-20.9009063997314,-10.2935117648854,-301.198309274575
738506.43551266903523355722,-20.5224005859554,-10.2011932737205,-301.13368633076
738506.43551275948993861675,-20.1161992248299,-10.3489028595843,-301.069063386944
738506.43551284994464367628,-19.9777214880825,-10.625858333079,-301.152150028993
738506.43551294028293341398,-20.9562974944304,-10.7551042207099,-301.309091463973
738506.43551303073763847351,-21.3994262520219,-10.5704672383801,-301.216772972808
738506.43551312119234353304,-21.1963255714591,-10.3581347087008,-301.216772972808
738506.43551321164704859257,-20.9101382488479,-10.3304391613514,-301.226004821925
738506.43551330210175365210,-20.8824427014985,-10.3765984069338,-301.13368633076
738506.43551339255645871162,-20.8916745506149,-10.3673665578173,-301.152150028993
738506.43551348301116377115,-20.9009063997314,-10.3858302560503,-301.13368633076
738506.43551357346586883068,-20.9009063997314,-10.3673665578173,-301.142918179876
738506.43551366392057389021,-20.9009063997314,-10.3765984069338,-301.161381878109
738506.43551375425886362791,-20.873210852382,-10.3581347087008,-301.124454481643
738506.43551384471356868744,-20.873210852382,-10.3765984069338,-301.170613727226
738506.43551393516827374697,-20.8639790032655,-10.3581347087008,-301.198309274575
738506.43551402562297880650,-20.854747154149,-10.3673665578173,-301.170613727226
738506.43551411607768386602,-20.8455153050325,-10.3581347087008,-301.161381878109
738506.43551420653238892555,-20.8270516067995,-10.3581347087008,-301.115222632527
738506.43551429698709398508,-20.817819757683,-10.3489028595843,-301.142918179876
738506.43551438744179904461,-20.7993560594501,-10.3489028595843,-301.13368633076
738506.43551447778008878231,-20.8085879085665,-10.3581347087008,-301.152150028993
738506.43551456823479384184,-20.7808923612171,-10.3304391613514,-301.142918179876
738506.43551465868949890137,-20.7716605121006,-10.3304391613514,-301.115222632527
738506.43551474914420396090,-20.7531968138676,-10.3119754631184,-301.13368633076
738506.43551483959890902042,-20.7439649647511,-10.3212073122349,-301.142918179876
738506.43551493005361407995,-20.7255012665181,-10.2935117648854,-301.069063386944
738506.43551502050831913948,-20.7070375682852,-10.3027436140019,-301.069063386944
738506.43551511096302419901,-20.6701101718192,-10.2658162175359,-301.096758934294
738506.43551520130131393671,-20.6608783227027,-10.2658162175359,-301.069063386944
738506.43551529175601899624,-20.6147190771203,-10.247352519303,-301.078295236061
738506.43551538221072405577,-20.5777916806543,-10.2381206701865,-301.041367839595
738506.43551547266542911530,-20.5316324350719,-10.210425122837,-301.069063386944
738506.43551556312013417482,-20.5039368877224,-10.191961424604,-301.050599688711
738506.43551565357483923435,-20.45777764214,-10.173497726371,-301.096758934294
738506.43551574402954429388,-20.4300820947905,-10.1642658772546,-301.13368633076
738506.43551583448424935341,-20.3931546983245,-10.1550340281381,-300.893658253731
738506.43551592493895441294,-20.383922849208,-10.1458021790216,-300.995208594012
738506.43551601527724415064,-20.3746910000916,-10.1550340281381,-301.087527085177
738506.43551610573194921017,-20.3931546983245,-10.1642658772546,-301.10599078341
738506.43551619618665426970,-20.4762413403729,-10.210425122837,-301.059831537828
738506.43551628664135932922,-20.5408642841884,-10.247352519303,-301.10599078341
738506.43551637709606438875,-20.5962553788873,-10.2750480666524,-301.179845576342
738506.43551646755076944828,-20.6793420209357,-10.3027436140019,-301.179845576342
738506.43551655800547450781,-20.7531968138676,-10.3489028595843,-301.115222632527
738506.43551664846017956734,-20.8085879085665,-10.3581347087008,-301.189077425459
738506.43551673879846930504,-20.836283455916,-10.3858302560503,-301.198309274575
738506.43551682925317436457,-20.854747154149,-10.3858302560503,-301.13368633076
738506.43551691970787942410,-20.8639790032655,-10.3858302560503,-301.226004821925
738506.43551701016258448362,-20.8824427014985,-10.4042939542833,-301.207541123691
738506.43551710061728954315,-20.873210852382,-10.3950621051668,-301.161381878109
738506.43551719107199460268,-20.8916745506149,-10.3950621051668,-301.179845576342
738506.43551728152669966221,-20.8824427014985,-10.3950621051668,-301.189077425459
738506.43551737198140472174,-20.8824427014985,-10.3950621051668,-301.216772972808
738506.43551746231969445944,-20.873210852382,-10.3858302560503,-301.170613727226
738506.43551755277439951897,-20.8824427014985,-10.4042939542833,-301.226004821925
738506.43551764322910457850,-20.8639790032655,-10.3858302560503,-301.226004821925
738506.43551773368380963802,-20.8824427014985,-10.4042939542833,-301.13368633076
738506.43551782413851469755,-20.873210852382,-10.3765984069338,-301.179845576342
738506.43551791459321975708,-20.8824427014985,-10.4042939542833,-301.152150028993
738506.43551800504792481661,-20.8639790032655,-10.3858302560503,-301.142918179876
738506.43551809550262987614,-20.873210852382,-10.4042939542833,-301.142918179876
738506.43551818595733493567,-20.873210852382,-10.3950621051668,-301.13368633076
738506.43551827629562467337,-20.8639790032655,-10.3858302560503,-301.142918179876
738506.43551836675032973289,-20.8639790032655,-10.3950621051668,-301.142918179876
738506.43551845720503479242,-20.8639790032655,-10.3858302560503,-301.179845576342
738506.43551854765973985195,-20.873210852382,-10.3950621051668,-301.142918179876
738506.43551863811444491148,-20.873210852382,-10.3858302560503,-301.142918179876
738506.43551872856914997101,-20.8824427014985,-10.4042939542833,-301.13368633076
738506.43551881902385503054,-20.8824427014985,-10.3950621051668,-301.142918179876
738506.43551890947856009007,-20.9009063997314,-10.4135258033998,-301.179845576342
738506.43551899981684982777,-20.8824427014985,-10.3858302560503,-301.179845576342
738506.43551909027155488729,-20.9009063997314,-10.4042939542833,-301.198309274575
738506.43551918072625994682,-20.8916745506149,-10.3858302560503,-301.142918179876
738506.43551927118096500635,-20.9009063997314,-10.4042939542833,-301.216772972808
738506.43551936163567006588,-20.8916745506149,-10.3950621051668,-301.059831537828
738506.43551945209037512541,-20.9009063997314,-10.4135258033998,-301.059831537828
738506.43551954254508018494,-20.8916745506149,-10.3950621051668,-301.216772972808
738506.43551963299978524446,-20.9101382488479,-10.4135258033998,-301.179845576342
738506.43551972333807498217,-20.9101382488479,-10.3950621051668,-301.161381878109
738506.43551981379278004169,-20.9101382488479,-10.4135258033998,-301.198309274575
738506.43551990424748510122,-20.9009063997314,-10.3950621051668,-301.235236671041
738506.43551999470219016075,-20.9009063997314,-10.4042939542833,-301.226004821925
738506.43552008515689522028,-20.9009063997314,-10.4135258033998,-301.152150028993
738506.43552017561160027981,-20.9009063997314,-10.4042939542833,-301.207541123691
738506.43552026606630533934,-20.9193700979644,-10.4227576525162,-301.198309274575
738506.43552035652101039886,-20.9009063997314,-10.4042939542833,-301.179845576342
738506.43552044697571545839,-20.9101382488479,-10.4135258033998,-301.170613727226
738506.43552053731400519609,-20.9101382488479,-10.3950621051668,-301.235236671041
738506.43552062776871025562,-20.9101382488479,-10.4135258033998,-301.226004821925
738506.43552071822341531515,-20.9101382488479,-10.4042939542833,-301.152150028993
738506.43552080867812037468,-20.9193700979644,-10.4135258033998,-301.198309274575
738506.43552089913282543421,-20.9101382488479,-10.3950621051668,-301.189077425459
738506.43552098958753049374,-20.9193700979644,-10.4135258033998,-301.179845576342
738506.43552108004223555326,-20.9193700979644,-10.4042939542833,-301.216772972808
738506.43552117049694061279,-20.9009063997314,-10.4042939542833,-301.207541123691
738506.43552126083523035049,-20.9101382488479,-10.4042939542833,-301.207541123691
738506.43552135128993541002,-20.9101382488479,-10.4042939542833,-301.189077425459
738506.43552144174464046955,-20.9101382488479,-10.4042939542833,-301.207541123691
738506.43552153219934552908,-20.9101382488479,-10.4042939542833,-301.226004821925
738506.43552162265405058861,-20.9193700979644,-10.4042939542833,-301.170613727226
738506.43552171310875564814,-20.9193700979644,-10.4042939542833,-301.235236671041
738506.43552180356346070766,-20.9101382488479,-10.4135258033998,-301.207541123691
738506.43552189401816576719,-20.9101382488479,-10.3950621051668,-301.226004821925
738506.43552198435645550489,-20.9193700979644,-10.4042939542833,-301.161381878109
738506.43552207481116056442,-20.9101382488479,-10.3950621051668,-301.198309274575
738506.43552216526586562395,-20.9193700979644,-10.4042939542833,-301.161381878109
738506.43552225572057068348,-20.9009063997314,-10.3950621051668,-301.170613727226
738506.43552234617527574301,-20.8916745506149,-10.4042939542833,-301.152150028993
738506.43552243662998080254,-20.873210852382,-10.3765984069338,-301.124454481643
738506.43552252708468586206,-20.854747154149,-10.3765984069338,-301.198309274575
738506.43552261753939092159,-20.817819757683,-10.3673665578173,-301.152150028993
738506.43552270799409598112,-20.7624286629841,-10.3673665578173,-301.13368633076
738506.43552279833238571882,-20.7531968138676,-10.3858302560503,-301.13368633076
738506.43552288878709077835,-20.7347331156346,-10.3673665578173,-301.050599688711
738506.43552297924179583788,-20.7255012665181,-10.3673665578173,-301.087527085177
738506.43552306969650089741,-20.7901242103336,-10.3673665578173,-301.207541123691
738506.43552316015120595694,-20.8455153050325,-10.3858302560503,-301.152150028993
738506.43552325060591101646,-20.8824427014985,-10.3858302560503,-301.124454481643
738506.43552334106061607599,-20.9193700979644,-10.4042939542833,-301.179845576342
738506.43552343151532113552,-20.9378337961974,-10.4042939542833,-301.13368633076
738506.43552352185361087322,-20.9470656453139,-10.4135258033998,-301.096758934294
738506.43552361230831593275,-20.9378337961974,-10.4042939542833,-301.087527085177
738506.43552370276302099228,-20.9470656453139,-10.4135258033998,-301.115222632527
738506.43552379321772605181,-20.9378337961974,-10.4042939542833,-301.115222632527
738506.43552388367243111134,-20.9562974944304,-10.4135258033998,-301.096758934294
738506.43552397412713617086,-20.9470656453139,-10.4042939542833,-301.096758934294
738506.43552406458184123039,-20.9378337961974,-10.4042939542833,-301.124454481643
738506.43552415503654628992,-20.9470656453139,-10.4042939542833,-301.170613727226
738506.43552424537483602762,-20.9470656453139,-10.4042939542833,-301.142918179876
738506.43552433582954108715,-20.9470656453139,-10.4042939542833,-301.124454481643
738506.43552442628424614668,-20.9839930417798,-10.3581347087008,-301.170613727226
738506.43552451673895120621,-20.9009063997314,-10.3027436140019,-301.170613727226
738506.43552460719365626574,-20.5777916806543,-10.191961424604,-301.059831537828
738506.43552469764836132526,-20.0977355265969,-10.2381206701865,-301.041367839595
738506.43552478810306638479,-19.8300119022187,-10.5335398419141,-301.115222632527
738506.43552487855777144432,-20.6978057191687,-10.7458723715934,-301.207541123691
738506.43552496901247650385,-21.4271217993713,-10.662785729545,-301.309091463973
738506.43552505935076624155,-21.2424848170415,-10.4135258033998,-301.235236671041
738506.43552514980547130108,-20.9655293435469,-10.3027436140019,-301.170613727226
738506.43552524026017636061,-20.8455153050325,-10.3304391613514,-301.142918179876
738506.43552533071488142014,-20.836283455916,-10.3489028595843,-301.189077425459
738506.43552542116958647966,-20.854747154149,-10.3581347087008,-301.170613727226
738506.43552551162429153919,-20.8455153050325,-10.3396710104678,-301.115222632527
738506.43552560207899659872,-20.854747154149,-10.3581347087008,-301.170613727226
738506.43552569253370165825,-20.8455153050325,-10.3581347087008,-301.170613727226
738506.43552578287199139595,-20.836283455916,-10.3489028595843,-301.179845576342
738506.43552587332669645548,-20.8270516067995,-10.3581347087008,-301.13368633076
738506.43552596378140151501,-20.817819757683,-10.3396710104678,-301.179845576342
738506.43552605423610657454,-20.817819757683,-10.3489028595843,-301.189077425459
738506.43552614469081163406,-20.7993560594501,-10.3304391613514,-301.10599078341
738506.43552623514551669359,-20.7901242103336,-10.3396710104678,-301.170613727226
738506.43552632560022175312,-20.7808923612171,-10.3212073122349,-301.198309274575
738506.43552641605492681265,-20.7716605121006,-10.3304391613514,-301.032135990478
738506.43552650639321655035,-20.7531968138676,-10.3119754631184,-301.050599688711
738506.43552659684792160988,-20.7439649647511,-10.3212073122349,-301.078295236061
738506.43552668730262666941,-20.7162694174017,-10.2935117648854,-301.124454481643
738506.43552677775733172894,-20.7162694174017,-10.3027436140019,-301.115222632527
738506.43552686821203678846,-20.6793420209357,-10.2750480666524,-301.124454481643
738506.43552695866674184799,-20.6701101718192,-10.2750480666524,-301.10599078341
738506.43552704912144690752,-20.6331827753533,-10.2565843684194,-301.096758934294
738506.43552713957615196705,-20.6239509262368,-10.2565843684194,-301.10599078341
738506.43552723003085702658,-20.5870235297708,-10.2381206701865,-301.096758934294
738506.43552732036914676428,-20.5685598315378,-10.22888882107,-301.115222632527
738506.43552741082385182381,-20.5224005859554,-10.2011932737205,-301.050599688711
738506.43552750127855688334,-20.4947050386059,-10.1827295754875,-301.032135990478
738506.43552759173326194286,-20.4762413403729,-10.1827295754875,-301.069063386944
738506.43552768218796700239,-20.439313943907,-10.1458021790216,-301.041367839595
738506.43552777264267206192,-20.420850245674,-10.1458021790216,-301.032135990478
738506.43552786309737712145,-20.383922849208,-10.1273384807886,-301.004440443129
738506.43552795355208218098,-20.383922849208,-10.1365703299051,-301.013672292245
738506.43552804389037191868,-20.383922849208,-10.1273384807886,-301.032135990478
738506.43552813434507697821,-20.4300820947905,-10.1642658772546,-301.10599078341
738506.43552822479978203773,-20.4854731894894,-10.191961424604,-301.10599078341
738506.43552831525448709726,-20.5777916806543,-10.2565843684194,-301.10599078341
738506.43552840570919215679,-20.6516464735862,-10.2935117648854,-301.13368633076
738506.43552849616389721632,-20.7255012665181,-10.3304391613514,-301.198309274575
738506.43552858661860227585,-20.7716605121006,-10.3489028595843,-301.13368633076
738506.43552867707330733538,-20.8085879085665,-10.3673665578173,-301.115222632527
738506.43552876741159707308,-20.8270516067995,-10.3765984069338,-301.10599078341
738506.43552885786630213261,-20.8455153050325,-10.3765984069338,-301.078295236061
738506.43552894832100719213,-20.854747154149,-10.3950621051668,-301.124454481643
738506.43552903877571225166,-20.854747154149,-10.3858302560503,-301.161381878109
738506.43552912923041731119,-20.8639790032655,-10.3950621051668,-301.170613727226
738506.43552921968512237072,-20.854747154149,-10.3858302560503,-301.170613727226
738506.43552931013982743025,-20.854747154149,-10.3950621051668,-301.226004821925
738506.43552940059453248978,-20.8455153050325,-10.3858302560503,-301.198309274575
738506.43552949104923754930,-20.854747154149,-10.3858302560503,-301.161381878109
738506.43552958138752728701,-20.8455153050325,-10.3858302560503,-301.179845576342
738506.43552967184223234653,-20.8455153050325,-10.3858302560503,-301.207541123691
738506.43552976229693740606,-20.836283455916,-10.3858302560503,-301.198309274575
738506.43552985275164246559,-20.836283455916,-10.3858302560503,-301.170613727226
738506.43552994320634752512,-20.836283455916,-10.3858302560503,-301.124454481643
738506.43553003366105258465,-20.836283455916,-10.3765984069338,-301.115222632527
738506.43553012411575764418,-20.836283455916,-10.3765984069338,-301.115222632527
738506.43553021457046270370,-20.8455153050325,-10.3673665578173,-301.189077425459
738506.43553030490875244141,-20.8455153050325,-10.3858302560503,-301.198309274575
738506.43553039536345750093,-20.8455153050325,-10.3673665578173,-301.207541123691
738506.43553048581816256046,-20.854747154149,-10.3858302560503,-301.13368633076
738506.43553057627286761999,-20.8455153050325,-10.3765984069338,-301.216772972808
738506.43553066672757267952,-20.854747154149,-10.3950621051668,-301.198309274575
738506.43553075718227773905,-20.8639790032655,-10.3858302560503,-301.142918179876
738506.43553084763698279858,-20.873210852382,-10.4135258033998,-301.189077425459
738506.43553093809168785810,-20.873210852382,-10.3858302560503,-301.179845576342
738506.43553102842997759581,-20.8824427014985,-10.4042939542833,-301.170613727226
738506.43553111888468265533,-20.8639790032655,-10.3858302560503,-301.179845576342
738506.43553120933938771486,-20.873210852382,-10.4042939542833,-301.124454481643
738506.43553129979409277439,-20.873210852382,-10.3950621051668,-301.170613727226
738506.43553139024879783392,-20.873210852382,-10.3950621051668,-301.142918179876
738506.43553148070350289345,-20.8824427014985,-10.4042939542833,-301.124454481643
738506.43553157115820795298,-20.8916745506149,-10.3950621051668,-301.142918179876
738506.43553166161291301250,-20.8916745506149,-10.4042939542833,-301.161381878109
738506.43553175206761807203,-20.8916745506149,-10.3950621051668,-301.170613727226
738506.43553184240590780973,-20.9009063997314,-10.4135258033998,-301.170613727226
738506.43553193286061286926,-20.8916745506149,-10.4042939542833,-301.142918179876
738506.43553202331531792879,-20.9101382488479,-10.4135258033998,-301.179845576342
738506.43553211377002298832,-20.9101382488479,-10.4042939542833,-301.152150028993
738506.43553220422472804785,-20.9193700979644,-10.4227576525162,-301.152150028993
738506.43553229467943310738,-20.9009063997314,-10.4042939542833,-301.198309274575
738506.43553238513413816690,-20.9193700979644,-10.4135258033998,-301.189077425459
738506.43553247558884322643,-20.9101382488479,-10.4135258033998,-301.198309274575
738506.43553256592713296413,-20.9193700979644,-10.4227576525162,-301.179845576342
738506.43553265638183802366,-20.9009063997314,-10.4042939542833,-301.226004821925
738506.43553274683654308319,-20.9193700979644,-10.4227576525162,-301.124454481643
738506.43553283729124814272,-20.9101382488479,-10.4042939542833,-301.170613727226
738506.43553292774595320225,-20.9193700979644,-10.4227576525162,-301.198309274575
738506.43553301820065826178,-20.9101382488479,-10.4227576525162,-301.198309274575
738506.43553310865536332130,-20.9193700979644,-10.4227576525162,-301.189077425459
738506.43553319911006838083,-20.9193700979644,-10.4227576525162,-301.170613727226
738506.43553328944835811853,-20.9101382488479,-10.4042939542833,-301.216772972808
738506.43553337990306317806,-20.9101382488479,-10.4227576525162,-301.235236671041
738506.43553347035776823759,-20.9101382488479,-10.4135258033998,-301.096758934294
738506.43553356081247329712,-20.9193700979644,-10.4227576525162,-301.078295236061
738506.43553365126717835665,-20.9101382488479,-10.4042939542833,-301.198309274575
738506.43553374172188341618,-20.9193700979644,-10.4227576525162,-301.115222632527
738506.43553383217658847570,-20.9101382488479,-10.4135258033998,-301.179845576342
738506.43553392263129353523,-20.9193700979644,-10.4227576525162,-301.207541123691
738506.43553401308599859476,-20.9193700979644,-10.4135258033998,-301.142918179876
738506.43553410342428833246,-20.9286019470809,-10.4319895016327,-301.170613727226
738506.43553419387899339199,-20.9193700979644,-10.4135258033998,-301.207541123691
738506.43553428433369845152,-20.9193700979644,-10.4135258033998,-301.13368633076
738506.43553437478840351105,-20.9193700979644,-10.4227576525162,-301.10599078341
738506.43553446524310857058,-20.9286019470809,-10.4227576525162,-301.115222632527
738506.43553455569781363010,-20.9286019470809,-10.4227576525162,-301.13368633076
738506.43553464615251868963,-20.9286019470809,-10.4227576525162,-301.096758934294
738506.43553473660722374916,-20.9378337961974,-10.4319895016327,-301.179845576342
738506.43553482694551348686,-20.9470656453139,-10.4319895016327,-301.142918179876
738506.43553491740021854639,-20.9378337961974,-10.4319895016327,-301.124454481643
738506.43553500785492360592,-20.9193700979644,-10.4135258033998,-301.152150028993
738506.43553509830962866545,-20.9193700979644,-10.4319895016327,-301.13368633076
738506.43553518876433372498,-20.8916745506149,-10.4135258033998,-301.161381878109
738506.43553527921903878450,-20.873210852382,-10.4135258033998,-301.152150028993
738506.43553536967374384403,-20.8455153050325,-10.3950621051668,-301.124454481643
738506.43553546012844890356,-20.8085879085665,-10.3950621051668,-301.170613727226
738506.43553555046673864126,-20.7808923612171,-10.4135258033998,-301.198309274575
738506.43553564092144370079,-20.7901242103336,-10.4042939542833,-301.216772972808
738506.43553573137614876032,-20.7716605121006,-10.3950621051668,-301.161381878109
738506.43553582183085381985,-20.7993560594501,-10.3950621051668,-301.124454481643
738506.43553591228555887938,-20.836283455916,-10.3950621051668,-301.13368633076
738506.43553600274026393890,-20.9101382488479,-10.4135258033998,-301.13368633076
738506.43553609319496899843,-20.9470656453139,-10.4319895016327,-301.198309274575
738506.43553618364967405796,-20.9655293435469,-10.4319895016327,-301.198309274575
738506.43553627410437911749,-20.9747611926634,-10.4504531998657,-301.207541123691
738506.43553636444266885519,-20.9747611926634,-10.4319895016327,-301.170613727226
738506.43553645489737391472,-20.9932248908963,-10.4412213507492,-301.216772972808
738506.43553654535207897425,-20.9839930417798,-10.4319895016327,-301.198309274575
738506.43553663580678403378,-20.9932248908963,-10.4412213507492,-301.142918179876
738506.43553672626148909330,-20.9839930417798,-10.4227576525162,-301.189077425459
738506.43553681671619415283,-20.9839930417798,-10.4504531998657,-301.226004821925
738506.43553690717089921236,-20.9839930417798,-10.4412213507492,-301.161381878109
738506.43553699762560427189,-20.9839930417798,-10.4319895016327,-301.152150028993
738506.43553708796389400959,-20.9839930417798,-10.4319895016327,-301.032135990478
738506.43553717841859906912,-21.0301522873623,-10.3858302560503,-301.216772972808
738506.43553726887330412865,-20.9470656453139,-10.3304391613514,-301.170613727226
738506.43553735932800918818,-20.6239509262368,-10.22888882107,-301.10599078341
738506.43553744978271424770,-20.1715903195288,-10.2842799157689,-301.096758934294
738506.43553754023741930723,-19.9223303933836,-10.5796990874966,-301.124454481643
738506.43553763069212436676,-20.6885738700522,-10.7551042207099,-301.216772972808
738506.43553772114682942629,-21.4178899502548,-10.6350901821955,-301.253700369274
738506.43553781148511916399,-21.270180364391,-10.3950621051668,-301.207541123691
738506.43553790193982422352,-20.9562974944304,-10.3304391613514,-301.198309274575
738506.43553799239452928305,-20.8824427014985,-10.3858302560503,-301.170613727226
738506.43553808284923434258,-20.8824427014985,-10.3765984069338,-301.226004821925
738506.43553817330393940210,-20.9009063997314,-10.3950621051668,-301.189077425459
738506.43553826375864446163,-20.8916745506149,-10.3765984069338,-301.170613727226
738506.43553835421334952116,-20.9009063997314,-10.3950621051668,-301.179845576342
738506.43553844466805458069,-20.8916745506149,-10.3765984069338,-301.226004821925
738506.43553853512275964022,-20.8824427014985,-10.3858302560503,-301.207541123691
738506.43553862546104937792,-20.873210852382,-10.3765984069338,-301.189077425459
738506.43553871591575443745,-20.873210852382,-10.3858302560503,-301.216772972808
738506.43553880637045949697,-20.8639790032655,-10.3858302560503,-301.069063386944
738506.43553889682516455650,-20.8455153050325,-10.3673665578173,-301.078295236061
738506.43553898727986961603,-20.836283455916,-10.3765984069338,-301.078295236061
738506.43553907773457467556,-20.817819757683,-10.3581347087008,-301.078295236061
738506.43553916818927973509,-20.817819757683,-10.3673665578173,-301.041367839595
738506.43553925864398479462,-20.7901242103336,-10.3396710104678,-301.10599078341
738506.43553934898227453232,-20.7901242103336,-10.3581347087008,-301.115222632527
738506.43553943943697959185,-20.7624286629841,-10.3304391613514,-301.059831537828
738506.43553952989168465137,-20.7624286629841,-10.3396710104678,-301.10599078341
738506.43553962034638971090,-20.7255012665181,-10.3212073122349,-301.142918179876
738506.43553971080109477043,-20.7070375682852,-10.3212073122349,-301.069063386944
738506.43553980125579982996,-20.6793420209357,-10.2935117648854,-301.059831537828
738506.43553989171050488949,-20.6608783227027,-10.2935117648854,-301.115222632527
738506.43553998216520994902,-20.6239509262368,-10.2658162175359,-301.078295236061
738506.43554007250349968672,-20.5962553788873,-10.247352519303,-301.004440443129
738506.43554016295820474625,-20.5500961333048,-10.2196569719535,-301.078295236061
738506.43554025341290980577,-20.5131687368389,-10.210425122837,-301.078295236061
738506.43554034386761486530,-20.4762413403729,-10.191961424604,-301.069063386944
738506.43554043432231992483,-20.4485457930235,-10.173497726371,-301.069063386944
738506.43554052477702498436,-20.4116183965575,-10.1642658772546,-300.930585650197
738506.43554061523173004389,-20.383922849208,-10.1550340281381,-300.92135380108
738506.43554070568643510342,-20.383922849208,-10.1642658772546,-301.078295236061
738506.43554079614114016294,-20.3746910000916,-10.1550340281381,-301.059831537828
738506.43554088647942990065,-20.420850245674,-10.191961424604,-301.059831537828
738506.43554097693413496017,-20.4762413403729,-10.2196569719535,-301.078295236061
738506.43554106738884001970,-20.5870235297708,-10.2842799157689,-301.10599078341
738506.43554115784354507923,-20.6701101718192,-10.3027436140019,-301.124454481643
738506.43554124829825013876,-20.7439649647511,-10.3489028595843,-301.124454481643
738506.43554133875295519829,-20.8085879085665,-10.3673665578173,-301.198309274575
738506.43554142920766025782,-20.854747154149,-10.3858302560503,-301.179845576342
738506.43554151966236531734,-20.873210852382,-10.3950621051668,-301.179845576342
738506.43554161000065505505,-20.9009063997314,-10.4042939542833,-301.170613727226
738506.43554170045536011457,-20.9009063997314,-10.4135258033998,-301.216772972808
738506.43554179091006517410,-20.9101382488479,-10.4042939542833,-301.235236671041
738506.43554188136477023363,-20.9193700979644,-10.4135258033998,-301.198309274575
738506.43554197181947529316,-20.9101382488479,-10.4042939542833,-301.179845576342
738506.43554206227418035269,-20.9101382488479,-10.4135258033998,-301.198309274575
738506.43554215272888541222,-20.9009063997314,-10.4042939542833,-301.152150028993
738506.43554224318359047174,-20.9101382488479,-10.4135258033998,-301.216772972808
738506.43554233352188020945,-20.9009063997314,-10.4042939542833,-301.189077425459
738506.43554242397658526897,-20.9009063997314,-10.4227576525162,-301.189077425459
738506.43554251443129032850,-20.8916745506149,-10.4042939542833,-301.152150028993
738506.43554260488599538803,-20.9009063997314,-10.4135258033998,-301.179845576342
738506.43554269534070044756,-20.9101382488479,-10.4135258033998,-301.207541123691
738506.43554278579540550709,-20.9101382488479,-10.4135258033998,-301.170613727226
738506.43554287625011056662,-20.9009063997314,-10.4135258033998,-301.235236671041
738506.43554296670481562614,-20.9101382488479,-10.4135258033998,-301.235236671041
738506.43554305715952068567,-20.9009063997314,-10.4135258033998,-301.096758934294
738506.43554314749781042337,-20.9009063997314,-10.4042939542833,-301.115222632527
738506.43554323795251548290,-20.9101382488479,-10.4227576525162,-301.124454481643
738506.43554332840722054243,-20.9009063997314,-10.4135258033998,-301.115222632527
738506.43554341886192560196,-20.9101382488479,-10.4227576525162,-301.124454481643
738506.43554350931663066149,-20.9101382488479,-10.4135258033998,-301.170613727226
738506.43554359977133572102,-20.9193700979644,-10.4319895016327,-301.189077425459
738506.43554369022604078054,-20.9101382488479,-10.4042939542833,-301.179845576342
738506.43554378068074584007,-20.9193700979644,-10.4227576525162,-301.244468520157
738506.43554387101903557777,-20.9193700979644,-10.4135258033998,-301.253700369274
738506.43554396147374063730,-20.9286019470809,-10.4319895016327,-301.124454481643
738506.43554405192844569683,-20.9286019470809,-10.4135258033998,-301.013672292245
738506.43554414238315075636,-20.9470656453139,-10.4319895016327,-301.041367839595
738506.43554423283785581589,-20.9378337961974,-10.4135258033998,-301.170613727226
738506.43554432329256087542,-20.9470656453139,-10.4319895016327,-301.161381878109
738506.43554441374726593494,-20.9470656453139,-10.4227576525162,-301.124454481643
738506.43554450420197099447,-20.9470656453139,-10.4227576525162,-301.142918179876
738506.43554459454026073217,-20.9562974944304,-10.4319895016327,-301.152150028993
738506.43554468499496579170,-20.9470656453139,-10.4227576525162,-301.124454481643
738506.43554477544967085123,-20.9562974944304,-10.4412213507492,-301.142918179876
738506.43554486590437591076,-20.9562974944304,-10.4319895016327,-301.170613727226
738506.43554495635908097029,-20.9655293435469,-10.4412213507492,-301.198309274575
738506.43554504681378602982,-20.9562974944304,-10.4135258033998,-301.13368633076
738506.43554513726849108934,-20.9562974944304,-10.4319895016327,-301.179845576342
738506.43554522772319614887,-20.9562974944304,-10.4227576525162,-301.170613727226
738506.43554531817790120840,-20.9562974944304,-10.4412213507492,-301.161381878109
738506.43554540851619094610,-20.9470656453139,-10.4227576525162,-301.170613727226
738506.43554549897089600563,-20.9562974944304,-10.4319895016327,-301.207541123691
738506.43554558942560106516,-20.9562974944304,-10.4227576525162,-301.226004821925
738506.43554567988030612469,-20.9562974944304,-10.4319895016327,-301.161381878109
738506.43554577033501118422,-20.9470656453139,-10.4135258033998,-301.207541123691
738506.43554586078971624374,-20.9562974944304,-10.4227576525162,-301.226004821925
738506.43554595124442130327,-20.9470656453139,-10.4135258033998,-301.226004821925
738506.43554604169912636280,-20.9562974944304,-10.4227576525162,-301.142918179876
738506.43554613203741610050,-20.9470656453139,-10.4227576525162,-301.179845576342
738506.43554622249212116003,-20.9470656453139,-10.4227576525162,-301.207541123691
738506.43554631294682621956,-20.9562974944304,-10.4319895016327,-301.216772972808
738506.43554640340153127909,-20.9470656453139,-10.4227576525162,-301.170613727226
738506.43554649385623633862,-20.9655293435469,-10.4319895016327,-301.207541123691
738506.43554658431094139814,-20.9562974944304,-10.4135258033998,-301.226004821925
738506.43554667476564645767,-20.9655293435469,-10.4319895016327,-301.152150028993
738506.43554676522035151720,-20.9562974944304,-10.4135258033998,-301.189077425459
738506.43554685555864125490,-20.9562974944304,-10.4319895016327,-301.13368633076
738506.43554694601334631443,-20.9470656453139,-10.4135258033998,-301.124454481643
738506.43554703646805137396,-20.9470656453139,-10.4227576525162,-301.096758934294
738506.43554712692275643349,-20.9378337961974,-10.4042939542833,-301.115222632527
738506.43554721737746149302,-20.9562974944304,-10.4227576525162,-301.124454481643
738506.43554730783216655254,-20.9562974944304,-10.4135258033998,-301.142918179876
738506.43554739828687161207,-20.9470656453139,-10.4227576525162,-301.198309274575
738506.43554748874157667160,-20.9470656453139,-10.4227576525162,-301.216772972808
738506.43554757919628173113,-20.9655293435469,-10.4319895016327,-301.041367839595
738506.43554766953457146883,-20.9655293435469,-10.4319895016327,-301.142918179876
738506.43554775998927652836,-20.9562974944304,-10.4319895016327,-301.198309274575
738506.43554785044398158789,-20.9562974944304,-10.4319895016327,-301.142918179876
738506.43554794089868664742,-20.9747611926634,-10.4227576525162,-301.13368633076
738506.43554803135339170694,-20.9747611926634,-10.4319895016327,-301.170613727226
738506.43554812180809676647,-20.9562974944304,-10.4135258033998,-301.161381878109
738506.43554821226280182600,-20.9655293435469,-10.4227576525162,-301.142918179876
738506.43554830271750688553,-20.9655293435469,-10.4227576525162,-301.207541123691
738506.43554839305579662323,-20.9839930417798,-10.4319895016327,-301.161381878109
738506.43554848351050168276,-20.9655293435469,-10.4042939542833,-301.170613727226
738506.43554857396520674229,-20.9378337961974,-10.4042939542833,-301.216772972808
738506.43554866441991180182,-20.8916745506149,-10.3950621051668,-301.235236671041
738506.43554875487461686134,-20.873210852382,-10.3950621051668,-301.124454481643
738506.43554884532932192087,-20.8270516067995,-10.3765984069338,-301.207541123691
738506.43554893578402698040,-20.8270516067995,-10.3765984069338,-301.207541123691
738506.43554902623873203993,-20.8455153050325,-10.3858302560503,-301.161381878109
738506.43554911657702177763,-20.836283455916,-10.3673665578173,-301.161381878109
738506.43554920703172683716,-20.8455153050325,-10.3673665578173,-301.198309274575
738506.43554929748643189669,-20.8916745506149,-10.3581347087008,-301.170613727226
738506.43554938794113695621,-20.9655293435469,-10.3950621051668,-301.152150028993
738506.43554947839584201574,-21.0024567400128,-10.4042939542833,-301.207541123691
738506.43554956885054707527,-20.9747611926634,-10.4042939542833,-301.226004821925
738506.43554965930525213480,-20.9932248908963,-10.3950621051668,-301.13368633076
738506.43554974975995719433,-21.0116885891293,-10.4227576525162,-301.142918179876
738506.43554984021466225386,-20.9747611926634,-10.3765984069338,-301.179845576342
738506.43554993055295199156,-21.0024567400128,-10.4227576525162,-301.207541123691
738506.43555002100765705109,-21.0209204382458,-10.4412213507492,-301.235236671041
738506.43555011146236211061,-20.9747611926634,-10.3858302560503,-301.161381878109
738506.43555020191706717014,-21.0024567400128,-10.4042939542833,-301.207541123691
738506.43555029237177222967,-20.9562974944304,-10.3765984069338,-301.207541123691
738506.43555038282647728920,-20.9286019470809,-10.3396710104678,-301.226004821925
738506.43555047328118234873,-21.0855433820612,-10.4227576525162,-301.170613727226
738506.43555056373588740826,-20.9839930417798,-10.3027436140019,-301.198309274575
738506.43555065407417714596,-20.5224005859554,-10.0534836878567,-301.124454481643
738506.43555074452888220549,-20.1161992248299,-10.191961424604,-301.059831537828
738506.43555083498358726501,-19.986953337199,-10.6166264839625,-301.124454481643
738506.43555092543829232454,-20.8085879085665,-10.8381908627583,-301.226004821925
738506.43555101589299738407,-21.5009765923032,-10.7089449751274,-301.244468520157
738506.43555110634770244360,-21.3348033082064,-10.4504531998657,-301.078295236061
738506.43555119680240750313,-21.0301522873623,-10.3581347087008,-301.078295236061
738506.43555128725711256266,-20.873210852382,-10.3304391613514,-301.142918179876
738506.43555137759540230036,-20.854747154149,-10.2935117648854,-301.152150028993
738506.43555146805010735989,-20.9286019470809,-10.3950621051668,-301.142918179876
738506.43555155850481241941,-20.9378337961974,-10.3765984069338,-301.152150028993
738506.43555164895951747894,-20.9009063997314,-10.3489028595843,-301.115222632527
738506.43555173941422253847,-20.8824427014985,-10.3396710104678,-301.142918179876
738506.43555182986892759800,-20.8639790032655,-10.3304391613514,-301.152150028993
738506.43555192032363265753,-20.8916745506149,-10.3489028595843,-301.142918179876
738506.43555201077833771706,-20.8824427014985,-10.3396710104678,-301.13368633076
738506.43555210123304277658,-20.9009063997314,-10.3765984069338,-301.142918179876
738506.43555219157133251429,-20.9009063997314,-10.3765984069338,-301.161381878109
738506.43555228202603757381,-20.8916745506149,-10.3858302560503,-301.13368633076
738506.43555237248074263334,-20.836283455916,-10.3489028595843,-301.13368633076
738506.43555246293544769287,-20.8270516067995,-10.3581347087008,-301.124454481643
738506.43555255339015275240,-20.817819757683,-10.3212073122349,-301.124454481643
738506.43555264384485781193,-20.7901242103336,-10.3396710104678,-301.115222632527
738506.43555273429956287146,-20.7808923612171,-10.3027436140019,-301.004440443129
738506.43555282475426793098,-20.7808923612171,-10.3119754631184,-301.059831537828
738506.43555291509255766869,-20.7624286629841,-10.3027436140019,-301.069063386944
738506.43555300554726272821,-20.7439649647511,-10.2842799157689,-301.078295236061
738506.43555309600196778774,-20.7347331156346,-10.2842799157689,-301.10599078341
738506.43555318645667284727,-20.7070375682852,-10.2935117648854,-301.087527085177
738506.43555327691137790680,-20.6608783227027,-10.2381206701865,-301.10599078341
738506.43555336736608296633,-20.6331827753533,-10.2381206701865,-301.096758934294
738506.43555345782078802586,-20.5870235297708,-10.2196569719535,-301.059831537828
738506.43555354827549308538,-20.5685598315378,-10.210425122837,-301.10599078341
738506.43555363861378282309,-20.5224005859554,-10.1827295754875,-301.078295236061
