time_dn,ecg_projection_ll_ra_mV,ecg_projection_la_ra_mV,ecg_projection_vx_rl_mV
738506.39816385821904987097,-18.5283211767937,-11.5490432447279,-300.155110324412
738506.39816394867375493050,-18.5467848750267,-11.5398113956114,-300.099719229713
738506.39816403901204466820,-18.5467848750267,-11.456724753563,-300.108951078829
738506.39816412946674972773,-18.4821619312113,-11.4382610553301,-300.118182927946
738506.39816421992145478725,-18.1682790612506,-11.3367107150487,-300.025864436781
738506.39816431037615984678,-17.7066866054262,-11.4013336588641,-299.998168889431
738506.39816440083086490631,-17.438962981048,-11.7059846797082,-300.05355998413
738506.39816449128556996584,-18.306756797998,-11.872157963805,-300.201269569994
738506.39816458162385970354,-19.0453047273171,-11.8167668691061,-300.210501419111
738506.39816467207856476307,-18.8514358958708,-11.5490432447279,-300.164342173528
738506.39816476253326982260,-18.5652485732597,-11.4659566026795,-300.108951078829
738506.39816485298797488213,-18.4360026856288,-11.475188451796,-300.062791833247
738506.39816494344267994165,-18.4544663838618,-11.5213476973785,-300.118182927946
738506.39816503378096967936,-18.4636982329783,-11.512115848262,-300.127414777062
738506.39816512423567473888,-18.4544663838618,-11.5213476973785,-300.072023682363
738506.39816521469037979841,-18.4360026856288,-11.5028839991455,-299.970473342082
738506.39816530514508485794,-18.4544663838618,-11.5213476973785,-300.025864436781
738506.39816539559978991747,-18.4267708365123,-11.493652150029,-300.090487380596
738506.39816548605449497700,-18.4267708365123,-11.512115848262,-300.127414777062
738506.39816557639278471470,-18.4083071382794,-11.493652150029,-300.136646626179
738506.39816566684748977423,-18.4083071382794,-11.493652150029,-300.035096285897
738506.39816575730219483376,-18.3898434400464,-11.4844203009125,-300.044328135014
738506.39816584775689989328,-18.3898434400464,-11.493652150029,-300.016632587664
738506.39816593821160495281,-18.3898434400464,-11.4844203009125,-300.007400738548
738506.39816602854989469051,-18.3806115909299,-11.4844203009125,-300.016632587664
738506.39816611900459975004,-18.3621478926969,-11.4844203009125,-300.016632587664
738506.39816620945930480957,-18.3344523453475,-11.456724753563,-300.016632587664
738506.39816629991400986910,-18.325220496231,-11.4659566026795,-299.988937040315
738506.39816639036871492863,-18.306756797998,-11.456724753563,-300.007400738548
738506.39816648082341998816,-18.306756797998,-11.475188451796,-299.998168889431
738506.39816657116170972586,-18.269829401532,-11.4382610553301,-300.062791833247
738506.39816666161641478539,-18.2605975524155,-11.4474929044465,-300.099719229713
738506.39816675207111984491,-18.2236701559496,-11.4105655079806,-300.099719229713
738506.39816684252582490444,-18.2236701559496,-11.4105655079806,-300.007400738548
738506.39816693298052996397,-18.1682790612506,-11.3921018097476,-300.05355998413
738506.39816702331881970167,-18.1682790612506,-11.3921018097476,-300.025864436781
738506.39816711377352476120,-18.1036561174352,-11.3644062623981,-299.933545945616
738506.39816720422822982073,-18.0759605700858,-11.3459425641652,-300.007400738548
738506.39816729468293488026,-18.0298013245033,-11.3274788659322,-300.035096285897
738506.39816738513763993979,-18.0113376262703,-11.3367107150487,-300.035096285897
738506.39816747559234499931,-17.9744102298044,-11.3182470168157,-299.961241492965
738506.39816756593063473701,-17.9651783806879,-11.3090151676992,-300.007400738548
738506.39816765638533979654,-17.9559465315714,-11.3182470168157,-300.05355998413
738506.39816774684004485607,-18.0021057771538,-11.3459425641652,-299.961241492965
738506.39816783729474991560,-18.0667287209693,-11.3921018097476,-299.998168889431
738506.39816792774945497513,-18.1036561174352,-11.4013336588641,-300.072023682363
738506.39816801808774471283,-18.1959746086001,-11.4659566026795,-300.090487380596
738506.39816810854244977236,-18.269829401532,-11.475188451796,-299.998168889431
738506.39816819899715483189,-18.3344523453475,-11.5213476973785,-300.072023682363
738506.39816828945185989141,-18.3806115909299,-11.5305795464949,-300.136646626179
738506.39816837990656495094,-18.4267708365123,-11.5490432447279,-300.136646626179
738506.39816847036127001047,-18.4175389873959,-11.5582750938444,-300.072023682363
738506.39816856069955974817,-18.4544663838618,-11.5675069429609,-300.108951078829
738506.39816865115426480770,-18.4452345347453,-11.5675069429609,-300.145878475295
738506.39816874160896986723,-18.4360026856288,-11.5767387920774,-299.9243140965
738506.39816883206367492676,-18.4452345347453,-11.5675069429609,-300.016632587664
738506.39816892251837998629,-18.4544663838618,-11.5675069429609,-300.090487380596
738506.39816901285666972399,-18.4636982329783,-11.5767387920774,-300.072023682363
738506.39816910331137478352,-18.4452345347453,-11.5767387920774,-300.108951078829
738506.39816919376607984304,-18.4452345347453,-11.5859706411939,-300.099719229713
738506.39816928422078490257,-18.4452345347453,-11.5675069429609,-300.099719229713
738506.39816937467548996210,-18.4544663838618,-11.5767387920774,-300.099719229713
738506.39816946501377969980,-18.4452345347453,-11.5767387920774,-300.099719229713
738506.39816955546848475933,-18.4636982329783,-11.5767387920774,-300.108951078829
738506.39816964592318981886,-18.4544663838618,-11.5675069429609,-300.090487380596
738506.39816973637789487839,-18.4636982329783,-11.5859706411939,-300.08125553148
738506.39816982683259993792,-18.4636982329783,-11.5675069429609,-300.05355998413
738506.39816991728730499744,-18.4729300820948,-11.5675069429609,-300.044328135014
738506.39817000762559473515,-18.4636982329783,-11.5582750938444,-300.044328135014
738506.39817009808029979467,-18.4544663838618,-11.5767387920774,-300.044328135014
738506.39817018853500485420,-18.4636982329783,-11.5767387920774,-300.08125553148
738506.39817027898970991373,-18.4636982329783,-11.5675069429609,-300.062791833247
738506.39817036944441497326,-18.4636982329783,-11.5675069429609,-300.062791833247
738506.39817045978270471096,-18.4729300820948,-11.5767387920774,-300.08125553148
738506.39817055023740977049,-18.4636982329783,-11.5675069429609,-300.062791833247
738506.39817064069211483002,-18.4729300820948,-11.5582750938444,-300.05355998413
738506.39817073114681988955,-18.4913937803278,-11.5767387920774,-300.062791833247
738506.39817082160152494907,-18.4913937803278,-11.5767387920774,-300.108951078829
738506.39817091205623000860,-18.4913937803278,-11.5859706411939,-300.099719229713
738506.39817100239451974630,-18.4913937803278,-11.5582750938444,-300.072023682363
738506.39817109284922480583,-18.4821619312113,-11.5767387920774,-300.090487380596
738506.39817118330392986536,-18.4821619312113,-11.5490432447279,-300.062791833247
738506.39817127375863492489,-18.5006256294443,-11.5675069429609,-300.062791833247
738506.39817136421333998442,-18.4821619312113,-11.5582750938444,-300.108951078829
738506.39817145455162972212,-18.5006256294443,-11.5675069429609,-300.090487380596
738506.39817154500633478165,-18.4913937803278,-11.5490432447279,-300.072023682363
738506.39817163546103984118,-18.4913937803278,-11.5490432447279,-300.05355998413
738506.39817172591574490070,-18.4913937803278,-11.5582750938444,-300.127414777062
738506.39817181637044996023,-18.4913937803278,-11.5490432447279,-300.108951078829
738506.39817190682515501976,-18.4913937803278,-11.5675069429609,-300.08125553148
738506.39817199716344475746,-18.4913937803278,-11.5582750938444,-300.099719229713
738506.39817208761814981699,-18.4913937803278,-11.5767387920774,-300.090487380596
738506.39817217807285487652,-18.4913937803278,-11.5675069429609,-300.099719229713
738506.39817226852755993605,-18.5006256294443,-11.5767387920774,-300.035096285897
738506.39817235898226499557,-18.4821619312113,-11.5675069429609,-300.05355998413
738506.39817244932055473328,-18.5006256294443,-11.5767387920774,-300.145878475295
738506.39817253977525979280,-18.4821619312113,-11.5582750938444,-300.118182927946
738506.39817263022996485233,-18.4729300820948,-11.5582750938444,-300.155110324412
738506.39817272068466991186,-18.4175389873959,-11.5398113956114,-300.155110324412
738506.39817281113937497139,-18.4083071382794,-11.5398113956114,-300.108951078829
738506.39817290159408003092,-18.3529160435804,-11.512115848262,-300.127414777062
738506.39817299193236976862,-18.3436841944639,-11.5398113956114,-300.145878475295
738506.39817308238707482815,-18.3159886471145,-11.5305795464949,-300.127414777062
738506.39817317284177988768,-18.2975249488815,-11.5213476973785,-300.099719229713
738506.39817326329648494720,-18.3344523453475,-11.5305795464949,-300.136646626179
738506.39817335375119000673,-18.3898434400464,-11.5398113956114,-300.155110324412
738506.39817344408947974443,-18.4360026856288,-11.5582750938444,-300.062791833247
738506.39817353454418480396,-18.4544663838618,-11.5582750938444,-300.108951078829
738506.39817362499888986349,-18.5006256294443,-11.5859706411939,-300.155110324412
738506.39817371545359492302,-18.5098574785607,-11.5859706411939,-300.136646626179
738506.39817380590829998255,-18.5283211767937,-11.5859706411939,-300.099719229713
738506.39817389636300504208,-18.5190893276772,-11.5675069429609,-300.145878475295
738506.39817398670129477978,-18.5283211767937,-11.5767387920774,-300.164342173528
738506.39817407715599983931,-18.5190893276772,-11.5675069429609,-300.155110324412
738506.39817416761070489883,-18.5467848750267,-11.5767387920774,-300.108951078829
738506.39817425806540995836,-18.5375530259102,-11.5582750938444,-300.164342173528
738506.39817434852011501789,-18.5375530259102,-11.5675069429609,-300.136646626179
738506.39817443885840475559,-18.5098574785607,-11.5582750938444,-300.108951078829
738506.39817452931310981512,-18.5190893276772,-11.5675069429609,-300.155110324412
738506.39817461976781487465,-18.5467848750267,-11.5490432447279,-300.090487380596
738506.39817471022251993418,-18.5467848750267,-11.4844203009125,-300.016632587664
738506.39817480067722499371,-18.3159886471145,-11.4013336588641,-299.998168889431
738506.39817489113193005323,-17.85439619129,-11.3736381115146,-299.933545945616
738506.39817498147021979094,-17.4851222266305,-11.5952024903104,-299.9243140965
738506.39817507192492485046,-17.6789910580767,-11.8444624164556,-300.062791833247
738506.39817516237962990999,-18.8606677449873,-11.8813898129215,-300.219733268227
738506.39817525283433496952,-18.9529862361522,-11.6505935850093,-300.145878475295
738506.39817534328904002905,-18.685262611774,-11.5028839991455,-300.099719229713
738506.39817543362732976675,-18.5283211767937,-11.4844203009125,-300.08125553148
738506.39817552408203482628,-18.4175389873959,-11.512115848262,-300.072023682363
738506.39817561453673988581,-18.4175389873959,-11.512115848262,-300.08125553148
738506.39817570499144494534,-18.4360026856288,-11.5213476973785,-300.044328135014
738506.39817579544615000486,-18.4360026856288,-11.5213476973785,-299.998168889431
738506.39817588590085506439,-18.4360026856288,-11.5213476973785,-299.988937040315
738506.39817597623914480209,-18.4267708365123,-11.512115848262,-300.062791833247
738506.39817606669384986162,-18.4267708365123,-11.512115848262,-300.08125553148
738506.39817615714855492115,-18.4083071382794,-11.512115848262,-300.05355998413
738506.39817624760325998068,-18.3898434400464,-11.512115848262,-300.127414777062
738506.39817633805796504021,-18.3898434400464,-11.5028839991455,-300.072023682363
738506.39817642839625477791,-18.3713797418134,-11.493652150029,-300.05355998413
738506.39817651885095983744,-18.3621478926969,-11.5028839991455,-300.118182927946
738506.39817660930566489697,-18.3529160435804,-11.493652150029,-300.127414777062
738506.39817669976036995649,-18.3529160435804,-11.5028839991455,-300.044328135014
738506.39817679021507501602,-18.3344523453475,-11.4844203009125,-300.108951078829
738506.39817688066978007555,-18.3344523453475,-11.493652150029,-300.099719229713
738506.39817697100806981325,-18.2975249488815,-11.475188451796,-300.08125553148
738506.39817706146277487278,-18.2975249488815,-11.475188451796,-300.090487380596
738506.39817715191747993231,-18.2605975524155,-11.4474929044465,-300.118182927946
738506.39817724237218499184,-18.2513657032991,-11.456724753563,-300.108951078829
738506.39817733282689005136,-18.2329020050661,-11.4382610553301,-300.05355998413
738506.39817742316517978907,-18.2144383068331,-11.4290292062136,-300.08125553148
738506.39817751361988484859,-18.1867427594836,-11.4105655079806,-300.072023682363
738506.39817760407458990812,-18.1498153630177,-11.3921018097476,-300.072023682363
738506.39817769452929496765,-18.1128879665517,-11.3828699606311,-300.062791833247
738506.39817778498400002718,-18.0759605700858,-11.3644062623981,-300.062791833247
738506.39817787543870508671,-18.0390331736198,-11.3551744132817,-299.961241492965
738506.39817796577699482441,-17.9928739280374,-11.3274788659322,-299.933545945616
738506.39817805623169988394,-17.9744102298044,-11.3274788659322,-299.933545945616
738506.39817814668640494347,-17.9467146824549,-11.3182470168157,-299.942777794732
738506.39817823714111000299,-17.9467146824549,-11.3274788659322,-299.89661854915
738506.39817832759581506252,-17.9467146824549,-11.3274788659322,-299.961241492965
738506.39817841793410480022,-18.0113376262703,-11.3736381115146,-299.942777794732
738506.39817850838880985975,-18.0759605700858,-11.3921018097476,-300.044328135014
738506.39817859884351491928,-18.1682790612506,-11.4474929044465,-300.08125553148
738506.39817868929821997881,-18.2421338541826,-11.4659566026795,-300.118182927946
738506.39817877975292503834,-18.3159886471145,-11.512115848262,-300.062791833247
738506.39817887020763009787,-18.3529160435804,-11.5213476973785,-300.118182927946
738506.39817896054591983557,-18.3990752891629,-11.5398113956114,-300.127414777062
738506.39817905100062489510,-18.3990752891629,-11.5398113956114,-300.072023682363
738506.39817914145532995462,-18.4083071382794,-11.5305795464949,-300.118182927946
738506.39817923191003501415,-18.4175389873959,-11.5398113956114,-300.136646626179
738506.39817932236474007368,-18.4267708365123,-11.5490432447279,-300.099719229713
738506.39817941270302981138,-18.4452345347453,-11.5675069429609,-299.979705191198
738506.39817950315773487091,-18.4360026856288,-11.5490432447279,-300.164342173528
738506.39817959361243993044,-18.4360026856288,-11.5675069429609,-300.145878475295
738506.39817968406714498997,-18.4175389873959,-11.5490432447279,-300.025864436781
738506.39817977452185004950,-18.4360026856288,-11.5675069429609,-300.099719229713
738506.39817986497655510902,-18.4175389873959,-11.5398113956114,-300.118182927946
738506.39817995531484484673,-18.4083071382794,-11.5490432447279,-300.173574022645
738506.39818004576954990625,-18.3990752891629,-11.5213476973785,-300.08125553148
738506.39818013622425496578,-18.3713797418134,-11.493652150029,-300.127414777062
738506.39818022667896002531,-18.3898434400464,-11.5213476973785,-300.145878475295
738506.39818031713366508484,-18.4175389873959,-11.5582750938444,-300.05355998413
738506.39818040747195482254,-18.4267708365123,-11.5582750938444,-300.108951078829
738506.39818049792665988207,-18.4083071382794,-11.5213476973785,-300.035096285897
738506.39818058838136494160,-18.3713797418134,-11.5028839991455,-300.05355998413
738506.39818067883607000113,-18.4452345347453,-11.5767387920774,-300.072023682363
738506.39818076929077506065,-18.4636982329783,-11.5767387920774,-300.118182927946
738506.39818085974548012018,-18.4636982329783,-11.5859706411939,-300.164342173528
738506.39818095008376985788,-18.4083071382794,-11.5213476973785,-300.155110324412
738506.39818104053847491741,-18.4083071382794,-11.5213476973785,-300.164342173528
738506.39818113099317997694,-18.4821619312113,-11.5952024903104,-300.118182927946
738506.39818122144788503647,-18.4913937803278,-11.6228980376598,-300.164342173528
738506.39818131190259009600,-18.4636982329783,-11.5859706411939,-300.145878475295
738506.39818140224087983370,-18.4452345347453,-11.5675069429609,-300.145878475295
738506.39818149269558489323,-18.4544663838618,-11.5675069429609,-300.127414777062
738506.39818158315028995275,-18.4175389873959,-11.512115848262,-300.145878475295
738506.39818167360499501228,-18.3990752891629,-11.512115848262,-300.145878475295
738506.39818176405970007181,-18.3713797418134,-11.4844203009125,-300.108951078829
738506.39818185439798980951,-18.4360026856288,-11.5398113956114,-300.118182927946
738506.39818194485269486904,-18.5837122714927,-11.6875209814753,-300.127414777062
738506.39818203530739992857,-18.5652485732597,-11.6782891323588,-300.108951078829
738506.39818212576210498810,-18.5283211767937,-11.6413617358928,-300.127414777062
738506.39818221621681004763,-18.5190893276772,-11.6228980376598,-300.127414777062
738506.39818230667151510715,-18.5006256294443,-11.6136661885434,-300.090487380596
738506.39818239700980484486,-18.4821619312113,-11.5767387920774,-300.118182927946
738506.39818248746450990438,-18.4729300820948,-11.5859706411939,-300.118182927946
738506.39818257791921496391,-18.4267708365123,-11.5398113956114,-300.099719229713
738506.39818266837392002344,-18.4913937803278,-11.6044343394269,-300.118182927946
738506.39818275882862508297,-18.5006256294443,-11.6044343394269,-300.072023682363
738506.39818284916691482067,-18.5098574785607,-11.6136661885434,-299.878154850917
738506.39818293962161988020,-18.4913937803278,-11.5952024903104,-299.952009643849
738506.39818303007632493973,-18.4821619312113,-11.5952024903104,-300.072023682363
738506.39818312053102999926,-18.4821619312113,-11.5859706411939,-300.062791833247
738506.39818321098573505878,-18.4729300820948,-11.5767387920774,-300.062791833247
738506.39818330144044011831,-18.4544663838618,-11.5767387920774,-300.035096285897
738506.39818339177872985601,-18.4544663838618,-11.5675069429609,-300.05355998413
738506.39818348223343491554,-18.4821619312113,-11.5859706411939,-300.062791833247
738506.39818357268813997507,-18.4452345347453,-11.5582750938444,-300.035096285897
738506.39818366314284503460,-18.4821619312113,-11.5952024903104,-300.072023682363
738506.39818375359755009413,-18.4636982329783,-11.5675069429609,-300.099719229713
738506.39818384393583983183,-18.4636982329783,-11.5859706411939,-300.05355998413
738506.39818393439054489136,-18.3990752891629,-11.5305795464949,-300.118182927946
738506.39818402484524995089,-18.3898434400464,-11.5305795464949,-300.108951078829
738506.39818411529995501041,-18.4267708365123,-11.5859706411939,-300.044328135014
738506.39818420575466006994,-18.4360026856288,-11.5952024903104,-300.118182927946
738506.39818429620936512947,-18.3436841944639,-11.5490432447279,-300.08125553148
738506.39818438654765486717,-18.3159886471145,-11.5675069429609,-300.099719229713
738506.39818447700235992670,-18.2513657032991,-11.512115848262,-300.145878475295
738506.39818456745706498623,-18.288293099765,-11.5398113956114,-300.108951078829
738506.39818465791177004576,-18.306756797998,-11.5490432447279,-300.062791833247
738506.39818474836647510529,-18.306756797998,-11.512115848262,-300.090487380596
738506.39818483870476484299,-18.3529160435804,-11.5305795464949,-300.035096285897
738506.39818492915946990252,-18.4636982329783,-11.5859706411939,-300.145878475295
738506.39818501961417496204,-18.5006256294443,-11.6136661885434,-300.127414777062
738506.39818511006888002157,-18.4913937803278,-11.5767387920774,-300.145878475295
738506.39818520052358508110,-18.5467848750267,-11.6505935850093,-300.062791833247
738506.39818529097829014063,-18.5283211767937,-11.6228980376598,-300.118182927946
738506.39818538131657987833,-18.5283211767937,-11.6228980376598,-300.118182927946
738506.39818547177128493786,-18.4821619312113,-11.5675069429609,-300.164342173528
738506.39818556222598999739,-18.4821619312113,-11.5675069429609,-300.099719229713
738506.39818565268069505692,-18.4544663838618,-11.5305795464949,-300.173574022645
738506.39818574313540011644,-18.5006256294443,-11.5859706411939,-300.145878475295
738506.39818583347368985415,-18.4360026856288,-11.5305795464949,-300.118182927946
738506.39818592392839491367,-18.4821619312113,-11.5767387920774,-300.145878475295
738506.39818601438309997320,-18.4729300820948,-11.5398113956114,-300.155110324412
738506.39818610483780503273,-18.6021759697256,-11.5675069429609,-300.08125553148
738506.39818619529251009226,-18.3621478926969,-11.4844203009125,-300.072023682363
738506.39818628574721515179,-17.9559465315714,-11.475188451796,-299.988937040315
738506.39818637608550488949,-17.5959044160283,-11.7059846797082,-299.859691152684
738506.39818646654020994902,-17.6974547563097,-11.8998535111545,-299.998168889431
738506.39818655699491500854,-18.7868129520554,-11.890621662038,-300.219733268227
738506.39818664744962006807,-18.9160588396863,-11.6598254341258,-300.210501419111
738506.39818673790432512760,-18.8145084994049,-11.5767387920774,-300.090487380596
738506.39818682824261486530,-18.4544663838618,-11.5028839991455,-300.108951078829
738506.39818691869731992483,-18.3436841944639,-11.512115848262,-300.08125553148
738506.39818700915202498436,-18.4175389873959,-11.5675069429609,-300.099719229713
738506.39818709960673004389,-18.4452345347453,-11.5859706411939,-300.08125553148
738506.39818719006143510342,-18.3436841944639,-11.475188451796,-300.108951078829
738506.39818728051614016294,-18.3436841944639,-11.475188451796,-300.08125553148
738506.39818737085442990065,-18.4267708365123,-11.5675069429609,-300.044328135014
738506.39818746130913496017,-18.4544663838618,-11.5859706411939,-300.090487380596
738506.39818755176384001970,-18.4360026856288,-11.5859706411939,-300.090487380596
738506.39818764221854507923,-18.4175389873959,-11.5675069429609,-300.025864436781
738506.39818773267325013876,-18.3529160435804,-11.5028839991455,-300.090487380596
738506.39818782301153987646,-18.2975249488815,-11.456724753563,-300.08125553148
738506.39818791346624493599,-18.3990752891629,-11.5675069429609,-300.025864436781
738506.39818800392094999552,-18.3159886471145,-11.5028839991455,-300.016632587664
738506.39818809437565505505,-18.306756797998,-11.5028839991455,-300.05355998413
738506.39818818483036011457,-18.2605975524155,-11.456724753563,-300.08125553148
738506.39818827528506517410,-18.3529160435804,-11.5582750938444,-300.099719229713
738506.39818836562335491180,-18.3159886471145,-11.512115848262,-300.136646626179
738506.39818845607805997133,-18.2975249488815,-11.5213476973785,-300.08125553148
738506.39818854653276503086,-18.2790612506485,-11.493652150029,-300.05355998413
738506.39818863698747009039,-18.288293099765,-11.512115848262,-299.988937040315
738506.39818872744217514992,-18.2236701559496,-11.456724753563,-299.998168889431
738506.39818881778046488762,-18.1590472121342,-11.4105655079806,-300.044328135014
738506.39818890823516994715,-18.1775109103671,-11.4382610553301,-300.08125553148
738506.39818899868987500668,-18.1221198156682,-11.3921018097476,-299.988937040315
738506.39818908914458006620,-18.1128879665517,-11.4197973570971,-300.007400738548
738506.39818917959928512573,-18.1405835139012,-11.4474929044465,-300.025864436781
738506.39818927005399018526,-18.0574968718528,-11.3736381115146,-300.016632587664
738506.39818936039227992296,-17.9836420789209,-11.3459425641652,-299.942777794732
738506.39818945084698498249,-18.0021057771538,-11.3736381115146,-299.998168889431
738506.39818954130169004202,-17.9559465315714,-11.3551744132817,-299.988937040315
738506.39818963175639510155,-17.909787285989,-11.3182470168157,-299.988937040315
738506.39818972221110016108,-17.9282509842219,-11.3459425641652,-299.979705191198
738506.39818981254938989878,-17.891323587756,-11.3182470168157,-300.007400738548
738506.39818990300409495831,-18.0482650227363,-11.4290292062136,-299.878154850917
738506.39818999345880001783,-18.1498153630177,-11.4844203009125,-299.905850398267
738506.39819008391350507736,-18.2144383068331,-11.493652150029,-300.08125553148
738506.39819017436821013689,-18.269829401532,-11.512115848262,-300.08125553148
738506.39819026482291519642,-18.3529160435804,-11.5675069429609,-300.108951078829
738506.39819035516120493412,-18.4267708365123,-11.6044343394269,-300.062791833247
738506.39819044561590999365,-18.3990752891629,-11.5767387920774,-300.108951078829
738506.39819053607061505318,-18.4452345347453,-11.6228980376598,-300.108951078829
738506.39819062652532011271,-18.4360026856288,-11.5952024903104,-300.118182927946
738506.39819071698002517223,-18.3529160435804,-11.512115848262,-300.099719229713
738506.39819080731831490993,-18.4175389873959,-11.5952024903104,-300.108951078829
738506.39819089777301996946,-18.4175389873959,-11.5767387920774,-300.118182927946
738506.39819098822772502899,-18.4175389873959,-11.5859706411939,-300.072023682363
738506.39819107868243008852,-18.4360026856288,-11.6044343394269,-300.118182927946
738506.39819116913713514805,-18.4267708365123,-11.5952024903104,-300.099719229713
738506.39819125959184020758,-18.3806115909299,-11.5490432447279,-300.062791833247
738506.39819134993012994528,-18.3713797418134,-11.5490432447279,-300.090487380596
738506.39819144038483500481,-18.5006256294443,-11.6598254341258,-300.108951078829
738506.39819153083954006433,-18.4452345347453,-11.6136661885434,-300.08125553148
738506.39819162129424512386,-18.4175389873959,-11.5859706411939,-300.035096285897
738506.39819171174895018339,-18.3990752891629,-11.5675069429609,-300.090487380596
738506.39819180208723992109,-18.4360026856288,-11.6136661885434,-300.127414777062
738506.39819189254194498062,-18.4175389873959,-11.5767387920774,-300.090487380596
738506.39819198299665004015,-18.4083071382794,-11.5767387920774,-300.090487380596
738506.39819207345135509968,-18.4360026856288,-11.5952024903104,-300.062791833247
738506.39819216390606015921,-18.4544663838618,-11.6044343394269,-300.062791833247
738506.39819225436076521873,-18.4544663838618,-11.6136661885434,-300.05355998413
738506.39819234469905495644,-18.4360026856288,-11.6044343394269,-300.05355998413
738506.39819243515376001596,-18.3990752891629,-11.5582750938444,-300.062791833247
738506.39819252560846507549,-18.4452345347453,-11.5952024903104,-300.05355998413
738506.39819261606317013502,-18.4821619312113,-11.6228980376598,-300.08125553148
738506.39819270651787519455,-18.4452345347453,-11.5859706411939,-300.08125553148
738506.39819279685616493225,-18.4913937803278,-11.6321298867763,-300.044328135014
738506.39819288731086999178,-18.4913937803278,-11.6228980376598,-300.007400738548
738506.39819297776557505131,-18.4175389873959,-11.5675069429609,-300.127414777062
738506.39819306822028011084,-18.4452345347453,-11.5767387920774,-300.145878475295
738506.39819315867498517036,-18.4544663838618,-11.5859706411939,-300.099719229713
738506.39819324912969022989,-18.5190893276772,-11.6505935850093,-300.108951078829
738506.39819333946797996759,-18.4360026856288,-11.5767387920774,-300.127414777062
738506.39819342992268502712,-18.5006256294443,-11.6413617358928,-299.961241492965
738506.39819352037739008665,-18.4913937803278,-11.6321298867763,-300.05355998413
738506.39819361083209514618,-18.4913937803278,-11.6321298867763,-300.118182927946
738506.39819370128680020571,-18.4821619312113,-11.6044343394269,-300.127414777062
738506.39819379162508994341,-18.4821619312113,-11.6136661885434,-300.072023682363
738506.39819388207979500294,-18.4821619312113,-11.6321298867763,-300.136646626179
738506.39819397253450006247,-18.5006256294443,-11.6228980376598,-300.118182927946
738506.39819406298920512199,-18.4821619312113,-11.5952024903104,-300.108951078829
738506.39819415344391018152,-18.4636982329783,-11.6044343394269,-300.136646626179
738506.39819424389861524105,-18.4636982329783,-11.5952024903104,-300.118182927946
738506.39819433423690497875,-18.4544663838618,-11.5859706411939,-300.127414777062
738506.39819442469161003828,-18.5006256294443,-11.6413617358928,-300.05355998413
738506.39819451514631509781,-18.4821619312113,-11.6321298867763,-300.127414777062
738506.39819460560102015734,-18.5006256294443,-11.6321298867763,-300.108951078829
738506.39819469605572521687,-18.4544663838618,-11.6136661885434,-300.062791833247
738506.39819478639401495457,-18.4821619312113,-11.6136661885434,-300.127414777062
738506.39819487684872001410,-18.4452345347453,-11.5767387920774,-300.136646626179
738506.39819496730342507362,-18.4729300820948,-11.6228980376598,-300.099719229713
738506.39819505775813013315,-18.5006256294443,-11.6413617358928,-300.136646626179
738506.39819514821283519268,-18.4175389873959,-11.5582750938444,-300.127414777062
738506.39819523855112493038,-18.5283211767937,-11.6782891323588,-300.127414777062
738506.39819532900582998991,-18.5006256294443,-11.6598254341258,-300.108951078829
738506.39819541946053504944,-18.5098574785607,-11.6782891323588,-300.127414777062
738506.39819550991524010897,-18.4913937803278,-11.6505935850093,-300.155110324412
738506.39819560036994516850,-18.4636982329783,-11.6228980376598,-300.118182927946
738506.39819569082465022802,-18.4267708365123,-11.6228980376598,-300.145878475295
738506.39819578116293996572,-18.4544663838618,-11.6782891323588,-300.145878475295
738506.39819587161764502525,-18.3898434400464,-11.6136661885434,-300.072023682363
738506.39819596207235008478,-18.3621478926969,-11.6228980376598,-300.127414777062
738506.39819605252705514431,-18.3436841944639,-11.6136661885434,-300.145878475295
738506.39819614298176020384,-18.306756797998,-11.5952024903104,-300.127414777062
738506.39819623332004994154,-18.288293099765,-11.5859706411939,-300.08125553148
738506.39819632377475500107,-18.2790612506485,-11.5675069429609,-300.072023682363
738506.39819641422946006060,-18.3529160435804,-11.6136661885434,-300.062791833247
738506.39819650468416512012,-18.4636982329783,-11.6413617358928,-300.044328135014
738506.39819659513887017965,-18.4729300820948,-11.6413617358928,-300.062791833247
738506.39819668559357523918,-18.4636982329783,-11.5675069429609,-300.090487380596
738506.39819677593186497688,-18.4913937803278,-11.6228980376598,-300.090487380596
738506.39819686638657003641,-18.5837122714927,-11.7152165288247,-300.108951078829
738506.39819695684127509594,-18.6021759697256,-11.7152165288247,-299.998168889431
738506.39819704729598015547,-18.5837122714927,-11.6690572832423,-300.025864436781
738506.39819713775068521500,-18.5006256294443,-11.6228980376598,-300.08125553148
738506.39819722808897495270,-18.5283211767937,-11.6598254341258,-300.127414777062
738506.39819731854368001223,-18.5190893276772,-11.6505935850093,-300.062791833247
738506.39819740899838507175,-18.5283211767937,-11.6321298867763,-300.072023682363
738506.39819749945309013128,-18.4175389873959,-11.5767387920774,-300.099719229713
738506.39819758990779519081,-18.4083071382794,-11.5675069429609,-300.108951078829
738506.39819768036250025034,-18.5467848750267,-11.6413617358928,-300.05355998413
738506.39819777070078998804,-18.5652485732597,-11.5767387920774,-300.08125553148
738506.39819786115549504757,-18.3344523453475,-11.512115848262,-300.05355998413
738506.39819795161020010710,-18.0944242683187,-11.4844203009125,-300.05355998413
738506.39819804206490516663,-17.6697592089602,-11.6228980376598,-300.044328135014
738506.39819813251961022615,-17.420499282815,-11.9183172093875,-300.025864436781
738506.39819822285789996386,-18.306756797998,-11.9367809076205,-300.201269569994
738506.39819831331260502338,-18.8698995941038,-11.7890713217566,-300.182805871761
738506.39819840376731008291,-18.703726310007,-11.5582750938444,-300.090487380596
738506.39819849422201514244,-18.4821619312113,-11.6321298867763,-300.127414777062
738506.39819858467672020197,-18.3436841944639,-11.5767387920774,-300.173574022645
738506.39819867513142526150,-18.4267708365123,-11.6690572832423,-300.025864436781
738506.39819876546971499920,-18.4729300820948,-11.6967528305918,-300.118182927946
738506.39819885592442005873,-18.3990752891629,-11.5859706411939,-300.108951078829
738506.39819894637912511826,-18.3990752891629,-11.5952024903104,-300.090487380596
738506.39819903683383017778,-18.4175389873959,-11.6321298867763,-300.090487380596
738506.39819912728853523731,-18.4083071382794,-11.6136661885434,-300.127414777062
738506.39819921762682497501,-18.3898434400464,-11.6044343394269,-300.108951078829
738506.39819930808153003454,-18.3990752891629,-11.6228980376598,-300.072023682363
738506.39819939853623509407,-18.3344523453475,-11.5767387920774,-300.099719229713
738506.39819948899094015360,-18.3806115909299,-11.6413617358928,-300.090487380596
738506.39819957944564521313,-18.3436841944639,-11.5952024903104,-300.025864436781
738506.39819966990035027266,-18.325220496231,-11.5859706411939,-300.072023682363
738506.39819976023864001036,-18.3436841944639,-11.6044343394269,-300.08125553148
738506.39819985069334506989,-18.3621478926969,-11.6228980376598,-300.007400738548
738506.39819994114805012941,-18.325220496231,-11.5859706411939,-300.007400738548
738506.39820003160275518894,-18.306756797998,-11.6044343394269,-299.988937040315
738506.39820012205746024847,-18.306756797998,-11.5952024903104,-299.988937040315
738506.39820021239574998617,-18.269829401532,-11.5490432447279,-299.970473342082
738506.39820030285045504570,-18.2329020050661,-11.5398113956114,-299.961241492965
738506.39820039330516010523,-18.2144383068331,-11.5490432447279,-299.988937040315
738506.39820048375986516476,-18.1682790612506,-11.5028839991455,-299.942777794732
738506.39820057421457022429,-18.1682790612506,-11.5305795464949,-299.868923001801
738506.39820066466927528381,-18.0667287209693,-11.4290292062136,-299.988937040315
738506.39820075500756502151,-18.1498153630177,-11.5213476973785,-299.998168889431
738506.39820084546227008104,-18.0759605700858,-11.4844203009125,-300.007400738548
738506.39820093591697514057,-18.0944242683187,-11.4844203009125,-299.988937040315
738506.39820102637168020010,-18.0021057771538,-11.4659566026795,-300.016632587664
738506.39820111682638525963,-17.9374828333384,-11.4197973570971,-299.952009643849
738506.39820120716467499733,-17.9190191351054,-11.3921018097476,-299.9243140965
738506.39820129761938005686,-17.9374828333384,-11.4105655079806,-299.933545945616
738506.39820138807408511639,-17.909787285989,-11.4474929044465,-299.961241492965
738506.39820147852879017591,-17.9374828333384,-11.4474929044465,-299.988937040315
738506.39820156898349523544,-17.9928739280374,-11.4844203009125,-299.988937040315
738506.39820165943820029497,-18.0851924192022,-11.512115848262,-300.044328135014
738506.39820174977649003267,-18.1313516647847,-11.5490432447279,-300.025864436781
738506.39820184023119509220,-18.1498153630177,-11.5213476973785,-300.08125553148
738506.39820193068590015173,-18.2975249488815,-11.6321298867763,-300.035096285897
738506.39820202114060521126,-18.3436841944639,-11.6321298867763,-300.072023682363
738506.39820211159531027079,-18.3529160435804,-11.6413617358928,-300.108951078829
738506.39820220193360000849,-18.3898434400464,-11.6782891323588,-300.099719229713
738506.39820229238830506802,-18.3990752891629,-11.6690572832423,-300.05355998413
738506.39820238284301012754,-18.3806115909299,-11.6413617358928,-300.090487380596
738506.39820247329771518707,-18.3990752891629,-11.6690572832423,-300.099719229713
738506.39820256375242024660,-18.3436841944639,-11.6413617358928,-300.090487380596
738506.39820265420712530613,-18.3898434400464,-11.6321298867763,-300.08125553148
738506.39820274454541504383,-18.3621478926969,-11.6413617358928,-300.108951078829
738506.39820283500012010336,-18.4083071382794,-11.6690572832423,-300.099719229713
738506.39820292545482516289,-18.4175389873959,-11.6875209814753,-300.035096285897
738506.39820301590953022242,-18.3806115909299,-11.6598254341258,-300.090487380596
738506.39820310636423528194,-18.3898434400464,-11.6782891323588,-300.127414777062
738506.39820319670252501965,-18.3344523453475,-11.6044343394269,-300.035096285897
738506.39820328715723007917,-18.4544663838618,-11.7336802270577,-300.108951078829
738506.39820337761193513870,-18.3990752891629,-11.7152165288247,-300.127414777062
738506.39820346806664019823,-18.4452345347453,-11.6967528305918,-300.08125553148
738506.39820355852134525776,-18.3898434400464,-11.6413617358928,-300.044328135014
738506.39820364897605031729,-18.4267708365123,-11.6690572832423,-300.108951078829
738506.39820373931434005499,-18.3990752891629,-11.6782891323588,-300.127414777062
738506.39820382976904511452,-18.3898434400464,-11.6690572832423,-300.016632587664
738506.39820392022375017405,-18.3898434400464,-11.6690572832423,-300.118182927946
738506.39820401067845523357,-18.4083071382794,-11.6782891323588,-300.035096285897
738506.39820410113316029310,-18.3898434400464,-11.6782891323588,-299.970473342082
738506.39820419147145003080,-18.3898434400464,-11.6505935850093,-300.108951078829
738506.39820428192615509033,-18.4175389873959,-11.6782891323588,-300.108951078829
738506.39820437238086014986,-18.4175389873959,-11.6782891323588,-300.108951078829
738506.39820446283556520939,-18.4175389873959,-11.6782891323588,-300.035096285897
738506.39820455329027026892,-18.3990752891629,-11.6136661885434,-300.062791833247
738506.39820464374497532845,-18.4636982329783,-11.7244483779412,-300.05355998413
738506.39820473408326506615,-18.4452345347453,-11.6967528305918,-300.025864436781
738506.39820482453797012568,-18.4821619312113,-11.7336802270577,-299.988937040315
738506.39820491499267518520,-18.4267708365123,-11.6505935850093,-300.035096285897
738506.39820500544738024473,-18.4636982329783,-11.7059846797082,-300.05355998413
738506.39820509590208530426,-18.4729300820948,-11.7336802270577,-300.035096285897
738506.39820518624037504196,-18.4267708365123,-11.6690572832423,-300.016632587664
738506.39820527669508010149,-18.4267708365123,-11.7152165288247,-300.025864436781
738506.39820536714978516102,-18.4360026856288,-11.6782891323588,-300.05355998413
738506.39820545760449022055,-18.4452345347453,-11.6782891323588,-300.072023682363
738506.39820554805919528008,-18.4175389873959,-11.6967528305918,-300.062791833247
738506.39820563851390033960,-18.4175389873959,-11.6505935850093,-300.08125553148
738506.39820572885219007730,-18.4636982329783,-11.6690572832423,-300.062791833247
738506.39820581930689513683,-18.4544663838618,-11.6875209814753,-300.05355998413
738506.39820590976160019636,-18.4267708365123,-11.6598254341258,-300.08125553148
738506.39820600021630525589,-18.4083071382794,-11.6413617358928,-300.108951078829
738506.39820609067101031542,-18.4452345347453,-11.6782891323588,-300.090487380596
738506.39820618100930005312,-18.4360026856288,-11.6690572832423,-300.035096285897
738506.39820627146400511265,-18.4913937803278,-11.7152165288247,-300.090487380596
738506.39820636191871017218,-18.4360026856288,-11.6782891323588,-300.118182927946
738506.39820645237341523170,-18.4175389873959,-11.6598254341258,-300.118182927946
738506.39820654282812029123,-18.4636982329783,-11.6782891323588,-300.025864436781
738506.39820663328282535076,-18.4175389873959,-11.6690572832423,-300.108951078829
738506.39820672362111508846,-18.4452345347453,-11.6690572832423,-300.099719229713
738506.39820681407582014799,-18.3898434400464,-11.6413617358928,-300.099719229713
738506.39820690453052520752,-18.4083071382794,-11.6690572832423,-300.090487380596
738506.39820699498523026705,-18.4452345347453,-11.7244483779412,-300.118182927946
738506.39820708543993532658,-18.4175389873959,-11.6782891323588,-300.118182927946
738506.39820717577822506428,-18.3806115909299,-11.6782891323588,-300.05355998413
738506.39820726623293012381,-18.2605975524155,-11.5952024903104,-300.099719229713
738506.39820735668763518333,-18.2513657032991,-11.6044343394269,-300.090487380596
738506.39820744714234024286,-18.2790612506485,-11.6690572832423,-300.108951078829
738506.39820753759704530239,-18.269829401532,-11.6782891323588,-300.044328135014
738506.39820762793533504009,-18.2329020050661,-11.6228980376598,-300.007400738548
738506.39820771839004009962,-18.2975249488815,-11.6598254341258,-300.090487380596
738506.39820780884474515915,-18.325220496231,-11.6690572832423,-300.08125553148
738506.39820789929945021868,-18.4175389873959,-11.6690572832423,-300.108951078829
738506.39820798975415527821,-18.4452345347453,-11.6690572832423,-300.090487380596
738506.39820808020886033773,-18.4913937803278,-11.6967528305918,-300.025864436781
738506.39820817054715007544,-18.4729300820948,-11.6967528305918,-300.099719229713
738506.39820826100185513496,-18.4913937803278,-11.6967528305918,-300.044328135014
738506.39820835145656019449,-18.4636982329783,-11.6875209814753,-300.05355998413
738506.39820844191126525402,-18.4452345347453,-11.6228980376598,-300.062791833247
738506.39820853236597031355,-18.4729300820948,-11.6875209814753,-300.05355998413
738506.39820862270426005125,-18.5375530259102,-11.7152165288247,-300.05355998413
738506.39820871315896511078,-18.4913937803278,-11.6967528305918,-300.025864436781
738506.39820880361367017031,-18.4544663838618,-11.6598254341258,-300.05355998413
738506.39820889406837522984,-18.4729300820948,-11.6875209814753,-300.072023682363
738506.39820898452308028936,-18.5375530259102,-11.6782891323588,-300.072023682363
738506.39820907497778534889,-18.5098574785607,-11.5859706411939,-300.025864436781
738506.39820916531607508659,-18.3344523453475,-11.5305795464949,-300.035096285897
738506.39820925577078014612,-18.1313516647847,-11.4844203009125,-299.961241492965
738506.39820934622548520565,-17.6328318124943,-11.6044343394269,-299.942777794732
738506.39820943668019026518,-17.3281807916501,-11.8813898129215,-299.988937040315
738506.39820952713489532471,-18.0944242683187,-12.0106357005524,-300.136646626179
738506.39820961747318506241,-18.740653706473,-11.8167668691061,-300.173574022645
738506.39820970792789012194,-18.6760307626576,-11.6690572832423,-300.007400738548
738506.39820979838259518147,-18.4267708365123,-11.6228980376598,-300.072023682363
738506.39820988883730024099,-18.269829401532,-11.5490432447279,-300.05355998413
738506.39820997929200530052,-18.4360026856288,-11.6967528305918,-300.007400738548
738506.39821006974671036005,-18.4083071382794,-11.6598254341258,-299.998168889431
738506.39821016008500009775,-18.4083071382794,-11.6505935850093,-300.016632587664
738506.39821025053970515728,-18.3621478926969,-11.6136661885434,-299.979705191198
738506.39821034099441021681,-18.4175389873959,-11.6782891323588,-299.998168889431
738506.39821043144911527634,-18.3990752891629,-11.6413617358928,-299.970473342082
738506.39821052190382033587,-18.3621478926969,-11.6044343394269,-299.998168889431
738506.39821061224211007357,-18.3713797418134,-11.6321298867763,-300.035096285897
738506.39821070269681513309,-18.325220496231,-11.5859706411939,-300.044328135014
738506.39821079315152019262,-18.3159886471145,-11.5859706411939,-300.062791833247
738506.39821088360622525215,-18.3529160435804,-11.6228980376598,-300.08125553148
738506.39821097406093031168,-18.3159886471145,-11.6136661885434,-300.08125553148
738506.39821106451563537121,-18.3344523453475,-11.6136661885434,-299.998168889431
738506.39821115485392510891,-18.325220496231,-11.6044343394269,-299.942777794732
738506.39821124530863016844,-18.2790612506485,-11.6044343394269,-300.090487380596
738506.39821133576333522797,-18.2790612506485,-11.5859706411939,-300.062791833247
738506.39821142621804028749,-18.2605975524155,-11.5952024903104,-300.035096285897
738506.39821151667274534702,-18.2605975524155,-11.5767387920774,-300.08125553148
738506.39821160701103508472,-18.2144383068331,-11.5582750938444,-300.05355998413
738506.39821169746574014425,-18.2144383068331,-11.5675069429609,-299.988937040315
738506.39821178792044520378,-18.2144383068331,-11.5859706411939,-300.016632587664
738506.39821187837515026331,-18.1498153630177,-11.5213476973785,-300.062791833247
738506.39821196882985532284,-18.1221198156682,-11.512115848262,-300.035096285897
738506.39821205928456038237,-18.0759605700858,-11.475188451796,-299.979705191198
738506.39821214962285012007,-18.0574968718528,-11.475188451796,-300.007400738548
738506.39821224007755517960,-18.0021057771538,-11.475188451796,-300.035096285897
738506.39821233053226023912,-17.9928739280374,-11.475188451796,-299.915082247383
738506.39821242098696529865,-17.909787285989,-11.3921018097476,-300.007400738548
738506.39821251144167035818,-17.9005554368725,-11.4197973570971,-299.998168889431
738506.39821260177996009588,-17.9190191351054,-11.456724753563,-299.998168889431
738506.39821269223466515541,-17.891323587756,-11.4382610553301,-299.961241492965
738506.39821278268937021494,-17.9282509842219,-11.456724753563,-299.9243140965
738506.39821287314407527447,-17.9928739280374,-11.493652150029,-299.961241492965
738506.39821296359878033400,-18.0390331736198,-11.5398113956114,-299.952009643849
738506.39821305405348539352,-18.1498153630177,-11.5767387920774,-299.988937040315
738506.39821314439177513123,-18.1775109103671,-11.5767387920774,-299.998168889431
738506.39821323484648019075,-18.3159886471145,-11.6598254341258,-300.05355998413
738506.39821332530118525028,-18.3159886471145,-11.6598254341258,-300.007400738548
738506.39821341575589030981,-18.3529160435804,-11.6505935850093,-300.05355998413
738506.39821350621059536934,-18.3621478926969,-11.6505935850093,-300.016632587664
738506.39821359654888510704,-18.3529160435804,-11.6228980376598,-300.044328135014
738506.39821368700359016657,-18.4083071382794,-11.6782891323588,-300.05355998413
738506.39821377745829522610,-18.4083071382794,-11.6967528305918,-300.08125553148
738506.39821386791300028563,-18.4175389873959,-11.7059846797082,-300.118182927946
738506.39821395836770534515,-18.3621478926969,-11.6598254341258,-300.025864436781
738506.39821404882241040468,-18.3529160435804,-11.6413617358928,-300.044328135014
738506.39821413916070014238,-18.3990752891629,-11.6967528305918,-300.035096285897
738506.39821422961540520191,-18.3990752891629,-11.6967528305918,-300.108951078829
738506.39821432007011026144,-18.3990752891629,-11.6967528305918,-300.108951078829
738506.39821441052481532097,-18.3898434400464,-11.6875209814753,-300.007400738548
738506.39821450097952038050,-18.3436841944639,-11.6228980376598,-300.025864436781
738506.39821459131781011820,-18.3806115909299,-11.6413617358928,-299.841227454451
738506.39821468177251517773,-18.325220496231,-11.6321298867763,-299.970473342082
738506.39821477222722023726,-18.3529160435804,-11.6321298867763,-300.090487380596
738506.39821486268192529678,-18.3621478926969,-11.6413617358928,-300.090487380596
738506.39821495313663035631,-18.4175389873959,-11.7059846797082,-300.108951078829
738506.39821504359133541584,-18.4360026856288,-11.7152165288247,-300.044328135014
738506.39821513392962515354,-18.4083071382794,-11.6875209814753,-300.08125553148
738506.39821522438433021307,-18.4083071382794,-11.6690572832423,-300.08125553148
738506.39821531483903527260,-18.4175389873959,-11.6875209814753,-300.044328135014
738506.39821540529374033213,-18.4083071382794,-11.6967528305918,-300.007400738548
738506.39821549574844539165,-18.4083071382794,-11.6690572832423,-299.998168889431
738506.39821558608673512936,-18.3898434400464,-11.6413617358928,-299.988937040315
738506.39821567654144018888,-18.4083071382794,-11.6690572832423,-299.998168889431
738506.39821576699614524841,-18.3621478926969,-11.6321298867763,-300.05355998413
738506.39821585745085030794,-18.4083071382794,-11.6782891323588,-300.08125553148
738506.39821594790555536747,-18.4360026856288,-11.6967528305918,-300.072023682363
738506.39821603836026042700,-18.4175389873959,-11.6967528305918,-300.090487380596
738506.39821612869855016470,-18.3806115909299,-11.6321298867763,-300.072023682363
738506.39821621915325522423,-18.4636982329783,-11.7244483779412,-300.05355998413
738506.39821630960796028376,-18.4729300820948,-11.7152165288247,-300.127414777062
738506.39821640006266534328,-18.4360026856288,-11.6875209814753,-300.099719229713
738506.39821649051737040281,-18.3990752891629,-11.6413617358928,-300.062791833247
738506.39821658085566014051,-18.4452345347453,-11.6875209814753,-300.072023682363
738506.39821667131036520004,-18.4636982329783,-11.7152165288247,-300.108951078829
738506.39821676176507025957,-18.4544663838618,-11.7152165288247,-300.118182927946
738506.39821685221977531910,-18.4360026856288,-11.7152165288247,-300.025864436781
738506.39821694267448037863,-18.4452345347453,-11.6967528305918,-300.090487380596
738506.39821703312918543816,-18.4544663838618,-11.7244483779412,-300.044328135014
738506.39821712346747517586,-18.4544663838618,-11.7059846797082,-300.035096285897
738506.39821721392218023539,-18.4729300820948,-11.7521439252907,-300.025864436781
738506.39821730437688529491,-18.4452345347453,-11.6967528305918,-300.044328135014
738506.39821739483159035444,-18.3990752891629,-11.6598254341258,-300.035096285897
738506.39821748528629541397,-18.5190893276772,-11.7798394726402,-300.08125553148
738506.39821757562458515167,-18.5744804223762,-11.8352305673391,-300.05355998413
738506.39821766607929021120,-18.5375530259102,-11.8075350199896,-300.08125553148
738506.39821775653399527073,-18.6114078188421,-11.872157963805,-300.025864436781
738506.39821784698870033026,-18.5560167241432,-11.7983031708731,-300.099719229713
738506.39821793744340538979,-18.5837122714927,-11.8536942655721,-300.118182927946
738506.39821802789811044931,-18.5283211767937,-11.8075350199896,-300.05355998413
738506.39821811823640018702,-18.5929441206091,-11.8813898129215,-299.942777794732
738506.39821820869110524654,-18.5467848750267,-11.8352305673391,-300.044328135014
738506.39821829914581030607,-18.4729300820948,-11.7983031708731,-300.062791833247
738506.39821838960051536560,-18.4544663838618,-11.8536942655721,-300.05355998413
738506.39821848005522042513,-18.4821619312113,-11.872157963805,-300.090487380596
738506.39821857039351016283,-18.3990752891629,-11.8167668691061,-300.090487380596
738506.39821866084821522236,-18.3898434400464,-11.8075350199896,-300.136646626179
738506.39821875130292028189,-18.4636982329783,-11.8352305673391,-299.998168889431
738506.39821884175762534142,-18.4729300820948,-11.7983031708731,-300.05355998413
738506.39821893221233040094,-18.6021759697256,-11.890621662038,-300.044328135014
738506.39821902266703546047,-18.6206396679586,-11.8629261146886,-300.062791833247
738506.39821911300532519817,-18.6667989135411,-11.8813898129215,-300.090487380596
738506.39821920346003025770,-18.6667989135411,-11.8536942655721,-300.145878475295
738506.39821929391473531723,-18.6760307626576,-11.8536942655721,-300.05355998413
738506.39821938436944037676,-18.685262611774,-11.8813898129215,-300.118182927946
738506.39821947482414543629,-18.6575670644246,-11.8629261146886,-300.127414777062
738506.39821956516243517399,-18.6667989135411,-11.8536942655721,-300.090487380596
738506.39821965561714023352,-18.685262611774,-11.8629261146886,-300.099719229713
738506.39821974607184529305,-18.6667989135411,-11.8444624164556,-300.127414777062
738506.39821983652655035257,-18.6944944608905,-11.8998535111545,-300.08125553148
738506.39821992698125541210,-18.685262611774,-11.872157963805,-300.108951078829
738506.39822001743596047163,-18.7129581591235,-11.8444624164556,-300.145878475295
738506.39822010777425020933,-18.7129581591235,-11.7613757744072,-300.118182927946
738506.39822019822895526886,-18.5467848750267,-11.6967528305918,-300.044328135014
738506.39822028868366032839,-18.1590472121342,-11.6598254341258,-299.998168889431
738506.39822037913836538792,-17.6789910580767,-11.8536942655721,-300.035096285897
738506.39822046959307044744,-17.5035859248634,-12.0106357005524,-300.035096285897
738506.39822055993136018515,-18.0944242683187,-12.1860408337657,-300.155110324412
738506.39822065038606524467,-18.9437543870357,-12.1029541917173,-300.210501419111
738506.39822074084077030420,-18.8698995941038,-11.8075350199896,-300.155110324412
738506.39822083129547536373,-18.6298715170751,-11.7706076235237,-300.08125553148
738506.39822092175018042326,-18.5098574785607,-11.7706076235237,-300.118182927946
738506.39822101208847016096,-18.5652485732597,-11.7798394726402,-300.108951078829
738506.39822110254317522049,-18.5744804223762,-11.7613757744072,-300.072023682363
738506.39822119299788028002,-18.5652485732597,-11.7613757744072,-300.108951078829
738506.39822128345258533955,-18.5652485732597,-11.7613757744072,-299.952009643849
738506.39822137390729039907,-18.5283211767937,-11.7521439252907,-300.044328135014
738506.39822146436199545860,-18.5652485732597,-11.7983031708731,-300.016632587664
738506.39822155470028519630,-18.5929441206091,-11.7983031708731,-300.025864436781
738506.39822164515499025583,-18.5652485732597,-11.7890713217566,-299.89661854915
738506.39822173560969531536,-18.5375530259102,-11.7798394726402,-299.942777794732
738506.39822182606440037489,-18.5190893276772,-11.7613757744072,-300.016632587664
738506.39822191651910543442,-18.5190893276772,-11.7613757744072,-300.044328135014
738506.39822200685739517212,-18.5098574785607,-11.7613757744072,-300.025864436781
738506.39822209731210023165,-18.4913937803278,-11.7336802270577,-300.035096285897
738506.39822218776680529118,-18.4729300820948,-11.7336802270577,-300.025864436781
738506.39822227822151035070,-18.4729300820948,-11.7336802270577,-300.062791833247
738506.39822236867621541023,-18.4821619312113,-11.7336802270577,-300.025864436781
738506.39822245913092046976,-18.4452345347453,-11.7244483779412,-300.05355998413
738506.39822254946921020746,-18.4267708365123,-11.6967528305918,-300.090487380596
738506.39822263992391526699,-18.4083071382794,-11.6690572832423,-300.05355998413
738506.39822273037862032652,-18.4267708365123,-11.6967528305918,-299.998168889431
738506.39822282083332538605,-18.3621478926969,-11.6505935850093,-300.072023682363
738506.39822291128803044558,-18.3529160435804,-11.6598254341258,-300.090487380596
738506.39822300162632018328,-18.3344523453475,-11.6505935850093,-299.961241492965
738506.39822309208102524281,-18.269829401532,-11.5952024903104,-300.035096285897
738506.39822318253573030233,-18.2329020050661,-11.6044343394269,-300.044328135014
738506.39822327299043536186,-18.2052064577166,-11.5767387920774,-299.979705191198
738506.39822336344514042139,-18.1775109103671,-11.5582750938444,-299.998168889431
738506.39822345389984548092,-18.1405835139012,-11.5398113956114,-299.952009643849
738506.39822354423813521862,-18.1221198156682,-11.5490432447279,-299.9243140965
738506.39822363469284027815,-18.0851924192022,-11.5213476973785,-299.933545945616
738506.39822372514754533768,-18.1221198156682,-11.5582750938444,-299.933545945616
738506.39822381560225039721,-18.1405835139012,-11.5582750938444,-299.998168889431
738506.39822390605695545673,-18.2236701559496,-11.6136661885434,-299.933545945616
738506.39822399639524519444,-18.288293099765,-11.6321298867763,-300.08125553148
738506.39822408684995025396,-18.3806115909299,-11.6782891323588,-300.072023682363
738506.39822417730465531349,-18.4821619312113,-11.7336802270577,-300.090487380596
738506.39822426775936037302,-18.5283211767937,-11.7521439252907,-300.035096285897
738506.39822435821406543255,-18.5467848750267,-11.7706076235237,-300.099719229713
738506.39822444866877049208,-18.5837122714927,-11.7706076235237,-300.155110324412
738506.39822453900706022978,-18.6021759697256,-11.7983031708731,-300.05355998413
738506.39822462946176528931,-18.5837122714927,-11.7613757744072,-300.127414777062
738506.39822471991647034883,-18.6298715170751,-11.7706076235237,-300.136646626179
738506.39822481037117540836,-18.5929441206091,-11.7521439252907,-300.108951078829
738506.39822490082588046789,-18.6021759697256,-11.7706076235237,-300.08125553148
738506.39822499116417020559,-18.6021759697256,-11.7613757744072,-300.173574022645
738506.39822508161887526512,-18.6206396679586,-11.7706076235237,-300.118182927946
738506.39822517207358032465,-18.6021759697256,-11.7429120761742,-299.942777794732
738506.39822526252828538418,-18.6114078188421,-11.7613757744072,-300.016632587664
738506.39822535298299044371,-18.5929441206091,-11.7429120761742,-300.155110324412
738506.39822544343769550323,-18.6206396679586,-11.7613757744072,-300.08125553148
738506.39822553377598524094,-18.6114078188421,-11.7521439252907,-300.136646626179
738506.39822562423069030046,-18.6021759697256,-11.7521439252907,-300.118182927946
738506.39822571468539535999,-18.6021759697256,-11.7613757744072,-300.118182927946
738506.39822580514010041952,-18.6021759697256,-11.7613757744072,-300.108951078829
738506.39822589559480547905,-18.6021759697256,-11.7613757744072,-300.155110324412
738506.39822598593309521675,-18.6206396679586,-11.7613757744072,-300.145878475295
738506.39822607638780027628,-18.6114078188421,-11.7613757744072,-300.090487380596
738506.39822616684250533581,-18.5929441206091,-11.7429120761742,-300.108951078829
738506.39822625729721039534,-18.6114078188421,-11.7613757744072,-300.136646626179
738506.39822634775191545486,-18.6114078188421,-11.7429120761742,-300.108951078829
738506.39822643820662051439,-18.6021759697256,-11.7429120761742,-300.090487380596
738506.39822652854491025209,-18.6114078188421,-11.7429120761742,-300.062791833247
738506.39822661899961531162,-18.6114078188421,-11.7429120761742,-300.062791833247
738506.39822670945432037115,-18.6021759697256,-11.7336802270577,-300.08125553148
738506.39822679990902543068,-18.6114078188421,-11.7429120761742,-300.099719229713
738506.39822689036373049021,-18.6206396679586,-11.7521439252907,-300.108951078829
738506.39822698070202022791,-18.6114078188421,-11.7429120761742,-300.062791833247
738506.39822707115672528744,-18.6206396679586,-11.7429120761742,-300.044328135014
738506.39822716161143034697,-18.6206396679586,-11.7336802270577,-300.044328135014
738506.39822725206613540649,-18.6298715170751,-11.7521439252907,-300.05355998413
738506.39822734252084046602,-18.6206396679586,-11.7336802270577,-300.035096285897
738506.39822743297554552555,-18.6206396679586,-11.7429120761742,-300.035096285897
738506.39822752331383526325,-18.6206396679586,-11.7244483779412,-300.072023682363
738506.39822761376854032278,-18.6298715170751,-11.7429120761742,-300.118182927946
738506.39822770422324538231,-18.6206396679586,-11.7244483779412,-300.127414777062
738506.39822779467795044184,-18.6298715170751,-11.7336802270577,-300.118182927946
738506.39822788513265550137,-18.6206396679586,-11.7152165288247,-300.192037720878
738506.39822797547094523907,-18.6298715170751,-11.7244483779412,-300.145878475295
738506.39822806592565029860,-18.6298715170751,-11.7244483779412,-300.136646626179
738506.39822815638035535812,-18.6298715170751,-11.7336802270577,-300.136646626179
738506.39822824683506041765,-18.6391033661916,-11.7336802270577,-300.155110324412
738506.39822833728976547718,-18.6391033661916,-11.7336802270577,-300.164342173528
738506.39822842774447053671,-18.6575670644246,-11.7429120761742,-300.164342173528
738506.39822851808276027441,-18.6391033661916,-11.7244483779412,-300.182805871761
738506.39822860853746533394,-18.6391033661916,-11.7244483779412,-300.164342173528
738506.39822869899217039347,-18.6206396679586,-11.7059846797082,-300.035096285897
738506.39822878944687545300,-18.6298715170751,-11.7152165288247,-300.05355998413
738506.39822887990158051252,-18.6206396679586,-11.6875209814753,-300.164342173528
738506.39822897023987025023,-18.6206396679586,-11.7059846797082,-300.099719229713
738506.39822906069457530975,-18.6206396679586,-11.7059846797082,-300.173574022645
738506.39822915114928036928,-18.5744804223762,-11.7059846797082,-300.127414777062
738506.39822924160398542881,-18.5006256294443,-11.6782891323588,-300.108951078829
738506.39822933205869048834,-18.5006256294443,-11.7152165288247,-300.118182927946
738506.39822942251339554787,-18.5006256294443,-11.6875209814753,-300.016632587664
738506.39822951285168528557,-18.4452345347453,-11.6782891323588,-300.05355998413
738506.39822960330639034510,-18.4175389873959,-11.6228980376598,-300.099719229713
738506.39822969376109540462,-18.5375530259102,-11.6875209814753,-300.08125553148
738506.39822978421580046415,-18.6114078188421,-11.7152165288247,-300.099719229713
738506.39822987467050552368,-18.6391033661916,-11.7336802270577,-300.108951078829
738506.39822996500879526138,-18.6944944608905,-11.7521439252907,-300.099719229713
738506.39823005546350032091,-18.703726310007,-11.7429120761742,-300.08125553148
738506.39823014591820538044,-18.7498855555895,-11.7613757744072,-300.108951078829
738506.39823023637291043997,-18.703726310007,-11.7244483779412,-300.090487380596
738506.39823032682761549950,-18.7129581591235,-11.7336802270577,-300.044328135014
738506.39823041728232055902,-18.703726310007,-11.7059846797082,-300.062791833247
738506.39823050762061029673,-18.7314218573565,-11.7336802270577,-300.016632587664
738506.39823059807531535625,-18.6667989135411,-11.6782891323588,-300.08125553148
738506.39823068853002041578,-18.6667989135411,-11.6967528305918,-300.072023682363
738506.39823077898472547531,-18.7314218573565,-11.7429120761742,-300.099719229713
738506.39823086943943053484,-18.7960448011719,-11.8167668691061,-300.136646626179
738506.39823095977772027254,-18.7683492538224,-11.7059846797082,-300.136646626179
738506.39823105023242533207,-18.740653706473,-11.6413617358928,-300.136646626179
738506.39823114068713039160,-18.4913937803278,-11.5582750938444,-300.016632587664
738506.39823123114183545113,-18.0298013245033,-11.5767387920774,-300.025864436781
738506.39823132159654051065,-17.5774407177953,-11.7706076235237,-300.062791833247
738506.39823141205124557018,-18.2052064577166,-12.0660267952513,-300.090487380596
738506.39823150238953530788,-19.156086916715,-12.0475630970183,-300.275124362926
738506.39823159284424036741,-19.0914639728996,-11.7798394726402,-300.173574022645
738506.39823168329894542694,-18.8237403485214,-11.6413617358928,-300.155110324412
738506.39823177375365048647,-18.703726310007,-11.6321298867763,-300.05355998413
738506.39823186420835554600,-18.6483352153081,-11.6690572832423,-300.127414777062
738506.39823195454664528370,-18.6298715170751,-11.6505935850093,-300.145878475295
738506.39823204500135034323,-18.6483352153081,-11.6690572832423,-300.099719229713
738506.39823213545605540276,-18.6206396679586,-11.6505935850093,-300.108951078829
738506.39823222591076046228,-18.6298715170751,-11.6505935850093,-300.05355998413
738506.39823231636546552181,-18.6114078188421,-11.6321298867763,-300.016632587664
738506.39823240682017058134,-18.5744804223762,-11.6044343394269,-299.998168889431
738506.39823249715846031904,-18.5744804223762,-11.6136661885434,-300.118182927946
738506.39823258761316537857,-18.5560167241432,-11.6228980376598,-300.118182927946
738506.39823267806787043810,-18.5467848750267,-11.6136661885434,-300.136646626179
738506.39823276852257549763,-18.5652485732597,-11.6044343394269,-300.099719229713
738506.39823285897728055716,-18.5283211767937,-11.6044343394269,-300.062791833247
738506.39823294931557029486,-18.5190893276772,-11.5859706411939,-300.118182927946
738506.39823303977027535439,-18.5098574785607,-11.5859706411939,-300.090487380596
738506.39823313022498041391,-18.5006256294443,-11.5767387920774,-300.08125553148
738506.39823322067968547344,-18.4913937803278,-11.5767387920774,-300.044328135014
738506.39823331113439053297,-18.4636982329783,-11.5675069429609,-300.090487380596
738506.39823340147268027067,-18.4544663838618,-11.5675069429609,-300.072023682363
738506.39823349192738533020,-18.4360026856288,-11.5490432447279,-300.072023682363
738506.39823358238209038973,-18.4175389873959,-11.5490432447279,-300.035096285897
738506.39823367283679544926,-18.3990752891629,-11.5305795464949,-300.072023682363
738506.39823376329150050879,-18.3806115909299,-11.5213476973785,-300.062791833247
738506.39823385374620556831,-18.3529160435804,-11.5028839991455,-300.035096285897
738506.39823394408449530602,-18.3159886471145,-11.4844203009125,-300.044328135014
738506.39823403453920036554,-18.2975249488815,-11.4659566026795,-299.988937040315
738506.39823412499390542507,-18.2605975524155,-11.456724753563,-300.007400738548
738506.39823421544861048460,-18.2236701559496,-11.4474929044465,-299.988937040315
738506.39823430590331554413,-18.2052064577166,-11.4290292062136,-299.998168889431
738506.39823439624160528183,-18.1775109103671,-11.4290292062136,-299.988937040315
738506.39823448669631034136,-18.1590472121342,-11.4197973570971,-299.979705191198
738506.39823457715101540089,-18.1498153630177,-11.4382610553301,-299.988937040315
738506.39823466760572046041,-18.1590472121342,-11.4474929044465,-299.961241492965
738506.39823475806042551994,-18.2144383068331,-11.475188451796,-299.942777794732
738506.39823484851513057947,-18.269829401532,-11.5028839991455,-300.007400738548
738506.39823493885342031717,-18.3529160435804,-11.5767387920774,-300.007400738548
738506.39823502930812537670,-18.3990752891629,-11.5952024903104,-300.035096285897
738506.39823511976283043623,-18.4729300820948,-11.6321298867763,-300.016632587664
738506.39823521021753549576,-18.5098574785607,-11.6321298867763,-300.118182927946
738506.39823530067224055529,-18.5467848750267,-11.6505935850093,-300.108951078829
738506.39823539101053029299,-18.5467848750267,-11.6321298867763,-300.099719229713
738506.39823548146523535252,-18.5744804223762,-11.6505935850093,-300.099719229713
738506.39823557191994041204,-18.5652485732597,-11.6413617358928,-300.164342173528
738506.39823566237464547157,-18.5652485732597,-11.6413617358928,-300.145878475295
738506.39823575282935053110,-18.5652485732597,-11.6505935850093,-300.035096285897
738506.39823584328405559063,-18.5652485732597,-11.6321298867763,-300.025864436781
738506.39823593362234532833,-18.5560167241432,-11.6321298867763,-300.136646626179
738506.39823602407705038786,-18.5467848750267,-11.6321298867763,-300.08125553148
738506.39823611453175544739,-18.5560167241432,-11.6321298867763,-300.118182927946
738506.39823620498646050692,-18.5467848750267,-11.6228980376598,-300.182805871761
738506.39823629544116556644,-18.5467848750267,-11.6321298867763,-300.044328135014
738506.39823638577945530415,-18.5467848750267,-11.6228980376598,-300.127414777062
738506.39823647623416036367,-18.5560167241432,-11.6413617358928,-300.108951078829
738506.39823656668886542320,-18.5467848750267,-11.6228980376598,-300.08125553148
738506.39823665714357048273,-18.5560167241432,-11.6321298867763,-300.099719229713
738506.39823674759827554226,-18.5560167241432,-11.6228980376598,-300.118182927946
738506.39823683805298060179,-18.5467848750267,-11.6321298867763,-300.090487380596
738506.39823692839127033949,-18.5467848750267,-11.6228980376598,-300.072023682363
738506.39823701884597539902,-18.5744804223762,-11.6321298867763,-300.099719229713
738506.39823710930068045855,-18.5560167241432,-11.6321298867763,-300.108951078829
738506.39823719975538551807,-18.5744804223762,-11.6413617358928,-300.035096285897
738506.39823729021009057760,-18.5652485732597,-11.6413617358928,-300.118182927946
738506.39823738054838031530,-18.5652485732597,-11.6413617358928,-300.127414777062
738506.39823747100308537483,-18.5837122714927,-11.6505935850093,-300.099719229713
738506.39823756145779043436,-18.5837122714927,-11.6413617358928,-300.08125553148
738506.39823765191249549389,-18.6021759697256,-11.6505935850093,-300.108951078829
738506.39823774236720055342,-18.5837122714927,-11.6321298867763,-300.118182927946
738506.39823783282190561295,-18.5929441206091,-11.6505935850093,-300.035096285897
738506.39823792316019535065,-18.5837122714927,-11.6413617358928,-300.118182927946
738506.39823801361490041018,-18.6021759697256,-11.6505935850093,-300.099719229713
738506.39823810406960546970,-18.5837122714927,-11.6413617358928,-300.072023682363
738506.39823819452431052923,-18.6021759697256,-11.6598254341258,-300.108951078829
738506.39823828497901558876,-18.5837122714927,-11.6413617358928,-300.118182927946
738506.39823837531730532646,-18.5929441206091,-11.6505935850093,-300.05355998413
738506.39823846577201038599,-18.5744804223762,-11.6413617358928,-300.072023682363
738506.39823855622671544552,-18.5929441206091,-11.6505935850093,-300.044328135014
738506.39823864668142050505,-18.5744804223762,-11.6413617358928,-300.099719229713
738506.39823873713612556458,-18.5744804223762,-11.6690572832423,-300.08125553148
738506.39823882759083062410,-18.5467848750267,-11.6505935850093,-300.062791833247
738506.39823891792912036180,-18.5467848750267,-11.6413617358928,-300.090487380596
738506.39823900838382542133,-18.5098574785607,-11.6321298867763,-300.108951078829
738506.39823909883853048086,-18.4544663838618,-11.6321298867763,-300.164342173528
738506.39823918929323554039,-18.4267708365123,-11.6321298867763,-300.099719229713
738506.39823927974794059992,-18.4175389873959,-11.6321298867763,-300.08125553148
738506.39823937008623033762,-18.3898434400464,-11.6321298867763,-300.016632587664
738506.39823946054093539715,-18.4083071382794,-11.6136661885434,-300.127414777062
738506.39823955099564045668,-18.4913937803278,-11.6321298867763,-300.072023682363
738506.39823964145034551620,-18.5375530259102,-11.6321298867763,-300.145878475295
738506.39823973190505057573,-18.5837122714927,-11.6505935850093,-300.155110324412
738506.39823982235975563526,-18.6021759697256,-11.6505935850093,-300.062791833247
738506.39823991269804537296,-18.6298715170751,-11.6598254341258,-300.118182927946
738506.39824000315275043249,-18.6298715170751,-11.6505935850093,-300.155110324412
738506.39824009360745549202,-18.6298715170751,-11.6505935850093,-300.136646626179
738506.39824018406216055155,-18.6298715170751,-11.6690572832423,-300.099719229713
738506.39824027451686561108,-18.6298715170751,-11.6505935850093,-300.127414777062
738506.39824036485515534878,-18.6391033661916,-11.6598254341258,-300.05355998413
738506.39824045530986040831,-18.6298715170751,-11.6505935850093,-300.05355998413
738506.39824054576456546783,-18.6298715170751,-11.6598254341258,-300.05355998413
738506.39824063621927052736,-18.6114078188421,-11.6505935850093,-300.05355998413
738506.39824072667397558689,-18.6298715170751,-11.6598254341258,-300.072023682363
738506.39824081712868064642,-18.6667989135411,-11.5859706411939,-300.08125553148
738506.39824090746697038412,-18.5375530259102,-11.5305795464949,-300.08125553148
738506.39824099792167544365,-18.1498153630177,-11.4474929044465,-300.016632587664
738506.39824108837638050318,-17.7251503036592,-11.5859706411939,-299.979705191198
738506.39824117883108556271,-17.5312814722129,-11.7336802270577,-300.025864436781
738506.39824126928579062223,-17.9836420789209,-11.9737083040864,-300.127414777062
738506.39824135962408035994,-19.0268410290841,-11.9921720023194,-300.247428815577
738506.39824145007878541946,-18.9991454817347,-11.7244483779412,-300.164342173528
738506.39824154053349047899,-18.7129581591235,-11.5952024903104,-300.099719229713
738506.39824163098819553852,-18.5190893276772,-11.5859706411939,-300.08125553148
738506.39824172144290059805,-18.5190893276772,-11.6136661885434,-300.072023682363
738506.39824181189760565758,-18.5190893276772,-11.6044343394269,-300.099719229713
738506.39824190223589539528,-18.5190893276772,-11.6136661885434,-300.090487380596
738506.39824199269060045481,-18.5190893276772,-11.6044343394269,-300.062791833247
738506.39824208314530551434,-18.5190893276772,-11.6044343394269,-300.072023682363
738506.39824217360001057386,-18.5006256294443,-11.6044343394269,-300.08125553148
738506.39824226405471563339,-18.5006256294443,-11.6136661885434,-300.035096285897
738506.39824235439300537109,-18.4821619312113,-11.5859706411939,-300.08125553148
738506.39824244484771043062,-18.4729300820948,-11.6044343394269,-300.062791833247
738506.39824253530241549015,-18.4636982329783,-11.5859706411939,-300.035096285897
738506.39824262575712054968,-18.4636982329783,-11.5952024903104,-300.062791833247
738506.39824271621182560921,-18.4360026856288,-11.5675069429609,-300.035096285897
738506.39824280666653066874,-18.4360026856288,-11.5767387920774,-299.859691152684
738506.39824289700482040644,-18.4083071382794,-11.5582750938444,-299.933545945616
738506.39824298745952546597,-18.3990752891629,-11.5675069429609,-299.988937040315
738506.39824307791423052549,-18.3806115909299,-11.5490432447279,-299.988937040315
738506.39824316836893558502,-18.3621478926969,-11.5398113956114,-300.05355998413
738506.39824325882364064455,-18.3621478926969,-11.5490432447279,-300.007400738548
738506.39824334916193038225,-18.3344523453475,-11.5305795464949,-300.062791833247
738506.39824343961663544178,-18.325220496231,-11.5305795464949,-299.988937040315
738506.39824353007134050131,-18.2975249488815,-11.5028839991455,-300.035096285897
738506.39824362052604556084,-18.2790612506485,-11.5028839991455,-299.979705191198
738506.39824371098075062037,-18.2329020050661,-11.475188451796,-300.016632587664
738506.39824380143545567989,-18.2052064577166,-11.475188451796,-299.988937040315
738506.39824389177374541759,-18.1775109103671,-11.4474929044465,-300.044328135014
738506.39824398222845047712,-18.1405835139012,-11.4290292062136,-300.007400738548
738506.39824407268315553665,-18.0944242683187,-11.4013336588641,-299.970473342082
738506.39824416313786059618,-18.0759605700858,-11.4197973570971,-299.915082247383
738506.39824425359256565571,-18.0298013245033,-11.3921018097476,-299.942777794732
738506.39824434393085539341,-18.0390331736198,-11.4013336588641,-299.915082247383
738506.39824443438556045294,-18.0390331736198,-11.4013336588641,-299.942777794732
738506.39824452484026551247,-18.0851924192022,-11.4382610553301,-299.942777794732
738506.39824461529497057199,-18.1498153630177,-11.475188451796,-299.970473342082
738506.39824470574967563152,-18.2329020050661,-11.5213476973785,-299.998168889431
738506.39824479620438069105,-18.306756797998,-11.5582750938444,-300.007400738548
738506.39824488654267042875,-18.3344523453475,-11.5582750938444,-300.072023682363
738506.39824497699737548828,-18.4083071382794,-11.5952024903104,-300.08125553148
738506.39824506745208054781,-18.4360026856288,-11.6136661885434,-300.136646626179
738506.39824515790678560734,-18.4729300820948,-11.6321298867763,-300.035096285897
738506.39824524836149066687,-18.4729300820948,-11.6321298867763,-300.155110324412
738506.39824533869978040457,-18.4913937803278,-11.6505935850093,-300.118182927946
738506.39824542915448546410,-18.4821619312113,-11.6321298867763,-300.062791833247
738506.39824551960919052362,-18.4913937803278,-11.6598254341258,-300.099719229713
738506.39824561006389558315,-18.4821619312113,-11.6413617358928,-300.127414777062
738506.39824570051860064268,-18.4821619312113,-11.6413617358928,-300.118182927946
738506.39824579085689038038,-18.4821619312113,-11.6413617358928,-300.08125553148
738506.39824588131159543991,-18.4821619312113,-11.6321298867763,-300.108951078829
738506.39824597176630049944,-18.4729300820948,-11.6321298867763,-300.136646626179
738506.39824606222100555897,-18.4821619312113,-11.6321298867763,-300.05355998413
738506.39824615267571061850,-18.4729300820948,-11.6321298867763,-300.118182927946
738506.39824624313041567802,-18.4729300820948,-11.6321298867763,-300.136646626179
738506.39824633346870541573,-18.4729300820948,-11.6413617358928,-299.952009643849
738506.39824642392341047525,-18.4821619312113,-11.6321298867763,-300.016632587664
738506.39824651437811553478,-18.4821619312113,-11.6321298867763,-300.136646626179
738506.39824660483282059431,-18.4821619312113,-11.6321298867763,-300.108951078829
738506.39824669528752565384,-18.4913937803278,-11.6505935850093,-300.044328135014
738506.39824678562581539154,-18.4913937803278,-11.6321298867763,-300.044328135014
738506.39824687608052045107,-18.5098574785607,-11.6413617358928,-300.062791833247
738506.39824696653522551060,-18.5006256294443,-11.6413617358928,-300.05355998413
738506.39824705698993057013,-18.5098574785607,-11.6413617358928,-300.090487380596
738506.39824714744463562965,-18.5098574785607,-11.6505935850093,-300.108951078829
738506.39824723789934068918,-18.5098574785607,-11.6505935850093,-300.072023682363
738506.39824732823763042688,-18.5190893276772,-11.6413617358928,-300.062791833247
738506.39824741869233548641,-18.5190893276772,-11.6413617358928,-300.05355998413
738506.39824750914704054594,-18.5098574785607,-11.6505935850093,-300.108951078829
738506.39824759960174560547,-18.5190893276772,-11.6413617358928,-300.155110324412
738506.39824769005645066500,-18.5283211767937,-11.6505935850093,-300.127414777062
738506.39824778039474040270,-18.5190893276772,-11.6413617358928,-300.108951078829
738506.39824787084944546223,-18.5283211767937,-11.6413617358928,-300.072023682363
738506.39824796130415052176,-18.5190893276772,-11.6413617358928,-300.05355998413
738506.39824805175885558128,-18.5190893276772,-11.6413617358928,-300.044328135014
738506.39824814221356064081,-18.5190893276772,-11.6413617358928,-300.118182927946
738506.39824823266826570034,-18.5283211767937,-11.6413617358928,-300.08125553148
738506.39824832300655543804,-18.5190893276772,-11.6321298867763,-300.099719229713
738506.39824841346126049757,-18.5375530259102,-11.6505935850093,-300.090487380596
738506.39824850391596555710,-18.5190893276772,-11.6413617358928,-300.127414777062
738506.39824859437067061663,-18.5375530259102,-11.6598254341258,-300.127414777062
738506.39824868482537567616,-18.5283211767937,-11.6505935850093,-300.072023682363
738506.39824877516366541386,-18.5283211767937,-11.6505935850093,-300.136646626179
738506.39824886561837047338,-18.5283211767937,-11.6505935850093,-300.155110324412
738506.39824895607307553291,-18.5375530259102,-11.6505935850093,-300.173574022645
738506.39824904652778059244,-18.5190893276772,-11.6505935850093,-300.08125553148
738506.39824913698248565197,-18.5098574785607,-11.6413617358928,-300.127414777062
738506.39824922743719071150,-18.5006256294443,-11.6598254341258,-300.136646626179
738506.39824931777548044920,-18.4821619312113,-11.6413617358928,-300.090487380596
738506.39824940823018550873,-18.4821619312113,-11.6505935850093,-300.099719229713
738506.39824949868489056826,-18.4083071382794,-11.6228980376598,-300.145878475295
738506.39824958913959562778,-18.3806115909299,-11.6321298867763,-300.072023682363
738506.39824967959430068731,-18.3713797418134,-11.6228980376598,-300.155110324412
738506.39824976993259042501,-18.3436841944639,-11.6228980376598,-300.108951078829
738506.39824986038729548454,-18.3436841944639,-11.6136661885434,-299.970473342082
738506.39824995084200054407,-18.4083071382794,-11.6136661885434,-299.988937040315
738506.39825004129670560360,-18.4729300820948,-11.6321298867763,-300.136646626179
738506.39825013175141066313,-18.5283211767937,-11.6690572832423,-300.145878475295
738506.39825022220611572266,-18.5467848750267,-11.6505935850093,-300.099719229713
738506.39825031254440546036,-18.5744804223762,-11.6505935850093,-300.136646626179
738506.39825040299911051989,-18.5744804223762,-11.6505935850093,-300.136646626179
738506.39825049345381557941,-18.5837122714927,-11.6598254341258,-300.155110324412
738506.39825058390852063894,-18.5837122714927,-11.6598254341258,-300.099719229713
738506.39825067436322569847,-18.5837122714927,-11.6505935850093,-300.127414777062
738506.39825076470151543617,-18.5929441206091,-11.6598254341258,-300.025864436781
738506.39825085515622049570,-18.5837122714927,-11.6413617358928,-300.072023682363
738506.39825094561092555523,-18.5929441206091,-11.6598254341258,-300.05355998413
738506.39825103606563061476,-18.5744804223762,-11.6505935850093,-300.08125553148
738506.39825112652033567429,-18.5837122714927,-11.6505935850093,-300.05355998413
738506.39825121697504073381,-18.5837122714927,-11.6228980376598,-300.05355998413
738506.39825130731333047152,-18.6206396679586,-11.5675069429609,-300.044328135014
738506.39825139776803553104,-18.3898434400464,-11.475188451796,-300.035096285897
738506.39825148822274059057,-17.9374828333384,-11.4382610553301,-299.961241492965
738506.39825157867744565010,-17.5497451704459,-11.7059846797082,-299.979705191198
738506.39825166913215070963,-17.7436140018921,-11.9644764549699,-300.035096285897
738506.39825175947044044733,-18.7960448011719,-11.9829401532029,-300.219733268227
738506.39825184992514550686,-18.9252906888028,-11.7244483779412,-300.164342173528
738506.39825194037985056639,-18.6483352153081,-11.5767387920774,-300.05355998413
738506.39825203083455562592,-18.4636982329783,-11.5767387920774,-300.05355998413
738506.39825212128926068544,-18.4544663838618,-11.6136661885434,-300.062791833247
738506.39825221174396574497,-18.4821619312113,-11.6044343394269,-300.007400738548
738506.39825230208225548267,-18.4821619312113,-11.6136661885434,-300.05355998413
738506.39825239253696054220,-18.4729300820948,-11.6044343394269,-300.05355998413
738506.39825248299166560173,-18.4821619312113,-11.6136661885434,-300.044328135014
738506.39825257344637066126,-18.4636982329783,-11.6044343394269,-300.108951078829
738506.39825266390107572079,-18.4729300820948,-11.6044343394269,-300.090487380596
738506.39825275423936545849,-18.4544663838618,-11.5952024903104,-300.072023682363
738506.39825284469407051802,-18.4452345347453,-11.5952024903104,-300.090487380596
738506.39825293514877557755,-18.4267708365123,-11.5952024903104,-300.025864436781
738506.39825302560348063707,-18.4267708365123,-11.5952024903104,-300.099719229713
738506.39825311605818569660,-18.4083071382794,-11.5952024903104,-300.118182927946
738506.39825320651289075613,-18.3990752891629,-11.5767387920774,-300.044328135014
738506.39825329685118049383,-18.3806115909299,-11.5675069429609,-300.08125553148
738506.39825338730588555336,-18.3806115909299,-11.5675069429609,-299.988937040315
738506.39825347776059061289,-18.3529160435804,-11.5582750938444,-299.952009643849
738506.39825356821529567242,-18.3344523453475,-11.5490432447279,-300.099719229713
738506.39825365867000073195,-18.325220496231,-11.5490432447279,-300.062791833247
738506.39825374900829046965,-18.306756797998,-11.5305795464949,-300.05355998413
738506.39825383946299552917,-18.288293099765,-11.5305795464949,-300.007400738548
738506.39825392991770058870,-18.2605975524155,-11.512115848262,-300.072023682363
738506.39825402037240564823,-18.2421338541826,-11.5028839991455,-300.025864436781
738506.39825411082711070776,-18.1959746086001,-11.475188451796,-299.979705191198
738506.39825420128181576729,-18.1682790612506,-11.4659566026795,-300.025864436781
738506.39825429162010550499,-18.1405835139012,-11.456724753563,-300.025864436781
738506.39825438207481056452,-18.1128879665517,-11.4382610553301,-300.035096285897
738506.39825447252951562405,-18.0667287209693,-11.4105655079806,-299.942777794732
738506.39825456298422068357,-18.0390331736198,-11.4013336588641,-300.007400738548
738506.39825465343892574310,-18.0021057771538,-11.4013336588641,-299.979705191198
738506.39825474377721548080,-17.9836420789209,-11.3921018097476,-299.979705191198
738506.39825483423192054033,-17.9744102298044,-11.4013336588641,-299.887386700034
738506.39825492468662559986,-17.9744102298044,-11.4013336588641,-299.915082247383
738506.39825501514133065939,-18.0298013245033,-11.4474929044465,-299.915082247383
738506.39825510559603571892,-18.0944242683187,-11.4659566026795,-299.942777794732
738506.39825519605074077845,-18.1867427594836,-11.5028839991455,-300.007400738548
738506.39825528638903051615,-18.2605975524155,-11.5305795464949,-299.998168889431
738506.39825537684373557568,-18.3344523453475,-11.5767387920774,-299.988937040315
738506.39825546729844063520,-18.3713797418134,-11.5767387920774,-300.007400738548
738506.39825555775314569473,-18.4175389873959,-11.6044343394269,-300.035096285897
738506.39825564820785075426,-18.4267708365123,-11.6136661885434,-300.025864436781
738506.39825573854614049196,-18.4452345347453,-11.6136661885434,-299.998168889431
738506.39825582900084555149,-18.4452345347453,-11.6044343394269,-300.044328135014
738506.39825591945555061102,-18.4544663838618,-11.6228980376598,-300.025864436781
738506.39825600991025567055,-18.4452345347453,-11.6136661885434,-300.05355998413
738506.39825610036496073008,-18.4544663838618,-11.6136661885434,-300.035096285897
738506.39825619081966578960,-18.4544663838618,-11.6228980376598,-300.05355998413
738506.39825628115795552731,-18.4544663838618,-11.6136661885434,-300.044328135014
738506.39825637161266058683,-18.4544663838618,-11.6321298867763,-300.05355998413
738506.39825646206736564636,-18.4544663838618,-11.6228980376598,-300.108951078829
738506.39825655252207070589,-18.4636982329783,-11.6321298867763,-300.090487380596
738506.39825664297677576542,-18.4452345347453,-11.6136661885434,-300.099719229713
738506.39825673331506550312,-18.4544663838618,-11.6228980376598,-300.05355998413
738506.39825682376977056265,-18.4452345347453,-11.6136661885434,-300.044328135014
738506.39825691422447562218,-18.4544663838618,-11.6228980376598,-299.961241492965
738506.39825700467918068171,-18.4452345347453,-11.6136661885434,-299.970473342082
738506.39825709513388574123,-18.4544663838618,-11.6228980376598,-300.090487380596
738506.39825718558859080076,-18.4452345347453,-11.6136661885434,-300.108951078829
738506.39825727592688053846,-18.4544663838618,-11.6136661885434,-300.090487380596
738506.39825736638158559799,-18.4544663838618,-11.6136661885434,-300.08125553148
738506.39825745683629065752,-18.4636982329783,-11.6228980376598,-300.08125553148
738506.39825754729099571705,-18.4636982329783,-11.6228980376598,-300.090487380596
738506.39825763774570077658,-18.4729300820948,-11.6228980376598,-300.035096285897
738506.39825772808399051428,-18.4636982329783,-11.6228980376598,-300.108951078829
738506.39825781853869557381,-18.4821619312113,-11.6321298867763,-300.099719229713
738506.39825790899340063334,-18.4821619312113,-11.6228980376598,-300.062791833247
738506.39825799944810569286,-18.4821619312113,-11.6228980376598,-300.099719229713
738506.39825808990281075239,-18.4821619312113,-11.6321298867763,-300.099719229713
738506.39825818035751581192,-18.4729300820948,-11.6228980376598,-300.099719229713
738506.39825827069580554962,-18.4821619312113,-11.6321298867763,-300.08125553148
738506.39825836115051060915,-18.4821619312113,-11.6136661885434,-300.118182927946
738506.39825845160521566868,-18.4913937803278,-11.6228980376598,-300.08125553148
738506.39825854205992072821,-18.4913937803278,-11.6321298867763,-300.016632587664
738506.39825863251462578773,-18.4821619312113,-11.6321298867763,-300.016632587664
738506.39825872285291552544,-18.4913937803278,-11.6228980376598,-300.035096285897
738506.39825881330762058496,-18.4913937803278,-11.6228980376598,-300.007400738548
738506.39825890376232564449,-18.4821619312113,-11.6228980376598,-300.044328135014
738506.39825899421703070402,-18.4913937803278,-11.6321298867763,-300.090487380596
738506.39825908467173576355,-18.4913937803278,-11.6321298867763,-300.044328135014
738506.39825917501002550125,-18.4913937803278,-11.6136661885434,-300.035096285897
738506.39825926546473056078,-18.4913937803278,-11.6228980376598,-300.025864436781
738506.39825935591943562031,-18.4821619312113,-11.6136661885434,-300.072023682363
738506.39825944637414067984,-18.4913937803278,-11.6321298867763,-300.062791833247
738506.39825953682884573936,-18.4913937803278,-11.6228980376598,-300.072023682363
738506.39825962728355079889,-18.4821619312113,-11.6228980376598,-300.025864436781
738506.39825971762184053659,-18.4913937803278,-11.6228980376598,-300.035096285897
738506.39825980807654559612,-18.5006256294443,-11.6321298867763,-300.044328135014
738506.39825989853125065565,-18.4913937803278,-11.6228980376598,-300.062791833247
738506.39825998898595571518,-18.5006256294443,-11.6321298867763,-300.035096285897
738506.39826007944066077471,-18.4913937803278,-11.6321298867763,-300.072023682363
738506.39826016977895051241,-18.4913937803278,-11.6228980376598,-300.08125553148
738506.39826026023365557194,-18.5006256294443,-11.6321298867763,-300.035096285897
738506.39826035068836063147,-18.4913937803278,-11.6228980376598,-300.05355998413
738506.39826044114306569099,-18.4729300820948,-11.6321298867763,-300.035096285897
738506.39826053159777075052,-18.4636982329783,-11.6321298867763,-300.025864436781
738506.39826062205247581005,-18.4452345347453,-11.6228980376598,-300.035096285897
738506.39826071239076554775,-18.4360026856288,-11.6044343394269,-300.08125553148
738506.39826080284547060728,-18.3898434400464,-11.6044343394269,-300.05355998413
738506.39826089330017566681,-18.3436841944639,-11.5952024903104,-300.044328135014
738506.39826098375488072634,-18.3344523453475,-11.6136661885434,-300.090487380596
738506.39826107420958578587,-18.306756797998,-11.5859706411939,-300.090487380596
738506.39826116454787552357,-18.3159886471145,-11.6044343394269,-300.08125553148
738506.39826125500258058310,-18.3436841944639,-11.5859706411939,-300.108951078829
738506.39826134545728564262,-18.4360026856288,-11.6228980376598,-300.025864436781
738506.39826143591199070215,-18.4636982329783,-11.6228980376598,-300.072023682363
738506.39826152636669576168,-18.5098574785607,-11.6321298867763,-300.08125553148
738506.39826161682140082121,-18.5190893276772,-11.6321298867763,-300.127414777062
738506.39826170715969055891,-18.5375530259102,-11.6413617358928,-300.099719229713
738506.39826179761439561844,-18.5283211767937,-11.6413617358928,-300.118182927946
738506.39826188806910067797,-18.5283211767937,-11.6321298867763,-300.090487380596
738506.39826197852380573750,-18.5375530259102,-11.6413617358928,-300.118182927946
738506.39826206897851079702,-18.5375530259102,-11.6321298867763,-300.118182927946
738506.39826215931680053473,-18.5467848750267,-11.6413617358928,-300.044328135014
738506.39826224977150559425,-18.5467848750267,-11.6321298867763,-300.127414777062
738506.39826234022621065378,-18.5375530259102,-11.6321298867763,-300.099719229713
738506.39826243068091571331,-18.5375530259102,-11.6321298867763,-300.072023682363
738506.39826252113562077284,-18.5375530259102,-11.6321298867763,-300.090487380596
738506.39826261159032583237,-18.5837122714927,-11.5582750938444,-300.090487380596
738506.39826270192861557007,-18.4636982329783,-11.493652150029,-300.007400738548
738506.39826279238332062960,-18.0944242683187,-11.4197973570971,-299.998168889431
738506.39826288283802568913,-17.6512955107273,-11.5767387920774,-299.988937040315
738506.39826297329273074865,-17.457426679281,-11.8629261146886,-300.025864436781
738506.39826306374743580818,-18.3990752891629,-11.9829401532029,-300.145878475295
738506.39826315408572554588,-18.9252906888028,-11.8075350199896,-300.182805871761
738506.39826324454043060541,-18.7314218573565,-11.5767387920774,-300.016632587664
738506.39826333499513566494,-18.4360026856288,-11.5398113956114,-299.961241492965
738506.39826342544984072447,-18.4175389873959,-11.5675069429609,-299.988937040315
738506.39826351590454578400,-18.4360026856288,-11.5767387920774,-299.998168889431
738506.39826360635925084352,-18.4452345347453,-11.5767387920774,-300.007400738548
738506.39826369669754058123,-18.4544663838618,-11.5859706411939,-300.025864436781
738506.39826378715224564075,-18.4360026856288,-11.5582750938444,-300.090487380596
738506.39826387760695070028,-18.4360026856288,-11.5675069429609,-300.05355998413
738506.39826396806165575981,-18.4175389873959,-11.5582750938444,-299.988937040315
738506.39826405851636081934,-18.4175389873959,-11.5675069429609,-299.933545945616
738506.39826414885465055704,-18.3990752891629,-11.5582750938444,-300.05355998413
738506.39826423930935561657,-18.4083071382794,-11.5582750938444,-300.007400738548
738506.39826432976406067610,-18.3806115909299,-11.5398113956114,-299.933545945616
738506.39826442021876573563,-18.3806115909299,-11.5490432447279,-299.979705191198
738506.39826451067347079515,-18.3621478926969,-11.5398113956114,-299.988937040315
738506.39826460112817585468,-18.3621478926969,-11.5398113956114,-300.025864436781
738506.39826469146646559238,-18.3436841944639,-11.5305795464949,-299.998168889431
738506.39826478192117065191,-18.3436841944639,-11.5305795464949,-300.007400738548
738506.39826487237587571144,-18.325220496231,-11.5213476973785,-300.007400738548
738506.39826496283058077097,-18.306756797998,-11.512115848262,-300.007400738548
738506.39826505328528583050,-18.288293099765,-11.512115848262,-299.988937040315
738506.39826514362357556820,-18.269829401532,-11.5028839991455,-299.998168889431
738506.39826523407828062773,-18.2421338541826,-11.493652150029,-299.979705191198
738506.39826532453298568726,-18.2329020050661,-11.4844203009125,-299.998168889431
738506.39826541498769074678,-18.2144383068331,-11.4659566026795,-299.998168889431
738506.39826550544239580631,-18.1682790612506,-11.4474929044465,-300.007400738548
738506.39826559589710086584,-18.1590472121342,-11.4382610553301,-299.961241492965
738506.39826568623539060354,-18.1221198156682,-11.4105655079806,-299.961241492965
738506.39826577669009566307,-18.0944242683187,-11.4013336588641,-299.952009643849
738506.39826586714480072260,-18.0482650227363,-11.3921018097476,-300.025864436781
738506.39826595759950578213,-18.0390331736198,-11.3828699606311,-299.998168889431
738506.39826604805421084166,-18.0021057771538,-11.3644062623981,-299.9243140965
738506.39826613839250057936,-17.9744102298044,-11.3644062623981,-299.998168889431
738506.39826622884720563889,-17.9651783806879,-11.3736381115146,-300.007400738548
738506.39826631930191069841,-18.0021057771538,-11.3921018097476,-300.016632587664
738506.39826640975661575794,-18.0574968718528,-11.4290292062136,-299.979705191198
738506.39826650021132081747,-18.1405835139012,-11.456724753563,-300.035096285897
738506.39826659066602587700,-18.2144383068331,-11.5028839991455,-300.062791833247
738506.39826668100431561470,-18.2975249488815,-11.5305795464949,-300.007400738548
738506.39826677145902067423,-18.3529160435804,-11.5582750938444,-300.08125553148
738506.39826686191372573376,-18.3713797418134,-11.5582750938444,-300.099719229713
738506.39826695236843079329,-18.4267708365123,-11.5859706411939,-300.007400738548
738506.39826704282313585281,-18.4267708365123,-11.5767387920774,-300.090487380596
738506.39826713316142559052,-18.4267708365123,-11.5859706411939,-300.072023682363
738506.39826722361613065004,-18.4360026856288,-11.5767387920774,-300.108951078829
738506.39826731407083570957,-18.4452345347453,-11.5859706411939,-300.062791833247
738506.39826740452554076910,-18.4452345347453,-11.5767387920774,-300.099719229713
738506.39826749498024582863,-18.4452345347453,-11.5859706411939,-300.072023682363
738506.39826758543495088816,-18.4360026856288,-11.5859706411939,-299.89661854915
738506.39826767577324062586,-18.4267708365123,-11.5767387920774,-300.090487380596
738506.39826776622794568539,-18.4452345347453,-11.5952024903104,-300.090487380596
738506.39826785668265074492,-18.4360026856288,-11.5859706411939,-300.108951078829
738506.39826794713735580444,-18.4452345347453,-11.6044343394269,-300.072023682363
738506.39826803759206086397,-18.4452345347453,-11.5859706411939,-300.127414777062
738506.39826812793035060167,-18.4452345347453,-11.5859706411939,-300.044328135014
738506.39826821838505566120,-18.4452345347453,-11.5859706411939,-300.05355998413
738506.39826830883976072073,-18.4452345347453,-11.5952024903104,-300.007400738548
738506.39826839929446578026,-18.4452345347453,-11.5767387920774,-300.016632587664
738506.39826848974917083979,-18.4636982329783,-11.5952024903104,-299.988937040315
738506.39826858020387589931,-18.4544663838618,-11.5859706411939,-300.016632587664
738506.39826867054216563702,-18.4636982329783,-11.5952024903104,-299.988937040315
738506.39826876099687069654,-18.4544663838618,-11.5859706411939,-300.016632587664
738506.39826885145157575607,-18.4729300820948,-11.5952024903104,-300.025864436781
738506.39826894190628081560,-18.4636982329783,-11.5859706411939,-300.08125553148
738506.39826903236098587513,-18.4821619312113,-11.5952024903104,-300.016632587664
738506.39826912269927561283,-18.4821619312113,-11.6044343394269,-300.044328135014
738506.39826921315398067236,-18.4913937803278,-11.6044343394269,-300.05355998413
738506.39826930360868573189,-18.4913937803278,-11.6136661885434,-300.044328135014
738506.39826939406339079142,-18.4913937803278,-11.6044343394269,-300.025864436781
738506.39826948451809585094,-18.4913937803278,-11.6044343394269,-300.108951078829
738506.39826957497280091047,-18.4821619312113,-11.5952024903104,-300.090487380596
738506.39826966531109064817,-18.5006256294443,-11.6136661885434,-300.025864436781
738506.39826975576579570770,-18.4913937803278,-11.6044343394269,-300.118182927946
738506.39826984622050076723,-18.4913937803278,-11.6044343394269,-300.099719229713
738506.39826993667520582676,-18.4913937803278,-11.5952024903104,-300.127414777062
738506.39827002712991088629,-18.5098574785607,-11.6044343394269,-300.062791833247
738506.39827011746820062399,-18.4913937803278,-11.6044343394269,-300.099719229713
738506.39827020792290568352,-18.5006256294443,-11.6136661885434,-300.090487380596
738506.39827029837761074305,-18.5006256294443,-11.6044343394269,-300.127414777062
738506.39827038883231580257,-18.5006256294443,-11.6044343394269,-300.044328135014
738506.39827047928702086210,-18.5006256294443,-11.6136661885434,-300.155110324412
738506.39827056974172592163,-18.5006256294443,-11.6136661885434,-300.127414777062
738506.39827066008001565933,-18.5006256294443,-11.6136661885434,-300.05355998413
738506.39827075053472071886,-18.5190893276772,-11.6136661885434,-300.090487380596
738506.39827084098942577839,-18.5098574785607,-11.6136661885434,-300.090487380596
738506.39827093144413083792,-18.5190893276772,-11.6136661885434,-300.08125553148
738506.39827102189883589745,-18.5190893276772,-11.6228980376598,-299.9243140965
738506.39827111223712563515,-18.5190893276772,-11.6136661885434,-300.062791833247
738506.39827120269183069468,-18.5190893276772,-11.6228980376598,-300.127414777062
738506.39827129314653575420,-18.5006256294443,-11.6136661885434,-300.035096285897
738506.39827138360124081373,-18.5098574785607,-11.6228980376598,-300.090487380596
738506.39827147405594587326,-18.5190893276772,-11.6136661885434,-300.108951078829
738506.39827156439423561096,-18.5190893276772,-11.6228980376598,-300.090487380596
738506.39827165484894067049,-18.5190893276772,-11.6228980376598,-300.127414777062
738506.39827174530364573002,-18.5098574785607,-11.6228980376598,-300.145878475295
738506.39827183575835078955,-18.4913937803278,-11.6136661885434,-300.090487380596
738506.39827192621305584908,-18.4821619312113,-11.6136661885434,-300.118182927946
738506.39827201666776090860,-18.4729300820948,-11.6228980376598,-300.035096285897
738506.39827210700605064631,-18.4544663838618,-11.6044343394269,-300.025864436781
738506.39827219746075570583,-18.4083071382794,-11.6136661885434,-300.05355998413
738506.39827228791546076536,-18.3806115909299,-11.6136661885434,-300.062791833247
738506.39827237837016582489,-18.3621478926969,-11.6228980376598,-300.05355998413
738506.39827246882487088442,-18.3344523453475,-11.6044343394269,-300.062791833247
738506.39827255916316062212,-18.3436841944639,-11.6044343394269,-300.035096285897
738506.39827264961786568165,-18.4083071382794,-11.5952024903104,-300.035096285897
738506.39827274007257074118,-18.4636982329783,-11.6321298867763,-300.044328135014
738506.39827283052727580070,-18.4913937803278,-11.6228980376598,-300.08125553148
738506.39827292098198086023,-18.5375530259102,-11.6228980376598,-300.072023682363
738506.39827301143668591976,-18.5375530259102,-11.6136661885434,-300.062791833247
738506.39827310177497565746,-18.5467848750267,-11.6228980376598,-299.998168889431
738506.39827319222968071699,-18.5560167241432,-11.6228980376598,-299.988937040315
738506.39827328268438577652,-18.5467848750267,-11.6136661885434,-300.035096285897
738506.39827337313909083605,-18.5560167241432,-11.6228980376598,-300.05355998413
738506.39827346359379589558,-18.5744804223762,-11.6228980376598,-300.099719229713
738506.39827355393208563328,-18.5560167241432,-11.6228980376598,-300.108951078829
738506.39827364438679069281,-18.5652485732597,-11.6136661885434,-300.127414777062
738506.39827373484149575233,-18.5467848750267,-11.6136661885434,-300.025864436781
738506.39827382529620081186,-18.5467848750267,-11.6044343394269,-300.062791833247
738506.39827391575090587139,-18.5744804223762,-11.6044343394269,-300.016632587664
738506.39827400620561093092,-18.5837122714927,-11.5305795464949,-300.016632587664
738506.39827409654390066862,-18.4083071382794,-11.475188451796,-299.970473342082
738506.39827418699860572815,-17.9836420789209,-11.4197973570971,-299.9243140965
738506.39827427745331078768,-17.5959044160283,-11.5767387920774,-299.850459303568
738506.39827436790801584721,-17.5866725669118,-11.8536942655721,-300.025864436781
738506.39827445836272090673,-18.759117404706,-11.9552446058534,-300.201269569994
738506.39827454870101064444,-18.9899136326182,-11.7521439252907,-299.979705191198
738506.39827463915571570396,-18.7498855555895,-11.5582750938444,-300.044328135014
738506.39827472961042076349,-18.4913937803278,-11.512115848262,-300.108951078829
738506.39827482006512582302,-18.4452345347453,-11.5582750938444,-300.016632587664
738506.39827491051983088255,-18.4452345347453,-11.5582750938444,-300.016632587664
738506.39827500097453594208,-18.4452345347453,-11.5490432447279,-300.08125553148
738506.39827509131282567978,-18.4636982329783,-11.5675069429609,-300.072023682363
738506.39827518176753073931,-18.4544663838618,-11.5582750938444,-300.025864436781
738506.39827527222223579884,-18.4452345347453,-11.5582750938444,-300.072023682363
738506.39827536267694085836,-18.4267708365123,-11.5490432447279,-300.108951078829
738506.39827545313164591789,-18.4360026856288,-11.5490432447279,-300.062791833247
738506.39827554346993565559,-18.4083071382794,-11.5398113956114,-300.072023682363
738506.39827563392464071512,-18.3990752891629,-11.5490432447279,-300.062791833247
738506.39827572437934577465,-18.3898434400464,-11.5398113956114,-300.099719229713
738506.39827581483405083418,-18.3898434400464,-11.5398113956114,-300.08125553148
738506.39827590528875589371,-18.3529160435804,-11.5213476973785,-299.970473342082
738506.39827599574346095324,-18.3621478926969,-11.5305795464949,-299.979705191198
738506.39827608608175069094,-18.3344523453475,-11.5028839991455,-300.007400738548
738506.39827617653645575047,-18.325220496231,-11.512115848262,-299.970473342082
738506.39827626699116080999,-18.306756797998,-11.5028839991455,-300.016632587664
738506.39827635744586586952,-18.306756797998,-11.493652150029,-300.044328135014
738506.39827644790057092905,-18.2790612506485,-11.4844203009125,-299.970473342082
738506.39827653823886066675,-18.269829401532,-11.4844203009125,-299.979705191198
738506.39827662869356572628,-18.2421338541826,-11.4659566026795,-299.952009643849
738506.39827671914827078581,-18.2236701559496,-11.4474929044465,-300.062791833247
738506.39827680960297584534,-18.2236701559496,-11.456724753563,-300.007400738548
738506.39827690005768090487,-18.1775109103671,-11.4382610553301,-299.942777794732
738506.39827699051238596439,-18.1590472121342,-11.4382610553301,-299.961241492965
738506.39827708085067570210,-18.1221198156682,-11.4105655079806,-300.044328135014
738506.39827717130538076162,-18.1036561174352,-11.3921018097476,-299.979705191198
738506.39827726176008582115,-18.0574968718528,-11.3644062623981,-299.933545945616
738506.39827735221479088068,-18.0298013245033,-11.3644062623981,-299.998168889431
738506.39827744266949594021,-18.0113376262703,-11.3551744132817,-299.970473342082
738506.39827753300778567791,-18.0021057771538,-11.3551744132817,-299.988937040315
738506.39827762346249073744,-17.9836420789209,-11.3459425641652,-299.942777794732
738506.39827771391719579697,-18.0298013245033,-11.3828699606311,-299.988937040315
738506.39827780437190085649,-18.0759605700858,-11.4105655079806,-300.016632587664
738506.39827789482660591602,-18.1590472121342,-11.456724753563,-299.9243140965
738506.39827798528131097555,-18.2236701559496,-11.5028839991455,-299.952009643849
738506.39827807561960071325,-18.2790612506485,-11.5305795464949,-299.841227454451
738506.39827816607430577278,-18.3344523453475,-11.5582750938444,-299.868923001801
738506.39827825652901083231,-18.3621478926969,-11.5675069429609,-299.988937040315
738506.39827834698371589184,-18.3806115909299,-11.5859706411939,-300.044328135014
738506.39827843743842095137,-18.3806115909299,-11.5859706411939,-300.016632587664
738506.39827852777671068907,-18.3898434400464,-11.5859706411939,-300.062791833247
738506.39827861823141574860,-18.3990752891629,-11.5859706411939,-300.072023682363
738506.39827870868612080812,-18.4083071382794,-11.5859706411939,-300.05355998413
738506.39827879914082586765,-18.3898434400464,-11.5767387920774,-300.007400738548
738506.39827888959553092718,-18.3898434400464,-11.5859706411939,-300.072023682363
738506.39827898005023598671,-18.3898434400464,-11.5767387920774,-300.099719229713
738506.39827907038852572441,-18.3898434400464,-11.5859706411939,-300.08125553148
738506.39827916084323078394,-18.3898434400464,-11.5952024903104,-300.062791833247
738506.39827925129793584347,-18.3898434400464,-11.5767387920774,-300.090487380596
738506.39827934175264090300,-18.3806115909299,-11.5859706411939,-300.05355998413
738506.39827943220734596252,-18.3898434400464,-11.5767387920774,-300.035096285897
738506.39827952254563570023,-18.3898434400464,-11.5859706411939,-300.090487380596
738506.39827961300034075975,-18.3898434400464,-11.5767387920774,-300.127414777062
738506.39827970345504581928,-18.3990752891629,-11.5859706411939,-300.007400738548
738506.39827979390975087881,-18.3990752891629,-11.5767387920774,-300.062791833247
738506.39827988436445593834,-18.3990752891629,-11.5859706411939,-300.035096285897
738506.39827997481916099787,-18.3898434400464,-11.5767387920774,-300.05355998413
738506.39828006515745073557,-18.4083071382794,-11.5859706411939,-300.025864436781
738506.39828015561215579510,-18.4083071382794,-11.5859706411939,-300.062791833247
738506.39828024606686085463,-18.4083071382794,-11.5952024903104,-300.05355998413
738506.39828033652156591415,-18.3990752891629,-11.5859706411939,-299.979705191198
738506.39828042697627097368,-18.4083071382794,-11.5859706411939,-300.035096285897
738506.39828051731456071138,-18.4083071382794,-11.5952024903104,-300.044328135014
738506.39828060776926577091,-18.4175389873959,-11.5952024903104,-300.05355998413
738506.39828069822397083044,-18.4175389873959,-11.5952024903104,-299.988937040315
738506.39828078867867588997,-18.4175389873959,-11.5952024903104,-300.05355998413
738506.39828087913338094950,-18.4175389873959,-11.5952024903104,-300.035096285897
738506.39828096958808600903,-18.4175389873959,-11.5859706411939,-300.016632587664
738506.39828105992637574673,-18.4175389873959,-11.5859706411939,-300.05355998413
738506.39828115038108080626,-18.4175389873959,-11.5767387920774,-300.05355998413
738506.39828124083578586578,-18.4175389873959,-11.5859706411939,-300.044328135014
738506.39828133129049092531,-18.4175389873959,-11.5859706411939,-300.035096285897
738506.39828142174519598484,-18.4267708365123,-11.5859706411939,-300.035096285897
738506.39828151208348572254,-18.4175389873959,-11.5767387920774,-300.062791833247
738506.39828160253819078207,-18.4267708365123,-11.5952024903104,-299.859691152684
738506.39828169299289584160,-18.4175389873959,-11.5859706411939,-299.970473342082
738506.39828178344760090113,-18.4267708365123,-11.5859706411939,-300.016632587664
738506.39828187390230596066,-18.4175389873959,-11.5859706411939,-300.007400738548
738506.39828196435701102018,-18.4267708365123,-11.5859706411939,-299.988937040315
738506.39828205469530075788,-18.4175389873959,-11.5767387920774,-300.016632587664
738506.39828214515000581741,-18.4360026856288,-11.5859706411939,-300.05355998413
738506.39828223560471087694,-18.4267708365123,-11.5859706411939,-300.08125553148
738506.39828232605941593647,-18.4267708365123,-11.5952024903104,-300.05355998413
738506.39828241651412099600,-18.4175389873959,-11.5767387920774,-300.072023682363
738506.39828250685241073370,-18.4175389873959,-11.5767387920774,-300.062791833247
738506.39828259730711579323,-18.4267708365123,-11.5859706411939,-300.007400738548
738506.39828268776182085276,-18.4083071382794,-11.5767387920774,-300.025864436781
738506.39828277821652591228,-18.4267708365123,-11.5859706411939,-299.998168889431
738506.39828286867123097181,-18.4267708365123,-11.5767387920774,-300.08125553148
738506.39828295912593603134,-18.4360026856288,-11.5859706411939,-300.08125553148
738506.39828304946422576904,-18.4267708365123,-11.5859706411939,-300.090487380596
738506.39828313991893082857,-18.4267708365123,-11.5767387920774,-300.072023682363
738506.39828323037363588810,-18.3990752891629,-11.5767387920774,-300.108951078829
738506.39828332082834094763,-18.3898434400464,-11.5859706411939,-300.062791833247
738506.39828341128304600716,-18.3713797418134,-11.5767387920774,-300.05355998413
738506.39828350162133574486,-18.3806115909299,-11.5767387920774,-300.062791833247
738506.39828359207604080439,-18.325220496231,-11.5582750938444,-300.05355998413
738506.39828368253074586391,-18.288293099765,-11.5582750938444,-300.025864436781
738506.39828377298545092344,-18.2605975524155,-11.5675069429609,-300.072023682363
738506.39828386344015598297,-18.2513657032991,-11.5675069429609,-300.072023682363
738506.39828395389486104250,-18.2144383068331,-11.5582750938444,-300.044328135014
738506.39828404423315078020,-18.269829401532,-11.5490432447279,-300.062791833247
738506.39828413468785583973,-18.3436841944639,-11.5767387920774,-300.062791833247
738506.39828422514256089926,-18.3990752891629,-11.5859706411939,-300.05355998413
738506.39828431559726595879,-18.4175389873959,-11.5952024903104,-300.025864436781
738506.39828440605197101831,-18.4267708365123,-11.5767387920774,-300.062791833247
738506.39828449639026075602,-18.4544663838618,-11.5859706411939,-300.05355998413
738506.39828458684496581554,-18.4452345347453,-11.5767387920774,-299.998168889431
738506.39828467729967087507,-18.4636982329783,-11.5859706411939,-300.062791833247
738506.39828476775437593460,-18.4544663838618,-11.5859706411939,-300.044328135014
738506.39828485820908099413,-18.4636982329783,-11.5859706411939,-300.044328135014
738506.39828494854737073183,-18.4636982329783,-11.5859706411939,-300.025864436781
738506.39828503900207579136,-18.4544663838618,-11.5767387920774,-300.062791833247
738506.39828512945678085089,-18.4544663838618,-11.5952024903104,-299.942777794732
738506.39828521991148591042,-18.4544663838618,-11.5767387920774,-299.961241492965
738506.39828531036619096994,-18.4544663838618,-11.5767387920774,-300.044328135014
738506.39828540082089602947,-18.4913937803278,-11.5213476973785,-300.05355998413
738506.39828549115918576717,-18.3806115909299,-11.4659566026795,-299.998168889431
738506.39828558161389082670,-18.0113376262703,-11.3828699606311,-299.9243140965
738506.39828567206859588623,-17.5866725669118,-11.5213476973785,-299.942777794732
738506.39828576252330094576,-17.3835718863491,-11.8075350199896,-299.988937040315
738506.39828585297800600529,-18.3159886471145,-11.9183172093875,-300.016632587664
738506.39828594331629574299,-18.8698995941038,-11.7429120761742,-300.136646626179
738506.39828603377100080252,-18.685262611774,-11.5398113956114,-300.044328135014
738506.39828612422570586205,-18.3713797418134,-11.493652150029,-300.035096285897
738506.39828621468041092157,-18.3344523453475,-11.512115848262,-299.970473342082
738506.39828630513511598110,-18.3436841944639,-11.5398113956114,-300.016632587664
738506.39828639558982104063,-18.3621478926969,-11.5305795464949,-300.016632587664
738506.39828648592811077833,-18.3621478926969,-11.5305795464949,-299.979705191198
738506.39828657638281583786,-18.3621478926969,-11.5213476973785,-300.05355998413
738506.39828666683752089739,-18.3529160435804,-11.5305795464949,-300.016632587664
738506.39828675729222595692,-18.3344523453475,-11.5213476973785,-299.988937040315
738506.39828684774693101645,-18.3344523453475,-11.5213476973785,-300.007400738548
738506.39828693808522075415,-18.325220496231,-11.512115848262,-300.044328135014
738506.39828702853992581367,-18.3159886471145,-11.512115848262,-300.016632587664
738506.39828711899463087320,-18.2975249488815,-11.5028839991455,-300.099719229713
738506.39828720944933593273,-18.2975249488815,-11.5028839991455,-300.05355998413
738506.39828729990404099226,-18.269829401532,-11.4844203009125,-300.007400738548
738506.39828739035874605179,-18.269829401532,-11.493652150029,-300.05355998413
738506.39828748069703578949,-18.2513657032991,-11.475188451796,-300.025864436781
738506.39828757115174084902,-18.2513657032991,-11.4844203009125,-299.988937040315
738506.39828766160644590855,-18.2144383068331,-11.4659566026795,-300.016632587664
738506.39828775206115096807,-18.2144383068331,-11.475188451796,-299.998168889431
738506.39828784251585602760,-18.1959746086001,-11.456724753563,-300.007400738548
738506.39828793285414576530,-18.1682790612506,-11.456724753563,-299.988937040315
738506.39828802330885082483,-18.1498153630177,-11.4382610553301,-299.998168889431
738506.39828811376355588436,-18.1405835139012,-11.4290292062136,-299.988937040315
738506.39828820421826094389,-18.1128879665517,-11.4290292062136,-299.915082247383
738506.39828829467296600342,-18.0759605700858,-11.3921018097476,-299.942777794732
738506.39828838512767106295,-18.0390331736198,-11.3828699606311,-299.9243140965
738506.39828847546596080065,-17.9928739280374,-11.3551744132817,-299.933545945616
738506.39828856592066586018,-17.9651783806879,-11.3459425641652,-299.933545945616
738506.39828865637537091970,-17.9190191351054,-11.3182470168157,-299.89661854915
738506.39828874683007597923,-17.8820917386395,-11.3090151676992,-299.850459303568
738506.39828883728478103876,-17.85439619129,-11.2997833185827,-299.9243140965
738506.39828892762307077646,-17.85439619129,-11.3090151676992,-299.942777794732
738506.39828901807777583599,-17.835932493057,-11.3090151676992,-299.952009643849
738506.39828910853248089552,-17.872859889523,-11.3274788659322,-299.831995605335
738506.39828919898718595505,-17.9282509842219,-11.3644062623981,-299.942777794732
738506.39828928944189101458,-18.0205694753868,-11.4105655079806,-299.915082247383
738506.39828937989659607410,-18.0944242683187,-11.4474929044465,-299.970473342082
738506.39828947023488581181,-18.1867427594836,-11.4844203009125,-299.988937040315
738506.39828956068959087133,-18.2236701559496,-11.5028839991455,-300.016632587664
738506.39828965114429593086,-18.2790612506485,-11.5305795464949,-300.025864436781
738506.39828974159900099039,-18.306756797998,-11.5398113956114,-300.05355998413
738506.39828983205370604992,-18.325220496231,-11.5398113956114,-300.016632587664
738506.39828992239199578762,-18.325220496231,-11.5398113956114,-300.072023682363
738506.39829001284670084715,-18.325220496231,-11.5305795464949,-300.062791833247
738506.39829010330140590668,-18.3344523453475,-11.5490432447279,-300.062791833247
738506.39829019375611096621,-18.325220496231,-11.5398113956114,-300.05355998413
738506.39829028421081602573,-18.3344523453475,-11.5398113956114,-300.08125553148
738506.39829037466552108526,-18.325220496231,-11.5398113956114,-300.108951078829
738506.39829046500381082296,-18.3344523453475,-11.5398113956114,-300.007400738548
738506.39829055545851588249,-18.3159886471145,-11.5305795464949,-300.090487380596
738506.39829064591322094202,-18.325220496231,-11.5398113956114,-300.007400738548
738506.39829073636792600155,-18.306756797998,-11.5398113956114,-300.025864436781
738506.39829082682263106108,-18.325220496231,-11.5398113956114,-300.090487380596
738506.39829091716092079878,-18.3159886471145,-11.5398113956114,-300.05355998413
738506.39829100761562585831,-18.325220496231,-11.5398113956114,-300.025864436781
738506.39829109807033091784,-18.325220496231,-11.5398113956114,-300.035096285897
738506.39829118852503597736,-18.325220496231,-11.5490432447279,-300.035096285897
738506.39829127897974103689,-18.325220496231,-11.5398113956114,-300.08125553148
738506.39829136943444609642,-18.3344523453475,-11.5398113956114,-300.05355998413
738506.39829145977273583412,-18.325220496231,-11.5398113956114,-300.090487380596
738506.39829155022744089365,-18.3344523453475,-11.5305795464949,-300.118182927946
738506.39829164068214595318,-18.3436841944639,-11.5398113956114,-300.007400738548
738506.39829173113685101271,-18.3436841944639,-11.5398113956114,-300.090487380596
738506.39829182159155607224,-18.3436841944639,-11.5490432447279,-300.08125553148
738506.39829191192984580994,-18.3344523453475,-11.5398113956114,-300.099719229713
738506.39829200238455086946,-18.3529160435804,-11.5305795464949,-300.044328135014
738506.39829209283925592899,-18.3344523453475,-11.5398113956114,-299.998168889431
738506.39829218329396098852,-18.3436841944639,-11.5490432447279,-299.961241492965
738506.39829227374866604805,-18.3529160435804,-11.5398113956114,-299.878154850917
738506.39829236420337110758,-18.3529160435804,-11.5398113956114,-299.998168889431
738506.39829245454166084528,-18.3529160435804,-11.5490432447279,-300.05355998413
738506.39829254499636590481,-18.3529160435804,-11.5490432447279,-300.035096285897
738506.39829263545107096434,-18.3621478926969,-11.5582750938444,-300.035096285897
738506.39829272590577602386,-18.3529160435804,-11.5490432447279,-300.05355998413
738506.39829281636048108339,-18.3621478926969,-11.5490432447279,-300.035096285897
738506.39829290669877082109,-18.3529160435804,-11.5490432447279,-300.05355998413
738506.39829299715347588062,-18.3621478926969,-11.5582750938444,-300.044328135014
738506.39829308760818094015,-18.3529160435804,-11.5398113956114,-300.062791833247
738506.39829317806288599968,-18.3713797418134,-11.5582750938444,-300.025864436781
738506.39829326851759105921,-18.3621478926969,-11.5490432447279,-300.05355998413
738506.39829335897229611874,-18.3713797418134,-11.5582750938444,-300.035096285897
738506.39829344931058585644,-18.3529160435804,-11.5490432447279,-300.044328135014
738506.39829353976529091597,-18.3713797418134,-11.5582750938444,-300.062791833247
738506.39829363021999597549,-18.3621478926969,-11.5398113956114,-300.062791833247
738506.39829372067470103502,-18.3713797418134,-11.5398113956114,-300.062791833247
738506.39829381112940609455,-18.3621478926969,-11.5582750938444,-300.05355998413
738506.39829390146769583225,-18.3713797418134,-11.5490432447279,-299.970473342082
738506.39829399192240089178,-18.3806115909299,-11.5582750938444,-299.979705191198
738506.39829408237710595131,-18.3713797418134,-11.5490432447279,-300.016632587664
738506.39829417283181101084,-18.3806115909299,-11.5582750938444,-300.035096285897
738506.39829426328651607037,-18.3713797418134,-11.5490432447279,-300.08125553148
738506.39829435374122112989,-18.3713797418134,-11.5582750938444,-300.072023682363
738506.39829444407951086760,-18.3621478926969,-11.5490432447279,-300.044328135014
738506.39829453453421592712,-18.3713797418134,-11.5582750938444,-300.118182927946
738506.39829462498892098665,-18.3713797418134,-11.5490432447279,-300.127414777062
738506.39829471544362604618,-18.3806115909299,-11.5582750938444,-300.05355998413
738506.39829480589833110571,-18.3621478926969,-11.5582750938444,-300.090487380596
738506.39829489623662084341,-18.3806115909299,-11.5675069429609,-300.108951078829
738506.39829498669132590294,-18.3621478926969,-11.5490432447279,-300.118182927946
738506.39829507714603096247,-18.3529160435804,-11.5490432447279,-300.072023682363
738506.39829516760073602200,-18.3159886471145,-11.5490432447279,-300.118182927946
738506.39829525805544108152,-18.3344523453475,-11.5398113956114,-300.127414777062
738506.39829534851014614105,-18.306756797998,-11.5305795464949,-300.016632587664
738506.39829543884843587875,-18.2605975524155,-11.5398113956114,-300.035096285897
738506.39829552930314093828,-18.2052064577166,-11.5213476973785,-300.016632587664
738506.39829561975784599781,-18.1959746086001,-11.5213476973785,-300.090487380596
738506.39829571021255105734,-18.2052064577166,-11.5490432447279,-300.108951078829
738506.39829580066725611687,-18.1775109103671,-11.5213476973785,-299.988937040315
738506.39829589100554585457,-18.2236701559496,-11.5213476973785,-300.072023682363
738506.39829598146025091410,-18.288293099765,-11.5398113956114,-300.118182927946
738506.39829607191495597363,-18.3529160435804,-11.5490432447279,-300.062791833247
738506.39829616236966103315,-18.3806115909299,-11.5490432447279,-300.05355998413
738506.39829625282436609268,-18.4175389873959,-11.5582750938444,-300.08125553148
738506.39829634327907115221,-18.4083071382794,-11.5490432447279,-300.072023682363
738506.39829643361736088991,-18.4083071382794,-11.5490432447279,-300.044328135014
