time_dn,ecg_projection_ll_ra_mV,ecg_projection_la_ra_mV,ecg_projection_vx_rl_mV
738506.41145775443874299526,-19.8854029969176,-10.7551042207099,-300.718253120518
738506.41145784489344805479,-19.9038666951506,-10.7735679189428,-300.7644123661
738506.41145793534815311432,-19.8854029969176,-10.7643360698263,-300.7644123661
738506.41145802580285817385,-19.9038666951506,-10.7735679189428,-300.755180516984
738506.41145811625756323338,-19.8946348460341,-10.7643360698263,-300.718253120518
738506.41145820671226829290,-19.8946348460341,-10.7735679189428,-300.625934629353
738506.41145829705055803061,-19.8946348460341,-10.7643360698263,-300.755180516984
738506.41145838750526309013,-19.9038666951506,-10.7735679189428,-300.681325724052
738506.41145847795996814966,-19.9038666951506,-10.7643360698263,-300.727484969634
738506.41145856841467320919,-19.9130985442671,-10.7643360698263,-300.718253120518
738506.41145865886937826872,-19.8946348460341,-10.7735679189428,-300.653630176702
738506.41145874932408332825,-19.8946348460341,-10.7735679189428,-300.709021271401
738506.41145883977878838778,-19.9038666951506,-10.7735679189428,-300.718253120518
738506.41145893023349344730,-19.8669392986847,-10.7551042207099,-300.690557573168
738506.41145902057178318501,-19.8577074495682,-10.7643360698263,-300.718253120518
738506.41145911102648824453,-19.8115482039857,-10.7366405224769,-300.718253120518
738506.41145920148119330406,-19.7838526566362,-10.7458723715934,-300.709021271401
738506.41145929193589836359,-19.7561571092868,-10.7551042207099,-300.690557573168
738506.41145938239060342312,-19.7561571092868,-10.7551042207099,-300.709021271401
738506.41145947284530848265,-19.7284615619373,-10.7274086733604,-300.699789422285
738506.41145956330001354218,-19.7469252601703,-10.7551042207099,-300.653630176702
738506.41145965363830327988,-19.8207800531022,-10.7458723715934,-300.709021271401
738506.41145974409300833941,-19.8577074495682,-10.7551042207099,-300.699789422285
738506.41145983454771339893,-19.9038666951506,-10.7735679189428,-300.709021271401
738506.41145992500241845846,-19.9315622425001,-10.7827997680593,-300.653630176702
738506.41146001545712351799,-19.9500259407331,-10.7920316171758,-300.662862025819
738506.41146010591182857752,-19.9592577898495,-10.7735679189428,-300.662862025819
738506.41146019636653363705,-19.9592577898495,-10.7920316171758,-300.616702780236
738506.41146028682123869658,-19.968489638966,-10.7827997680593,-300.662862025819
738506.41146037715952843428,-19.986953337199,-10.8012634662923,-300.718253120518
738506.41146046761423349380,-19.9592577898495,-10.7735679189428,-300.690557573168
738506.41146055806893855333,-19.9777214880825,-10.8012634662923,-300.709021271401
738506.41146064852364361286,-19.9500259407331,-10.7643360698263,-300.718253120518
738506.41146073897834867239,-19.968489638966,-10.7827997680593,-300.672093874935
738506.41146082943305373192,-19.9592577898495,-10.7735679189428,-300.727484969634
738506.41146091988775879145,-19.986953337199,-10.7735679189428,-300.709021271401
738506.41146101022604852915,-19.986953337199,-10.6904812768944,-300.635166478469
738506.41146110068075358868,-19.7653889584033,-10.6166264839625,-300.625934629353
738506.41146119113545864820,-19.2853328043458,-10.5520035401471,-300.552079836421
738506.41146128159016370773,-18.9529862361522,-10.8104953154088,-300.589007232887
738506.41146137204486876726,-19.2207098605304,-11.059755241554,-300.690557573168
738506.41146146249957382679,-20.3562273018586,-11.1151463362529,-300.838267159032
738506.41146155295427888632,-20.3746910000916,-10.8658864101077,-300.838267159032
738506.41146164340898394585,-20.2546769615772,-10.7551042207099,-300.690557573168
738506.41146173374727368355,-19.9777214880825,-10.6997131260109,-300.598239082003
738506.41146182420197874308,-19.8577074495682,-10.7089449751274,-300.755180516984
738506.41146191465668380260,-19.8761711478011,-10.7366405224769,-300.662862025819
738506.41146200511138886213,-19.8761711478011,-10.7181768242439,-300.727484969634
738506.41146209556609392166,-19.8946348460341,-10.7458723715934,-300.745948667867
738506.41146218602079898119,-19.8577074495682,-10.7181768242439,-300.718253120518
738506.41146227647550404072,-19.8761711478011,-10.7366405224769,-300.709021271401
738506.41146236681379377842,-19.8577074495682,-10.7181768242439,-300.782876064333
738506.41146245726849883795,-19.8577074495682,-10.7274086733604,-300.745948667867
738506.41146254772320389748,-19.8392437513352,-10.7089449751274,-300.709021271401
738506.41146263817790895700,-19.8300119022187,-10.7181768242439,-300.709021271401
738506.41146272863261401653,-19.8207800531022,-10.6997131260109,-300.709021271401
738506.41146281908731907606,-19.8207800531022,-10.7089449751274,-300.662862025819
738506.41146290954202413559,-19.7930845057527,-10.6997131260109,-300.690557573168
738506.41146299999672919512,-19.8023163548692,-10.6997131260109,-300.699789422285
738506.41146309033501893282,-19.7746208075198,-10.6904812768944,-300.672093874935
738506.41146318078972399235,-19.7469252601703,-10.6812494277779,-300.681325724052
738506.41146327124442905188,-19.7561571092868,-10.6812494277779,-300.681325724052
738506.41146336169913411140,-19.7376934110538,-10.6720175786615,-300.681325724052
738506.41146345215383917093,-19.7284615619373,-10.6720175786615,-300.644398327586
738506.41146354260854423046,-19.7007660145878,-10.6535538804285,-300.672093874935
738506.41146363306324928999,-19.7007660145878,-10.6535538804285,-300.662862025819
738506.41146372351795434952,-19.6453749198889,-10.625858333079,-300.662862025819
738506.41146381385624408722,-19.6361430707724,-10.625858333079,-300.625934629353
738506.41146390431094914675,-19.58998382519,-10.5981627857295,-300.644398327586
738506.41146399476565420628,-19.5622882778405,-10.5796990874966,-300.598239082003
738506.41146408522035926580,-19.534592730491,-10.5612353892636,-300.57977538377
738506.41146417567506432533,-19.4976653340251,-10.5612353892636,-300.561311685537
738506.41146426612976938486,-19.4607379375591,-10.5427716910306,-300.570543534654
738506.41146435658447444439,-19.4330423902097,-10.5335398419141,-300.570543534654
738506.41146444692276418209,-19.4238105410932,-10.5243079927976,-300.570543534654
738506.41146453737746924162,-19.4238105410932,-10.5243079927976,-300.60747093112
738506.41146462783217430115,-19.4515060884426,-10.5520035401471,-300.589007232887
738506.41146471828687936068,-19.5161290322581,-10.5796990874966,-300.589007232887
738506.41146480874158442020,-19.608447523423,-10.6350901821955,-300.662862025819
738506.41146489919628947973,-19.6823023163549,-10.662785729545,-300.644398327586
738506.41146498965099453926,-19.7653889584033,-10.7089449751274,-300.681325724052
738506.41146508010569959879,-19.7930845057527,-10.7089449751274,-300.709021271401
738506.41146517044398933649,-19.8484756004517,-10.7458723715934,-300.515152439955
738506.41146526089869439602,-19.8577074495682,-10.7366405224769,-300.644398327586
738506.41146535135339945555,-19.9038666951506,-10.7643360698263,-300.718253120518
738506.41146544180810451508,-19.8854029969176,-10.7458723715934,-300.699789422285
738506.41146553226280957460,-19.8946348460341,-10.7643360698263,-300.681325724052
738506.41146562271751463413,-19.8946348460341,-10.7643360698263,-300.690557573168
738506.41146571317221969366,-19.8946348460341,-10.7643360698263,-300.736716818751
738506.41146580351050943136,-19.8946348460341,-10.7643360698263,-300.699789422285
738506.41146589396521449089,-19.8854029969176,-10.7551042207099,-300.672093874935
738506.41146598441991955042,-19.8854029969176,-10.7735679189428,-300.690557573168
738506.41146607487462460995,-19.8761711478011,-10.7551042207099,-300.718253120518
738506.41146616532932966948,-19.8854029969176,-10.7643360698263,-300.736716818751
738506.41146625578403472900,-19.8761711478011,-10.7551042207099,-300.718253120518
738506.41146634623873978853,-19.8761711478011,-10.7643360698263,-300.7644123661
738506.41146643669344484806,-19.8669392986847,-10.7551042207099,-300.745948667867
738506.41146652703173458576,-19.8761711478011,-10.7643360698263,-300.773644215217
738506.41146661748643964529,-19.8577074495682,-10.7458723715934,-300.709021271401
738506.41146670794114470482,-19.8854029969176,-10.7735679189428,-300.727484969634
738506.41146679839584976435,-19.8761711478011,-10.7551042207099,-300.745948667867
738506.41146688885055482388,-19.8854029969176,-10.7643360698263,-300.672093874935
738506.41146697930525988340,-19.8669392986847,-10.7551042207099,-300.773644215217
738506.41146706975996494293,-19.8761711478011,-10.7735679189428,-300.773644215217
738506.41146716009825468063,-19.8761711478011,-10.7643360698263,-300.699789422285
738506.41146725055295974016,-19.8854029969176,-10.7643360698263,-300.736716818751
738506.41146734100766479969,-19.8946348460341,-10.7735679189428,-300.736716818751
738506.41146743146236985922,-19.8946348460341,-10.7643360698263,-300.736716818751
738506.41146752191707491875,-19.9038666951506,-10.7827997680593,-300.690557573168
738506.41146761237177997828,-19.8946348460341,-10.7735679189428,-300.7644123661
738506.41146770282648503780,-19.9038666951506,-10.7827997680593,-300.745948667867
738506.41146779328119009733,-19.9038666951506,-10.7643360698263,-300.672093874935
738506.41146788361947983503,-19.9130985442671,-10.7827997680593,-300.736716818751
738506.41146797407418489456,-19.9038666951506,-10.7643360698263,-300.755180516984
738506.41146806452888995409,-19.9038666951506,-10.7827997680593,-300.755180516984
738506.41146815498359501362,-19.8946348460341,-10.7643360698263,-300.755180516984
738506.41146824543830007315,-19.9130985442671,-10.7735679189428,-300.755180516984
738506.41146833589300513268,-19.9038666951506,-10.7643360698263,-300.727484969634
738506.41146842634771019220,-19.9130985442671,-10.7735679189428,-300.736716818751
738506.41146851668599992990,-19.9038666951506,-10.7643360698263,-300.681325724052
738506.41146860714070498943,-19.9130985442671,-10.7827997680593,-300.727484969634
738506.41146869759541004896,-19.9130985442671,-10.7735679189428,-300.699789422285
738506.41146878805011510849,-19.9130985442671,-10.7735679189428,-300.709021271401
738506.41146887850482016802,-19.9038666951506,-10.7735679189428,-300.755180516984
738506.41146896895952522755,-19.9038666951506,-10.7735679189428,-300.773644215217
738506.41146905941423028708,-19.9038666951506,-10.7735679189428,-300.718253120518
738506.41146914986893534660,-19.9130985442671,-10.7735679189428,-300.727484969634
738506.41146924020722508430,-19.9223303933836,-10.7827997680593,-300.782876064333
738506.41146933066193014383,-19.9038666951506,-10.7735679189428,-300.7644123661
738506.41146942111663520336,-19.9038666951506,-10.7827997680593,-300.690557573168
738506.41146951157134026289,-19.8761711478011,-10.7643360698263,-300.709021271401
738506.41146960202604532242,-19.8577074495682,-10.7643360698263,-300.662862025819
738506.41146969248075038195,-19.8023163548692,-10.7458723715934,-300.644398327586
738506.41146978293545544147,-19.7746208075198,-10.7551042207099,-300.672093874935
738506.41146987339016050100,-19.7561571092868,-10.7643360698263,-300.681325724052
738506.41146996372845023870,-19.7376934110538,-10.7551042207099,-300.699789422285
738506.41147005418315529823,-19.7284615619373,-10.7458723715934,-300.727484969634
738506.41147014463786035776,-19.7838526566362,-10.7458723715934,-300.755180516984
738506.41147023509256541729,-19.8484756004517,-10.7643360698263,-300.782876064333
738506.41147032554727047682,-19.8946348460341,-10.7735679189428,-300.699789422285
738506.41147041600197553635,-19.9315622425001,-10.7827997680593,-300.736716818751
738506.41147050645668059587,-19.9500259407331,-10.7920316171758,-300.773644215217
738506.41147059679497033358,-19.9500259407331,-10.7920316171758,-300.727484969634
738506.41147068724967539310,-19.9592577898495,-10.7920316171758,-300.79210791345
738506.41147077770438045263,-19.9592577898495,-10.7920316171758,-300.810571611682
738506.41147086815908551216,-19.9500259407331,-10.7827997680593,-300.745948667867
738506.41147095861379057169,-19.9592577898495,-10.7827997680593,-300.727484969634
738506.41147104906849563122,-19.9500259407331,-10.7735679189428,-300.773644215217
738506.41147113952320069075,-19.9592577898495,-10.7827997680593,-300.7644123661
738506.41147122997790575027,-19.9500259407331,-10.7735679189428,-300.727484969634
738506.41147132031619548798,-19.9500259407331,-10.7827997680593,-300.801339762566
738506.41147141077090054750,-19.9407940916166,-10.7735679189428,-300.727484969634
738506.41147150122560560703,-19.9777214880825,-10.7366405224769,-300.690557573168
738506.41147159168031066656,-19.9223303933836,-10.6812494277779,-300.699789422285
738506.41147168213501572609,-19.6361430707724,-10.5889309366131,-300.644398327586
738506.41147177258972078562,-19.1468550675985,-10.607394634846,-300.589007232887
738506.41147186304442584515,-18.8514358958708,-10.9212775048067,-300.635166478469
738506.41147195338271558285,-19.5253608813746,-11.1243781853694,-300.690557573168
738506.41147204383742064238,-20.420850245674,-11.059755241554,-300.782876064333
738506.41147213429212570190,-20.2731406598102,-10.7920316171758,-300.699789422285
738506.41147222474683076143,-19.9500259407331,-10.6812494277779,-300.552079836421
738506.41147231520153582096,-19.8300119022187,-10.7181768242439,-300.60747093112
738506.41147240565624088049,-19.8207800531022,-10.7366405224769,-300.672093874935
738506.41147249611094594002,-19.8392437513352,-10.7458723715934,-300.653630176702
738506.41147258656565099955,-19.8300119022187,-10.7366405224769,-300.690557573168
738506.41147267690394073725,-19.8300119022187,-10.7366405224769,-300.653630176702
738506.41147276735864579678,-19.8115482039857,-10.7181768242439,-300.644398327586
738506.41147285781335085630,-19.8115482039857,-10.7274086733604,-300.644398327586
738506.41147294826805591583,-19.8023163548692,-10.7274086733604,-300.699789422285
738506.41147303872276097536,-19.7930845057527,-10.7181768242439,-300.727484969634
738506.41147312917746603489,-19.7930845057527,-10.7274086733604,-300.672093874935
738506.41147321963217109442,-19.7746208075198,-10.7181768242439,-300.709021271401
738506.41147330997046083212,-19.7746208075198,-10.7181768242439,-300.644398327586
738506.41147340042516589165,-19.7469252601703,-10.7089449751274,-300.616702780236
738506.41147349087987095118,-19.7469252601703,-10.7181768242439,-300.625934629353
738506.41147358133457601070,-19.7284615619373,-10.6997131260109,-300.635166478469
738506.41147367178928107023,-19.7284615619373,-10.7181768242439,-300.625934629353
738506.41147376224398612976,-19.6915341654714,-10.6904812768944,-300.616702780236
738506.41147385269869118929,-19.6823023163549,-10.6904812768944,-300.616702780236
738506.41147394315339624882,-19.6638386181219,-10.6720175786615,-300.662862025819
738506.41147403349168598652,-19.6453749198889,-10.6720175786615,-300.662862025819
738506.41147412394639104605,-19.608447523423,-10.644322031312,-300.625934629353
738506.41147421440109610558,-19.5992156743065,-10.644322031312,-300.616702780236
738506.41147430485580116510,-19.553056428724,-10.6166264839625,-300.60747093112
738506.41147439531050622463,-19.5253608813746,-10.607394634846,-300.598239082003
738506.41147448576521128416,-19.4884334849086,-10.5796990874966,-300.644398327586
738506.41147457621991634369,-19.4515060884426,-10.5704672383801,-300.625934629353
738506.41147466667462140322,-19.4053468428602,-10.5427716910306,-300.635166478469
738506.41147475701291114092,-19.3961149937437,-10.5335398419141,-300.653630176702
738506.41147484746761620045,-19.3684194463942,-10.5427716910306,-300.561311685537
738506.41147493792232125998,-19.3314920499283,-10.5150761436811,-300.635166478469
738506.41147502837702631950,-19.3314920499283,-10.5335398419141,-300.653630176702
738506.41147511883173137903,-19.3407238990448,-10.5335398419141,-300.635166478469
738506.41147520928643643856,-19.4053468428602,-10.5704672383801,-300.616702780236
738506.41147529974114149809,-19.4792016357921,-10.5981627857295,-300.662862025819
738506.41147539007943123579,-19.571520126957,-10.6535538804285,-300.681325724052
738506.41147548053413629532,-19.6361430707724,-10.6812494277779,-300.672093874935
738506.41147557098884135485,-19.7099978637043,-10.7181768242439,-300.727484969634
738506.41147566144354641438,-19.7469252601703,-10.7366405224769,-300.755180516984
738506.41147575189825147390,-19.7746208075198,-10.7458723715934,-300.552079836421
738506.41147584235295653343,-19.7930845057527,-10.7551042207099,-300.644398327586
738506.41147593280766159296,-19.8023163548692,-10.7643360698263,-300.745948667867
738506.41147602326236665249,-19.8023163548692,-10.7643360698263,-300.718253120518
738506.41147611360065639019,-19.8115482039857,-10.7643360698263,-300.736716818751
738506.41147620405536144972,-19.8023163548692,-10.7643360698263,-300.755180516984
738506.41147629451006650925,-19.8023163548692,-10.7643360698263,-300.745948667867
738506.41147638496477156878,-19.8023163548692,-10.7643360698263,-300.709021271401
738506.41147647541947662830,-19.8023163548692,-10.7643360698263,-300.755180516984
738506.41147656587418168783,-19.7930845057527,-10.7643360698263,-300.7644123661
738506.41147665632888674736,-19.7930845057527,-10.7551042207099,-300.699789422285
738506.41147674666717648506,-19.8023163548692,-10.7643360698263,-300.727484969634
738506.41147683712188154459,-19.7930845057527,-10.7551042207099,-300.7644123661
738506.41147692757658660412,-19.7930845057527,-10.7643360698263,-300.727484969634
738506.41147701803129166365,-19.7930845057527,-10.7458723715934,-300.709021271401
738506.41147710848599672318,-19.7930845057527,-10.7643360698263,-300.7644123661
738506.41147719894070178270,-19.7930845057527,-10.7643360698263,-300.773644215217
738506.41147728939540684223,-19.7930845057527,-10.7643360698263,-300.690557573168
738506.41147737985011190176,-19.7930845057527,-10.7643360698263,-300.718253120518
738506.41147747018840163946,-19.7930845057527,-10.7735679189428,-300.662862025819
738506.41147756064310669899,-19.8023163548692,-10.7643360698263,-300.653630176702
738506.41147765109781175852,-19.8115482039857,-10.7643360698263,-300.616702780236
738506.41147774155251681805,-19.8115482039857,-10.7643360698263,-300.644398327586
738506.41147783200722187757,-19.8115482039857,-10.7643360698263,-300.635166478469
738506.41147792246192693710,-19.8207800531022,-10.7735679189428,-300.635166478469
738506.41147801291663199663,-19.8115482039857,-10.7643360698263,-300.662862025819
738506.41147810325492173433,-19.8300119022187,-10.7735679189428,-300.625934629353
738506.41147819370962679386,-19.8207800531022,-10.7643360698263,-300.690557573168
738506.41147828416433185339,-19.8300119022187,-10.7735679189428,-300.672093874935
738506.41147837461903691292,-19.8207800531022,-10.7643360698263,-300.718253120518
738506.41147846507374197245,-19.8300119022187,-10.7827997680593,-300.709021271401
738506.41147855552844703197,-19.8300119022187,-10.7735679189428,-300.718253120518
738506.41147864598315209150,-19.8207800531022,-10.7735679189428,-300.672093874935
738506.41147873643785715103,-19.8207800531022,-10.7735679189428,-300.644398327586
738506.41147882677614688873,-19.8300119022187,-10.7735679189428,-300.653630176702
738506.41147891723085194826,-19.8300119022187,-10.7827997680593,-300.745948667867
738506.41147900768555700779,-19.8207800531022,-10.7735679189428,-300.736716818751
738506.41147909814026206732,-19.8300119022187,-10.7827997680593,-300.681325724052
738506.41147918859496712685,-19.8207800531022,-10.7735679189428,-300.736716818751
738506.41147927904967218637,-19.8300119022187,-10.7920316171758,-300.616702780236
738506.41147936950437724590,-19.8115482039857,-10.7735679189428,-300.625934629353
738506.41147945984266698360,-19.8300119022187,-10.7920316171758,-300.718253120518
738506.41147955029737204313,-19.8207800531022,-10.7735679189428,-300.736716818751
738506.41147964075207710266,-19.8300119022187,-10.7827997680593,-300.745948667867
738506.41147973120678216219,-19.8207800531022,-10.7735679189428,-300.727484969634
738506.41147982166148722172,-19.8300119022187,-10.7827997680593,-300.745948667867
738506.41147991211619228125,-19.8115482039857,-10.7643360698263,-300.736716818751
738506.41148000257089734077,-19.8300119022187,-10.7827997680593,-300.662862025819
738506.41148009302560240030,-19.8207800531022,-10.7735679189428,-300.718253120518
738506.41148018336389213800,-19.8207800531022,-10.7735679189428,-300.7644123661
738506.41148027381859719753,-19.8207800531022,-10.7735679189428,-300.727484969634
738506.41148036427330225706,-19.8207800531022,-10.7827997680593,-300.699789422285
738506.41148045472800731659,-19.8300119022187,-10.7827997680593,-300.7644123661
738506.41148054518271237612,-19.8207800531022,-10.7735679189428,-300.773644215217
738506.41148063563741743565,-19.8207800531022,-10.7827997680593,-300.653630176702
738506.41148072609212249517,-19.8207800531022,-10.7643360698263,-300.727484969634
738506.41148081654682755470,-19.8300119022187,-10.7827997680593,-300.755180516984
738506.41148090688511729240,-19.8115482039857,-10.7643360698263,-300.727484969634
738506.41148099733982235193,-19.8207800531022,-10.7827997680593,-300.755180516984
738506.41148108779452741146,-19.8207800531022,-10.7643360698263,-300.745948667867
738506.41148117824923247099,-19.8300119022187,-10.7827997680593,-300.736716818751
738506.41148126870393753052,-19.8207800531022,-10.7735679189428,-300.709021271401
738506.41148135915864259005,-19.8300119022187,-10.7827997680593,-300.736716818751
738506.41148144961334764957,-19.8023163548692,-10.7643360698263,-300.644398327586
738506.41148153995163738728,-19.8023163548692,-10.7735679189428,-300.625934629353
738506.41148163040634244680,-19.7653889584033,-10.7643360698263,-300.672093874935
738506.41148172086104750633,-19.7561571092868,-10.7551042207099,-300.681325724052
738506.41148181131575256586,-19.7099978637043,-10.7458723715934,-300.699789422285
738506.41148190177045762539,-19.6823023163549,-10.7643360698263,-300.690557573168
738506.41148199222516268492,-19.6823023163549,-10.7643360698263,-300.672093874935
738506.41148208267986774445,-19.6638386181219,-10.7366405224769,-300.635166478469
738506.41148217313457280397,-19.6638386181219,-10.7551042207099,-300.699789422285
738506.41148226347286254168,-19.6730704672384,-10.7366405224769,-300.718253120518
738506.41148235392756760120,-19.7469252601703,-10.7643360698263,-300.644398327586
738506.41148244438227266073,-19.8023163548692,-10.7643360698263,-300.625934629353
738506.41148253483697772026,-19.8484756004517,-10.7920316171758,-300.644398327586
738506.41148262529168277979,-19.8577074495682,-10.7827997680593,-300.644398327586
738506.41148271574638783932,-19.8761711478011,-10.7920316171758,-300.616702780236
738506.41148280620109289885,-19.8669392986847,-10.7827997680593,-300.635166478469
738506.41148289653938263655,-19.8854029969176,-10.8012634662923,-300.60747093112
738506.41148298699408769608,-19.8854029969176,-10.7920316171758,-300.727484969634
738506.41148307744879275560,-19.8854029969176,-10.8012634662923,-300.727484969634
738506.41148316790349781513,-19.8854029969176,-10.7920316171758,-300.736716818751
738506.41148325835820287466,-19.8761711478011,-10.7920316171758,-300.727484969634
738506.41148334881290793419,-19.8761711478011,-10.7920316171758,-300.755180516984
738506.41148343926761299372,-19.8761711478011,-10.7827997680593,-300.709021271401
738506.41148352972231805325,-19.8761711478011,-10.7920316171758,-300.755180516984
738506.41148362006060779095,-19.9130985442671,-10.7366405224769,-300.755180516984
738506.41148371051531285048,-19.8300119022187,-10.6720175786615,-300.690557573168
738506.41148380097001791000,-19.4699697866756,-10.5889309366131,-300.644398327586
738506.41148389142472296953,-19.0176091799676,-10.7089449751274,-300.653630176702
738506.41148398187942802906,-18.7960448011719,-10.9951322977386,-300.635166478469
738506.41148407233413308859,-19.6361430707724,-11.1336100344859,-300.625934629353
738506.41148416278883814812,-20.1531266212958,-11.0874507889035,-300.856730857265
738506.41148425312712788582,-20.2269814142277,-10.8197271645253,-300.801339762566
738506.41148434358183294535,-19.9223303933836,-10.6997131260109,-300.672093874935
738506.41148443403653800488,-19.7561571092868,-10.7181768242439,-300.718253120518
738506.41148452449124306440,-19.7653889584033,-10.7458723715934,-300.727484969634
738506.41148461494594812393,-19.7838526566362,-10.7458723715934,-300.709021271401
738506.41148470540065318346,-19.7930845057527,-10.7458723715934,-300.699789422285
738506.41148479585535824299,-19.7838526566362,-10.7366405224769,-300.681325724052
738506.41148488631006330252,-19.7838526566362,-10.7366405224769,-300.690557573168
738506.41148497664835304022,-19.7653889584033,-10.7274086733604,-300.690557573168
738506.41148506710305809975,-19.7653889584033,-10.7366405224769,-300.662862025819
738506.41148515755776315928,-19.7469252601703,-10.7181768242439,-300.690557573168
738506.41148524801246821880,-19.7561571092868,-10.7366405224769,-300.681325724052
738506.41148533846717327833,-19.7284615619373,-10.7181768242439,-300.672093874935
738506.41148542892187833786,-19.7192297128208,-10.7181768242439,-300.690557573168
738506.41148551937658339739,-19.7007660145878,-10.6997131260109,-300.672093874935
738506.41148560983128845692,-19.7007660145878,-10.7089449751274,-300.635166478469
738506.41148570016957819462,-19.6730704672384,-10.6904812768944,-300.635166478469
738506.41148579062428325415,-19.6730704672384,-10.6997131260109,-300.625934629353
738506.41148588107898831367,-19.6453749198889,-10.6720175786615,-300.644398327586
738506.41148597153369337320,-19.6361430707724,-10.6812494277779,-300.653630176702
738506.41148606198839843273,-19.6269112216559,-10.6720175786615,-300.635166478469
738506.41148615244310349226,-19.608447523423,-10.6535538804285,-300.662862025819
738506.41148624289780855179,-19.58998382519,-10.6535538804285,-300.653630176702
738506.41148633323609828949,-19.553056428724,-10.625858333079,-300.570543534654
738506.41148642369080334902,-19.534592730491,-10.625858333079,-300.496688741722
738506.41148651414550840855,-19.4884334849086,-10.5889309366131,-300.644398327586
738506.41148660460021346807,-19.4607379375591,-10.5796990874966,-300.57977538377
738506.41148669505491852760,-19.4145786919767,-10.5520035401471,-300.570543534654
738506.41148678550962358713,-19.3776512955107,-10.5427716910306,-300.570543534654
738506.41148687596432864666,-19.3407238990448,-10.5150761436811,-300.542847987304
738506.41148696641903370619,-19.3130283516953,-10.5150761436811,-300.524384289071
738506.41148705675732344389,-19.2761009552293,-10.4873805963317,-300.533616138188
738506.41148714721202850342,-19.2761009552293,-10.5058442945647,-300.552079836421
738506.41148723766673356295,-19.2668691061129,-10.5058442945647,-300.561311685537
738506.41148732812143862247,-19.3222602008118,-10.5427716910306,-300.598239082003
738506.41148741857614368200,-19.3961149937437,-10.5704672383801,-300.644398327586
738506.41148750903084874153,-19.4884334849086,-10.625858333079,-300.653630176702
738506.41148759948555380106,-19.571520126957,-10.662785729545,-300.57977538377
738506.41148768982384353876,-19.6546067690054,-10.6997131260109,-300.681325724052
738506.41148778027854859829,-19.7007660145878,-10.7181768242439,-300.709021271401
738506.41148787073325365782,-19.7192297128208,-10.7181768242439,-300.755180516984
738506.41148796118795871735,-19.7561571092868,-10.7458723715934,-300.653630176702
738506.41148805164266377687,-19.7561571092868,-10.7366405224769,-300.736716818751
738506.41148814209736883640,-19.7838526566362,-10.7551042207099,-300.727484969634
738506.41148823255207389593,-19.7746208075198,-10.7366405224769,-300.727484969634
738506.41148832300677895546,-19.7838526566362,-10.7551042207099,-300.709021271401
738506.41148841334506869316,-19.7653889584033,-10.7366405224769,-300.773644215217
738506.41148850379977375269,-19.7746208075198,-10.7458723715934,-300.745948667867
738506.41148859425447881222,-19.7653889584033,-10.7366405224769,-300.709021271401
738506.41148868470918387175,-19.7746208075198,-10.7551042207099,-300.7644123661
738506.41148877516388893127,-19.7653889584033,-10.7458723715934,-300.7644123661
738506.41148886561859399080,-19.7746208075198,-10.7551042207099,-300.709021271401
738506.41148895607329905033,-19.7653889584033,-10.7458723715934,-300.755180516984
738506.41148904641158878803,-19.7653889584033,-10.7458723715934,-300.755180516984
738506.41148913686629384756,-19.7653889584033,-10.7458723715934,-300.672093874935
738506.41148922732099890709,-19.7746208075198,-10.7458723715934,-300.755180516984
738506.41148931777570396662,-19.7746208075198,-10.7458723715934,-300.709021271401
738506.41148940823040902615,-19.7746208075198,-10.7458723715934,-300.699789422285
738506.41148949868511408567,-19.7838526566362,-10.7643360698263,-300.709021271401
738506.41148958913981914520,-19.7746208075198,-10.7458723715934,-300.662862025819
738506.41148967959452420473,-19.7838526566362,-10.7551042207099,-300.653630176702
738506.41148976993281394243,-19.7746208075198,-10.7366405224769,-300.672093874935
738506.41148986038751900196,-19.7838526566362,-10.7551042207099,-300.635166478469
738506.41148995084222406149,-19.7838526566362,-10.7458723715934,-300.552079836421
738506.41149004129692912102,-19.7838526566362,-10.7551042207099,-300.625934629353
738506.41149013175163418055,-19.7838526566362,-10.7458723715934,-300.635166478469
738506.41149022220633924007,-19.7838526566362,-10.7551042207099,-300.625934629353
738506.41149031266104429960,-19.7838526566362,-10.7551042207099,-300.635166478469
738506.41149040299933403730,-19.8023163548692,-10.7551042207099,-300.644398327586
738506.41149049345403909683,-19.8115482039857,-10.7643360698263,-300.644398327586
738506.41149058390874415636,-19.8115482039857,-10.7643360698263,-300.699789422285
738506.41149067436344921589,-19.8115482039857,-10.7643360698263,-300.690557573168
738506.41149076481815427542,-19.8115482039857,-10.7551042207099,-300.672093874935
738506.41149085527285933495,-19.8207800531022,-10.7735679189428,-300.672093874935
738506.41149094572756439447,-19.8115482039857,-10.7551042207099,-300.681325724052
738506.41149103618226945400,-19.8207800531022,-10.7735679189428,-300.718253120518
738506.41149112652055919170,-19.8207800531022,-10.7643360698263,-300.690557573168
738506.41149121697526425123,-19.8207800531022,-10.7643360698263,-300.718253120518
738506.41149130742996931076,-19.8207800531022,-10.7551042207099,-300.736716818751
738506.41149139788467437029,-19.8392437513352,-10.7735679189428,-300.672093874935
738506.41149148833937942982,-19.8300119022187,-10.7551042207099,-300.7644123661
738506.41149157879408448935,-19.8392437513352,-10.7735679189428,-300.773644215217
738506.41149166924878954887,-19.8392437513352,-10.7643360698263,-300.745948667867
738506.41149175970349460840,-19.8300119022187,-10.7643360698263,-300.662862025819
738506.41149185004178434610,-19.8392437513352,-10.7735679189428,-300.745948667867
738506.41149194049648940563,-19.8484756004517,-10.7643360698263,-300.7644123661
738506.41149203095119446516,-19.8484756004517,-10.7735679189428,-300.718253120518
738506.41149212140589952469,-19.8484756004517,-10.7643360698263,-300.745948667867
738506.41149221186060458422,-19.8484756004517,-10.7827997680593,-300.736716818751
738506.41149230231530964375,-19.8392437513352,-10.7735679189428,-300.745948667867
738506.41149239277001470327,-19.8484756004517,-10.7827997680593,-300.727484969634
738506.41149248310830444098,-19.8392437513352,-10.7643360698263,-300.773644215217
738506.41149257356300950050,-19.8577074495682,-10.7827997680593,-300.773644215217
738506.41149266401771456003,-19.8484756004517,-10.7643360698263,-300.699789422285
738506.41149275447241961956,-19.8669392986847,-10.7827997680593,-300.755180516984
738506.41149284492712467909,-19.8392437513352,-10.7643360698263,-300.745948667867
738506.41149293538182973862,-19.8577074495682,-10.7827997680593,-300.672093874935
738506.41149302583653479815,-19.8484756004517,-10.7735679189428,-300.736716818751
738506.41149311629123985767,-19.8577074495682,-10.7827997680593,-300.79210791345
738506.41149320662952959538,-19.8484756004517,-10.7735679189428,-300.736716818751
738506.41149329708423465490,-19.8577074495682,-10.7735679189428,-300.727484969634
738506.41149338753893971443,-19.8577074495682,-10.7735679189428,-300.552079836421
738506.41149347799364477396,-19.8577074495682,-10.7735679189428,-300.60747093112
738506.41149356844834983349,-19.8577074495682,-10.7827997680593,-300.681325724052
738506.41149365890305489302,-19.8484756004517,-10.7735679189428,-300.727484969634
738506.41149374935775995255,-19.8669392986847,-10.7827997680593,-300.782876064333
738506.41149383969604969025,-19.8484756004517,-10.7735679189428,-300.736716818751
738506.41149393015075474977,-19.8669392986847,-10.7920316171758,-300.727484969634
738506.41149402060545980930,-19.8577074495682,-10.7643360698263,-300.745948667867
738506.41149411106016486883,-19.8577074495682,-10.7827997680593,-300.773644215217
738506.41149420151486992836,-19.8207800531022,-10.7643360698263,-300.709021271401
738506.41149429196957498789,-19.8115482039857,-10.7643360698263,-300.7644123661
738506.41149438242428004742,-19.7930845057527,-10.7458723715934,-300.7644123661
738506.41149447287898510695,-19.7376934110538,-10.7551042207099,-300.662862025819
738506.41149456321727484465,-19.7099978637043,-10.7551042207099,-300.718253120518
738506.41149465367197990417,-19.7192297128208,-10.7643360698263,-300.690557573168
738506.41149474412668496370,-19.7099978637043,-10.7458723715934,-300.662862025819
738506.41149483458139002323,-19.7284615619373,-10.7458723715934,-300.625934629353
738506.41149492503609508276,-19.7838526566362,-10.7458723715934,-300.709021271401
738506.41149501549080014229,-19.8577074495682,-10.7735679189428,-300.681325724052
738506.41149510594550520182,-19.8854029969176,-10.7920316171758,-300.662862025819
738506.41149519628379493952,-19.9130985442671,-10.7920316171758,-300.653630176702
738506.41149528673849999905,-19.9130985442671,-10.8012634662923,-300.672093874935
738506.41149537719320505857,-19.9038666951506,-10.7827997680593,-300.662862025819
738506.41149546764791011810,-19.9315622425001,-10.8012634662923,-300.672093874935
738506.41149555810261517763,-19.9223303933836,-10.7827997680593,-300.690557573168
738506.41149564855732023716,-19.9315622425001,-10.8012634662923,-300.699789422285
738506.41149573901202529669,-19.9315622425001,-10.7920316171758,-300.681325724052
738506.41149582946673035622,-19.9407940916166,-10.8012634662923,-300.681325724052
738506.41149591980502009392,-19.9315622425001,-10.7827997680593,-300.736716818751
738506.41149601025972515345,-19.9407940916166,-10.7827997680593,-300.745948667867
738506.41149610071443021297,-19.9315622425001,-10.7827997680593,-300.745948667867
738506.41149619116913527250,-19.9407940916166,-10.7827997680593,-300.699789422285
738506.41149628162384033203,-19.9592577898495,-10.7089449751274,-300.745948667867
738506.41149637207854539156,-19.7746208075198,-10.6350901821955,-300.681325724052
738506.41149646253325045109,-19.3776512955107,-10.5704672383801,-300.589007232887
738506.41149655287154018879,-18.9991454817347,-10.7735679189428,-300.653630176702
738506.41149664332624524832,-19.0730002746666,-11.0689870906705,-300.699789422285
738506.41149673378095030785,-20.1808221686453,-11.1336100344859,-300.847499008148
738506.41149682423565536737,-20.383922849208,-10.9212775048067,-300.801339762566
738506.41149691469036042690,-20.1161992248299,-10.7089449751274,-300.570543534654
738506.41149700514506548643,-19.8761711478011,-10.6997131260109,-300.625934629353
738506.41149709559977054596,-19.8392437513352,-10.7274086733604,-300.709021271401
738506.41149718605447560549,-19.8577074495682,-10.7458723715934,-300.755180516984
738506.41149727639276534319,-19.8484756004517,-10.7366405224769,-300.736716818751
738506.41149736684747040272,-19.8577074495682,-10.7366405224769,-300.727484969634
738506.41149745730217546225,-19.8577074495682,-10.7366405224769,-300.709021271401
738506.41149754775688052177,-19.8577074495682,-10.7366405224769,-300.690557573168
738506.41149763821158558130,-19.8484756004517,-10.7366405224769,-300.681325724052
738506.41149772866629064083,-19.8300119022187,-10.7274086733604,-300.635166478469
738506.41149781912099570036,-19.8207800531022,-10.7366405224769,-300.635166478469
738506.41149790957570075989,-19.8115482039857,-10.7181768242439,-300.598239082003
738506.41149799991399049759,-19.8115482039857,-10.7274086733604,-300.589007232887
738506.41149809036869555712,-19.7838526566362,-10.7089449751274,-300.616702780236
738506.41149818082340061665,-19.7838526566362,-10.7181768242439,-300.60747093112
738506.41149827127810567617,-19.7561571092868,-10.6904812768944,-300.662862025819
738506.41149836173281073570,-19.7746208075198,-10.7089449751274,-300.635166478469
738506.41149845218751579523,-19.7469252601703,-10.6904812768944,-300.690557573168
738506.41149854264222085476,-19.7469252601703,-10.6997131260109,-300.644398327586
738506.41149863298051059246,-19.7192297128208,-10.6720175786615,-300.653630176702
738506.41149872343521565199,-19.7007660145878,-10.6812494277779,-300.60747093112
738506.41149881388992071152,-19.6730704672384,-10.6535538804285,-300.672093874935
738506.41149890434462577105,-19.6638386181219,-10.662785729545,-300.699789422285
738506.41149899479933083057,-19.6361430707724,-10.625858333079,-300.60747093112
738506.41149908525403589010,-19.6176793725394,-10.625858333079,-300.644398327586
738506.41149917570874094963,-19.5992156743065,-10.6166264839625,-300.653630176702
738506.41149926616344600916,-19.571520126957,-10.5981627857295,-300.653630176702
738506.41149935650173574686,-19.553056428724,-10.5889309366131,-300.625934629353
738506.41149944695644080639,-19.5068971831416,-10.5704672383801,-300.690557573168
738506.41149953741114586592,-19.4699697866756,-10.5612353892636,-300.690557573168
738506.41149962786585092545,-19.4422742393261,-10.5427716910306,-300.681325724052
738506.41149971832055598497,-19.4422742393261,-10.5520035401471,-300.589007232887
738506.41149980877526104450,-19.4053468428602,-10.5335398419141,-300.625934629353
738506.41149989922996610403,-19.4422742393261,-10.5612353892636,-300.653630176702
738506.41149998956825584173,-19.4607379375591,-10.5796990874966,-300.533616138188
738506.41150008002296090126,-19.5622882778405,-10.6350901821955,-300.644398327586
738506.41150017047766596079,-19.6453749198889,-10.662785729545,-300.699789422285
738506.41150026093237102032,-19.7099978637043,-10.6997131260109,-300.681325724052
738506.41150035138707607985,-19.7653889584033,-10.7274086733604,-300.681325724052
738506.41150044184178113937,-19.8300119022187,-10.7551042207099,-300.561311685537
738506.41150053229648619890,-19.8484756004517,-10.7551042207099,-300.672093874935
738506.41150062275119125843,-19.8669392986847,-10.7735679189428,-300.736716818751
738506.41150071308948099613,-19.8854029969176,-10.7827997680593,-300.727484969634
738506.41150080354418605566,-19.8946348460341,-10.7827997680593,-300.773644215217
738506.41150089399889111519,-19.8946348460341,-10.7735679189428,-300.718253120518
738506.41150098445359617472,-19.8946348460341,-10.7827997680593,-300.690557573168
738506.41150107490830123425,-19.9038666951506,-10.7827997680593,-300.709021271401
738506.41150116536300629377,-19.8854029969176,-10.7735679189428,-300.727484969634
738506.41150125581771135330,-19.8946348460341,-10.7827997680593,-300.690557573168
738506.41150134615600109100,-19.8854029969176,-10.7735679189428,-300.718253120518
738506.41150143661070615053,-19.8946348460341,-10.7920316171758,-300.699789422285
738506.41150152706541121006,-19.8854029969176,-10.7827997680593,-300.699789422285
738506.41150161752011626959,-19.8854029969176,-10.7827997680593,-300.699789422285
738506.41150170797482132912,-19.8761711478011,-10.7735679189428,-300.709021271401
738506.41150179842952638865,-19.8946348460341,-10.7827997680593,-300.699789422285
738506.41150188888423144817,-19.8946348460341,-10.7827997680593,-300.709021271401
738506.41150197933893650770,-19.8946348460341,-10.7827997680593,-300.718253120518
738506.41150206967722624540,-19.8946348460341,-10.7827997680593,-300.681325724052
738506.41150216013193130493,-19.9130985442671,-10.7920316171758,-300.672093874935
738506.41150225058663636446,-19.9130985442671,-10.7920316171758,-300.718253120518
738506.41150234104134142399,-19.9130985442671,-10.7920316171758,-300.690557573168
738506.41150243149604648352,-19.9130985442671,-10.7920316171758,-300.681325724052
738506.41150252195075154305,-19.9130985442671,-10.7920316171758,-300.690557573168
738506.41150261240545660257,-19.9223303933836,-10.8104953154088,-300.653630176702
738506.41150270286016166210,-19.9223303933836,-10.8012634662923,-300.672093874935
738506.41150279319845139980,-19.9223303933836,-10.8104953154088,-300.644398327586
738506.41150288365315645933,-19.9223303933836,-10.8012634662923,-300.635166478469
738506.41150297410786151886,-19.9223303933836,-10.8104953154088,-300.635166478469
738506.41150306456256657839,-19.9407940916166,-10.8012634662923,-300.681325724052
738506.41150315501727163792,-19.9315622425001,-10.8012634662923,-300.662862025819
738506.41150324547197669744,-19.9315622425001,-10.8012634662923,-300.681325724052
738506.41150333592668175697,-19.9315622425001,-10.8104953154088,-300.690557573168
738506.41150342626497149467,-19.9407940916166,-10.8104953154088,-300.672093874935
738506.41150351671967655420,-19.9500259407331,-10.8104953154088,-300.653630176702
738506.41150360717438161373,-19.9592577898495,-10.8197271645253,-300.736716818751
738506.41150369762908667326,-19.9500259407331,-10.8104953154088,-300.681325724052
738506.41150378808379173279,-19.9500259407331,-10.8104953154088,-300.736716818751
738506.41150387853849679232,-19.9500259407331,-10.8012634662923,-300.681325724052
738506.41150396899320185184,-19.9500259407331,-10.8104953154088,-300.561311685537
738506.41150405944790691137,-19.9500259407331,-10.8104953154088,-300.598239082003
738506.41150414978619664907,-19.9592577898495,-10.8104953154088,-300.672093874935
738506.41150424024090170860,-19.9592577898495,-10.8104953154088,-300.681325724052
738506.41150433069560676813,-19.968489638966,-10.8197271645253,-300.699789422285
738506.41150442115031182766,-19.9500259407331,-10.8012634662923,-300.755180516984
738506.41150451160501688719,-19.9592577898495,-10.8104953154088,-300.736716818751
738506.41150460205972194672,-19.9500259407331,-10.8012634662923,-300.745948667867
738506.41150469251442700624,-19.9592577898495,-10.8197271645253,-300.7644123661
738506.41150478285271674395,-19.9592577898495,-10.8104953154088,-300.7644123661
738506.41150487330742180347,-19.9500259407331,-10.8104953154088,-300.782876064333
738506.41150496376212686300,-19.9592577898495,-10.8104953154088,-300.699789422285
738506.41150505421683192253,-19.9592577898495,-10.8012634662923,-300.7644123661
738506.41150514467153698206,-19.9500259407331,-10.8012634662923,-300.745948667867
738506.41150523512624204159,-19.9500259407331,-10.8012634662923,-300.718253120518
738506.41150532558094710112,-19.9592577898495,-10.8197271645253,-300.755180516984
738506.41150541603565216064,-19.9407940916166,-10.8012634662923,-300.782876064333
738506.41150550637394189835,-19.9223303933836,-10.8104953154088,-300.736716818751
738506.41150559682864695787,-19.8854029969176,-10.7827997680593,-300.745948667867
738506.41150568728335201740,-19.8761711478011,-10.7827997680593,-300.755180516984
738506.41150577773805707693,-19.8115482039857,-10.7643360698263,-300.736716818751
738506.41150586819276213646,-19.8207800531022,-10.8012634662923,-300.727484969634
738506.41150595864746719599,-19.8115482039857,-10.7827997680593,-300.7644123661
738506.41150604910217225552,-19.8115482039857,-10.7827997680593,-300.681325724052
738506.41150613944046199322,-19.8392437513352,-10.7735679189428,-300.690557573168
738506.41150622989516705275,-19.8854029969176,-10.7920316171758,-300.727484969634
738506.41150632034987211227,-19.9407940916166,-10.8104953154088,-300.718253120518
738506.41150641080457717180,-19.9777214880825,-10.8289590136418,-300.672093874935
738506.41150650125928223133,-19.986953337199,-10.8197271645253,-300.736716818751
738506.41150659171398729086,-19.9961851863155,-10.8289590136418,-300.681325724052
738506.41150668216869235039,-20.005417035432,-10.8289590136418,-300.755180516984
738506.41150677262339740992,-20.005417035432,-10.8289590136418,-300.782876064333
738506.41150686296168714762,-20.0146488845485,-10.8474227118748,-300.79210791345
738506.41150695341639220715,-20.005417035432,-10.8289590136418,-300.727484969634
738506.41150704387109726667,-20.0146488845485,-10.8381908627583,-300.672093874935
738506.41150713432580232620,-19.9961851863155,-10.8197271645253,-300.644398327586
738506.41150722478050738573,-20.005417035432,-10.8381908627583,-300.635166478469
738506.41150731523521244526,-19.986953337199,-10.8197271645253,-300.727484969634
738506.41150740568991750479,-20.005417035432,-10.8104953154088,-300.653630176702
738506.41150749602820724249,-20.023880733665,-10.7458723715934,-300.598239082003
738506.41150758648291230202,-19.8484756004517,-10.6720175786615,-300.533616138188
738506.41150767693761736155,-19.4053468428602,-10.5981627857295,-300.57977538377
738506.41150776739232242107,-19.0268410290841,-10.8104953154088,-300.57977538377
738506.41150785784702748060,-19.1099276711325,-11.1059144871364,-300.709021271401
738506.41150794830173254013,-20.2639088106937,-11.1705374309519,-300.856730857265
738506.41150803875643759966,-20.4300820947905,-10.9489730521561,-300.782876064333
738506.41150812921114265919,-20.1623584704123,-10.7551042207099,-300.699789422285
738506.41150821954943239689,-19.9223303933836,-10.7274086733604,-300.709021271401
738506.41150831000413745642,-19.8854029969176,-10.7551042207099,-300.718253120518
738506.41150840045884251595,-19.9038666951506,-10.7735679189428,-300.690557573168
738506.41150849091354757547,-19.9038666951506,-10.7735679189428,-300.690557573168
738506.41150858136825263500,-19.9130985442671,-10.7827997680593,-300.727484969634
738506.41150867182295769453,-19.9038666951506,-10.7643360698263,-300.718253120518
738506.41150876227766275406,-19.8946348460341,-10.7735679189428,-300.736716818751
738506.41150885273236781359,-19.8761711478011,-10.7643360698263,-300.755180516984
738506.41150894307065755129,-19.8761711478011,-10.7643360698263,-300.681325724052
738506.41150903352536261082,-19.8577074495682,-10.7551042207099,-300.727484969634
738506.41150912398006767035,-19.8484756004517,-10.7551042207099,-300.755180516984
738506.41150921443477272987,-19.8392437513352,-10.7458723715934,-300.681325724052
738506.41150930488947778940,-19.8392437513352,-10.7551042207099,-300.718253120518
738506.41150939534418284893,-19.8207800531022,-10.7458723715934,-300.745948667867
738506.41150948579888790846,-19.8023163548692,-10.7274086733604,-300.681325724052
738506.41150957613717764616,-19.8023163548692,-10.7366405224769,-300.727484969634
738506.41150966659188270569,-19.7838526566362,-10.7274086733604,-300.709021271401
738506.41150975704658776522,-19.7653889584033,-10.7181768242439,-300.709021271401
738506.41150984750129282475,-19.7469252601703,-10.7089449751274,-300.718253120518
738506.41150993795599788427,-19.7376934110538,-10.7089449751274,-300.718253120518
738506.41151002841070294380,-19.7099978637043,-10.6812494277779,-300.616702780236
738506.41151011886540800333,-19.7007660145878,-10.6904812768944,-300.60747093112
738506.41151020932011306286,-19.6638386181219,-10.662785729545,-300.616702780236
738506.41151029965840280056,-19.6453749198889,-10.6535538804285,-300.60747093112
738506.41151039011310786009,-19.6176793725394,-10.644322031312,-300.60747093112
738506.41151048056781291962,-19.58998382519,-10.6166264839625,-300.616702780236
738506.41151057102251797915,-19.553056428724,-10.607394634846,-300.662862025819
738506.41151066147722303867,-19.5161290322581,-10.5796990874966,-300.524384289071
738506.41151075193192809820,-19.4884334849086,-10.5796990874966,-300.57977538377
738506.41151084238663315773,-19.4607379375591,-10.5612353892636,-300.616702780236
738506.41151093272492289543,-19.4422742393261,-10.5520035401471,-300.570543534654
738506.41151102317962795496,-19.4330423902097,-10.5520035401471,-300.505920590838
738506.41151111363433301449,-19.4607379375591,-10.5796990874966,-300.505920590838
738506.41151120408903807402,-19.5068971831416,-10.607394634846,-300.589007232887
738506.41151129454374313354,-19.5992156743065,-10.662785729545,-300.616702780236
738506.41151138499844819307,-19.6730704672384,-10.6812494277779,-300.662862025819
738506.41151147545315325260,-19.7561571092868,-10.7458723715934,-300.662862025819
738506.41151156590785831213,-19.8023163548692,-10.7551042207099,-300.681325724052
738506.41151165624614804983,-19.8484756004517,-10.7920316171758,-300.718253120518
738506.41151174670085310936,-19.8669392986847,-10.7920316171758,-300.718253120518
738506.41151183715555816889,-19.8854029969176,-10.8104953154088,-300.755180516984
738506.41151192761026322842,-19.8854029969176,-10.8012634662923,-300.755180516984
738506.41151201806496828794,-19.8946348460341,-10.8104953154088,-300.745948667867
738506.41151210851967334747,-19.8854029969176,-10.8012634662923,-300.745948667867
738506.41151219897437840700,-19.8946348460341,-10.8104953154088,-300.690557573168
738506.41151228931266814470,-19.8946348460341,-10.8197271645253,-300.690557573168
738506.41151237976737320423,-19.8854029969176,-10.8012634662923,-300.709021271401
738506.41151247022207826376,-19.8946348460341,-10.8197271645253,-300.736716818751
738506.41151256067678332329,-19.8761711478011,-10.8012634662923,-300.745948667867
738506.41151265113148838282,-19.8854029969176,-10.8197271645253,-300.718253120518
738506.41151274158619344234,-19.8761711478011,-10.8012634662923,-300.727484969634
738506.41151283204089850187,-19.8946348460341,-10.8197271645253,-300.782876064333
738506.41151292249560356140,-19.8854029969176,-10.8012634662923,-300.782876064333
738506.41151301283389329910,-19.8946348460341,-10.8197271645253,-300.755180516984
738506.41151310328859835863,-19.8854029969176,-10.8012634662923,-300.718253120518
738506.41151319374330341816,-19.8946348460341,-10.8197271645253,-300.755180516984
738506.41151328419800847769,-19.8854029969176,-10.8012634662923,-300.773644215217
738506.41151337465271353722,-19.8946348460341,-10.8104953154088,-300.727484969634
738506.41151346510741859674,-19.8854029969176,-10.8012634662923,-300.745948667867
738506.41151355556212365627,-19.9038666951506,-10.8104953154088,-300.755180516984
738506.41151364601682871580,-19.9038666951506,-10.8104953154088,-300.662862025819
738506.41151373635511845350,-19.9223303933836,-10.8197271645253,-300.635166478469
738506.41151382680982351303,-19.9130985442671,-10.8197271645253,-300.681325724052
738506.41151391726452857256,-19.9130985442671,-10.8104953154088,-300.681325724052
738506.41151400771923363209,-19.9130985442671,-10.8197271645253,-300.662862025819
738506.41151409817393869162,-19.9130985442671,-10.8197271645253,-300.718253120518
738506.41151418862864375114,-19.9223303933836,-10.8289590136418,-300.745948667867
738506.41151427908334881067,-19.9130985442671,-10.8104953154088,-300.7644123661
738506.41151436942163854837,-19.9223303933836,-10.8289590136418,-300.773644215217
738506.41151445987634360790,-19.9130985442671,-10.8012634662923,-300.727484969634
738506.41151455033104866743,-19.9315622425001,-10.8289590136418,-300.672093874935
738506.41151464078575372696,-19.9223303933836,-10.8197271645253,-300.662862025819
738506.41151473124045878649,-19.9315622425001,-10.8289590136418,-300.727484969634
738506.41151482169516384602,-19.9223303933836,-10.8197271645253,-300.782876064333
738506.41151491214986890554,-19.9315622425001,-10.8289590136418,-300.801339762566
738506.41151500260457396507,-19.9223303933836,-10.8197271645253,-300.736716818751
738506.41151509294286370277,-19.9223303933836,-10.8289590136418,-300.727484969634
738506.41151518339756876230,-19.9223303933836,-10.8197271645253,-300.616702780236
738506.41151527385227382183,-19.9223303933836,-10.8197271645253,-300.690557573168
738506.41151536430697888136,-19.9223303933836,-10.8289590136418,-300.690557573168
738506.41151545476168394089,-19.9223303933836,-10.8197271645253,-300.681325724052
738506.41151554521638900042,-19.9223303933836,-10.8289590136418,-300.690557573168
738506.41151563567109405994,-19.9223303933836,-10.8197271645253,-300.699789422285
738506.41151572600938379765,-19.9315622425001,-10.8289590136418,-300.736716818751
738506.41151581646408885717,-19.9223303933836,-10.8197271645253,-300.745948667867
738506.41151590691879391670,-19.9315622425001,-10.8289590136418,-300.709021271401
738506.41151599737349897623,-19.9130985442671,-10.8197271645253,-300.672093874935
738506.41151608782820403576,-19.9223303933836,-10.8289590136418,-300.718253120518
738506.41151617828290909529,-19.9223303933836,-10.8197271645253,-300.745948667867
738506.41151626873761415482,-19.9223303933836,-10.8289590136418,-300.745948667867
738506.41151635919231921434,-19.9315622425001,-10.8381908627583,-300.699789422285
738506.41151644953060895205,-19.9315622425001,-10.8289590136418,-300.727484969634
738506.41151653998531401157,-19.9315622425001,-10.8381908627583,-300.718253120518
738506.41151663044001907110,-19.9315622425001,-10.8289590136418,-300.727484969634
738506.41151672089472413063,-19.9407940916166,-10.8381908627583,-300.773644215217
738506.41151681134942919016,-19.9315622425001,-10.8289590136418,-300.782876064333
738506.41151690180413424969,-19.9407940916166,-10.8381908627583,-300.672093874935
738506.41151699225883930922,-19.9315622425001,-10.8197271645253,-300.745948667867
738506.41151708259712904692,-19.9407940916166,-10.8381908627583,-300.681325724052
738506.41151717305183410645,-19.9315622425001,-10.8197271645253,-300.7644123661
738506.41151726350653916597,-19.9407940916166,-10.8474227118748,-300.755180516984
738506.41151735396124422550,-19.9315622425001,-10.8197271645253,-300.690557573168
738506.41151744441594928503,-19.9500259407331,-10.8381908627583,-300.672093874935
738506.41151753487065434456,-19.9315622425001,-10.8104953154088,-300.681325724052
738506.41151762532535940409,-19.9500259407331,-10.8381908627583,-300.681325724052
738506.41151771578006446362,-19.9223303933836,-10.8104953154088,-300.672093874935
738506.41151780611835420132,-19.9223303933836,-10.8197271645253,-300.727484969634
738506.41151789657305926085,-19.9038666951506,-10.8104953154088,-300.736716818751
738506.41151798702776432037,-19.8669392986847,-10.7920316171758,-300.745948667867
738506.41151807748246937990,-19.8207800531022,-10.7920316171758,-300.690557573168
738506.41151816793717443943,-19.7930845057527,-10.7827997680593,-300.653630176702
738506.41151825839187949896,-19.8023163548692,-10.8012634662923,-300.745948667867
738506.41151834884658455849,-19.7838526566362,-10.7827997680593,-300.681325724052
738506.41151843918487429619,-19.8115482039857,-10.7920316171758,-300.736716818751
738506.41151852963957935572,-19.8207800531022,-10.7735679189428,-300.745948667867
738506.41151862009428441525,-19.8946348460341,-10.8197271645253,-300.709021271401
738506.41151871054898947477,-19.9315622425001,-10.8197271645253,-300.7644123661
738506.41151880100369453430,-19.968489638966,-10.8381908627583,-300.690557573168
738506.41151889145839959383,-19.968489638966,-10.8289590136418,-300.7644123661
738506.41151898191310465336,-19.9777214880825,-10.8474227118748,-300.672093874935
738506.41151907236780971289,-19.968489638966,-10.8289590136418,-300.681325724052
738506.41151916270609945059,-19.986953337199,-10.8474227118748,-300.681325724052
738506.41151925316080451012,-19.968489638966,-10.8289590136418,-300.718253120518
738506.41151934361550956964,-19.986953337199,-10.8381908627583,-300.681325724052
738506.41151943407021462917,-19.9777214880825,-10.8381908627583,-300.745948667867
738506.41151952452491968870,-19.9777214880825,-10.8381908627583,-300.709021271401
738506.41151961497962474823,-19.968489638966,-10.8381908627583,-300.736716818751
738506.41151970543432980776,-20.005417035432,-10.8012634662923,-300.718253120518
738506.41151979588903486729,-20.023880733665,-10.7735679189428,-300.690557573168
738506.41151988622732460499,-19.8484756004517,-10.6812494277779,-300.718253120518
738506.41151997668202966452,-19.4699697866756,-10.6350901821955,-300.644398327586
738506.41152006713673472404,-19.0268410290841,-10.8197271645253,-300.672093874935
738506.41152015759143978357,-19.0268410290841,-11.1151463362529,-300.690557573168
738506.41152024804614484310,-20.0146488845485,-11.1613055818354,-300.782876064333
738506.41152033850084990263,-20.3377636036256,-10.9489730521561,-300.801339762566
738506.41152042895555496216,-20.0977355265969,-10.7458723715934,-300.745948667867
738506.41152051929384469986,-19.8669392986847,-10.7551042207099,-300.653630176702
738506.41152060974854975939,-19.8484756004517,-10.7827997680593,-300.745948667867
738506.41152070020325481892,-19.8761711478011,-10.8012634662923,-300.773644215217
738506.41152079065795987844,-19.8761711478011,-10.7827997680593,-300.662862025819
738506.41152088111266493797,-19.8761711478011,-10.7920316171758,-300.699789422285
738506.41152097156736999750,-19.8669392986847,-10.7827997680593,-300.644398327586
738506.41152106202207505703,-19.8669392986847,-10.7827997680593,-300.662862025819
738506.41152115247678011656,-19.8577074495682,-10.7827997680593,-300.699789422285
738506.41152124281506985426,-19.8484756004517,-10.7827997680593,-300.699789422285
738506.41152133326977491379,-19.8392437513352,-10.7827997680593,-300.718253120518
738506.41152142372447997332,-19.8300119022187,-10.7735679189428,-300.727484969634
738506.41152151417918503284,-19.8300119022187,-10.7827997680593,-300.7644123661
738506.41152160463389009237,-19.8023163548692,-10.7643360698263,-300.681325724052
738506.41152169508859515190,-19.8115482039857,-10.7735679189428,-300.598239082003
738506.41152178554330021143,-19.7838526566362,-10.7643360698263,-300.7644123661
738506.41152187588158994913,-19.7746208075198,-10.7643360698263,-300.727484969634
738506.41152196633629500866,-19.7469252601703,-10.7458723715934,-300.745948667867
738506.41152205679100006819,-19.7376934110538,-10.7458723715934,-300.699789422285
738506.41152214724570512772,-19.7192297128208,-10.7366405224769,-300.699789422285
738506.41152223770041018724,-19.7007660145878,-10.7181768242439,-300.690557573168
738506.41152232815511524677,-19.6730704672384,-10.6997131260109,-300.745948667867
738506.41152241860982030630,-19.6453749198889,-10.6904812768944,-300.709021271401
738506.41152250906452536583,-19.6269112216559,-10.6812494277779,-300.681325724052
738506.41152259940281510353,-19.5992156743065,-10.6535538804285,-300.690557573168
738506.41152268985752016306,-19.571520126957,-10.644322031312,-300.690557573168
738506.41152278031222522259,-19.5161290322581,-10.6166264839625,-300.709021271401
738506.41152287076693028212,-19.4884334849086,-10.607394634846,-300.690557573168
738506.41152296122163534164,-19.4422742393261,-10.5704672383801,-300.690557573168
738506.41152305167634040117,-19.4238105410932,-10.5796990874966,-300.653630176702
738506.41152314213104546070,-19.3868831446272,-10.5520035401471,-300.672093874935
738506.41152323246933519840,-19.3868831446272,-10.5704672383801,-300.653630176702
738506.41152332292404025793,-19.3684194463942,-10.5612353892636,-300.690557573168
738506.41152341337874531746,-19.4053468428602,-10.5981627857295,-300.635166478469
738506.41152350383345037699,-19.4607379375591,-10.6166264839625,-300.672093874935
738506.41152359428815543652,-19.5161290322581,-10.644322031312,-300.727484969634
738506.41152368474286049604,-19.608447523423,-10.6997131260109,-300.690557573168
738506.41152377519756555557,-19.6915341654714,-10.7274086733604,-300.681325724052
738506.41152386565227061510,-19.7653889584033,-10.7643360698263,-300.653630176702
738506.41152395599056035280,-19.8115482039857,-10.7735679189428,-300.662862025819
738506.41152404644526541233,-19.8484756004517,-10.8012634662923,-300.699789422285
738506.41152413689997047186,-19.8577074495682,-10.7920316171758,-300.718253120518
738506.41152422735467553139,-19.8946348460341,-10.8104953154088,-300.709021271401
738506.41152431780938059092,-19.8854029969176,-10.8012634662923,-300.690557573168
738506.41152440826408565044,-19.9038666951506,-10.8197271645253,-300.672093874935
738506.41152449871879070997,-19.8854029969176,-10.7920316171758,-300.709021271401
738506.41152458917349576950,-19.9130985442671,-10.8197271645253,-300.709021271401
738506.41152467951178550720,-19.8854029969176,-10.7920316171758,-300.681325724052
738506.41152476996649056673,-19.9038666951506,-10.8197271645253,-300.745948667867
738506.41152486042119562626,-19.8854029969176,-10.7920316171758,-300.745948667867
738506.41152495087590068579,-19.8946348460341,-10.8104953154088,-300.653630176702
738506.41152504133060574532,-19.8761711478011,-10.7920316171758,-300.690557573168
738506.41152513178531080484,-19.9038666951506,-10.8012634662923,-300.552079836421
738506.41152522224001586437,-19.8946348460341,-10.7920316171758,-300.635166478469
738506.41152531257830560207,-19.9038666951506,-10.8104953154088,-300.699789422285
738506.41152540303301066160,-19.8946348460341,-10.8104953154088,-300.699789422285
738506.41152549348771572113,-19.8854029969176,-10.7920316171758,-300.736716818751
738506.41152558394242078066,-19.8946348460341,-10.8104953154088,-300.736716818751
738506.41152567439712584019,-19.8946348460341,-10.7920316171758,-300.736716818751
738506.41152576485183089972,-19.9223303933836,-10.8104953154088,-300.7644123661
738506.41152585530653595924,-19.9038666951506,-10.7920316171758,-300.755180516984
738506.41152594576124101877,-19.9223303933836,-10.8104953154088,-300.690557573168
738506.41152603609953075647,-19.9130985442671,-10.7920316171758,-300.755180516984
738506.41152612655423581600,-19.9223303933836,-10.8104953154088,-300.745948667867
738506.41152621700894087553,-19.9223303933836,-10.7920316171758,-300.727484969634
738506.41152630746364593506,-19.9407940916166,-10.8104953154088,-300.773644215217
738506.41152639791835099459,-19.9315622425001,-10.8012634662923,-300.7644123661
738506.41152648837305605412,-19.9407940916166,-10.8197271645253,-300.709021271401
738506.41152657882776111364,-19.9315622425001,-10.8104953154088,-300.773644215217
738506.41152666916605085135,-19.9500259407331,-10.8104953154088,-300.755180516984
738506.41152675962075591087,-19.9500259407331,-10.8104953154088,-300.7644123661
738506.41152685007546097040,-19.9592577898495,-10.8197271645253,-300.79210791345
738506.41152694053016602993,-19.9592577898495,-10.8104953154088,-300.79210791345
738506.41152703098487108946,-19.9592577898495,-10.8104953154088,-300.782876064333
738506.41152712143957614899,-19.9592577898495,-10.8197271645253,-300.681325724052
738506.41152721189428120852,-19.968489638966,-10.8104953154088,-300.690557573168
738506.41152730234898626804,-19.9777214880825,-10.8197271645253,-300.681325724052
738506.41152739268727600574,-19.9592577898495,-10.8012634662923,-300.672093874935
738506.41152748314198106527,-19.968489638966,-10.8197271645253,-300.672093874935
738506.41152757359668612480,-19.9592577898495,-10.8012634662923,-300.736716818751
738506.41152766405139118433,-19.9777214880825,-10.8197271645253,-300.7644123661
738506.41152775450609624386,-19.9592577898495,-10.8012634662923,-300.727484969634
738506.41152784496080130339,-19.9777214880825,-10.8104953154088,-300.773644215217
738506.41152793541550636292,-19.9592577898495,-10.8012634662923,-300.718253120518
738506.41152802575379610062,-19.9777214880825,-10.8012634662923,-300.625934629353
738506.41152811620850116014,-19.968489638966,-10.8012634662923,-300.681325724052
738506.41152820666320621967,-19.986953337199,-10.8104953154088,-300.709021271401
738506.41152829711791127920,-19.986953337199,-10.8104953154088,-300.699789422285
738506.41152838757261633873,-19.968489638966,-10.8012634662923,-300.699789422285
738506.41152847802732139826,-19.9777214880825,-10.8104953154088,-300.745948667867
738506.41152856848202645779,-19.968489638966,-10.8012634662923,-300.736716818751
738506.41152865893673151731,-19.968489638966,-10.8104953154088,-300.552079836421
738506.41152874927502125502,-19.9777214880825,-10.8104953154088,-300.690557573168
738506.41152883972972631454,-19.9777214880825,-10.8197271645253,-300.727484969634
738506.41152893018443137407,-19.968489638966,-10.8012634662923,-300.773644215217
738506.41152902063913643360,-19.986953337199,-10.8197271645253,-300.782876064333
738506.41152911109384149313,-19.968489638966,-10.7920316171758,-300.745948667867
738506.41152920154854655266,-19.986953337199,-10.8012634662923,-300.79210791345
738506.41152929200325161219,-19.986953337199,-10.8012634662923,-300.79210791345
738506.41152938234154134989,-19.968489638966,-10.8012634662923,-300.718253120518
738506.41152947279624640942,-19.9777214880825,-10.8012634662923,-300.736716818751
738506.41152956325095146894,-19.9777214880825,-10.8012634662923,-300.755180516984
738506.41152965370565652847,-19.9592577898495,-10.7920316171758,-300.709021271401
738506.41152974416036158800,-19.9315622425001,-10.7735679189428,-300.755180516984
738506.41152983461506664753,-19.9223303933836,-10.7827997680593,-300.690557573168
738506.41152992506977170706,-19.8484756004517,-10.7551042207099,-300.773644215217
738506.41153001552447676659,-19.8577074495682,-10.7735679189428,-300.79210791345
738506.41153010586276650429,-19.8484756004517,-10.7458723715934,-300.745948667867
738506.41153019631747156382,-19.8484756004517,-10.7643360698263,-300.7644123661
738506.41153028677217662334,-19.8392437513352,-10.7458723715934,-300.773644215217
738506.41153037722688168287,-19.9130985442671,-10.7827997680593,-300.755180516984
738506.41153046768158674240,-19.9500259407331,-10.7920316171758,-300.755180516984
738506.41153055813629180193,-19.9961851863155,-10.8197271645253,-300.7644123661
738506.41153064859099686146,-19.986953337199,-10.8012634662923,-300.782876064333
738506.41153073904570192099,-20.023880733665,-10.8197271645253,-300.755180516984
738506.41153082938399165869,-20.0146488845485,-10.8104953154088,-300.773644215217
738506.41153091983869671822,-20.023880733665,-10.8289590136418,-300.7644123661
738506.41153101029340177774,-20.005417035432,-10.8104953154088,-300.782876064333
738506.41153110074810683727,-20.0146488845485,-10.8104953154088,-300.7644123661
738506.41153119120281189680,-20.023880733665,-10.8197271645253,-300.782876064333
738506.41153128165751695633,-20.0146488845485,-10.8104953154088,-300.79210791345
738506.41153137211222201586,-20.023880733665,-10.8289590136418,-300.755180516984
738506.41153146245051175356,-20.005417035432,-10.8104953154088,-300.755180516984
738506.41153155290521681309,-20.0700399792474,-10.7920316171758,-300.635166478469
738506.41153164335992187262,-19.9961851863155,-10.6997131260109,-300.616702780236
738506.41153173381462693214,-19.7376934110538,-10.6166264839625,-300.561311685537
738506.41153182426933199167,-19.2484054078799,-10.607394634846,-300.533616138188
738506.41153191472403705120,-18.9714499343852,-10.9212775048067,-300.616702780236
738506.41153200517874211073,-19.5992156743065,-11.1243781853694,-300.745948667867
738506.41153209563344717026,-20.4947050386059,-11.1243781853694,-300.79210791345
738506.41153218597173690796,-20.3469954527421,-10.8289590136418,-300.625934629353
738506.41153227642644196749,-20.0977355265969,-10.7274086733604,-300.653630176702
738506.41153236688114702702,-19.9223303933836,-10.7181768242439,-300.690557573168
738506.41153245733585208654,-19.9407940916166,-10.7643360698263,-300.727484969634
738506.41153254779055714607,-19.9407940916166,-10.7551042207099,-300.727484969634
738506.41153263824526220560,-19.9500259407331,-10.7551042207099,-300.736716818751
738506.41153272869996726513,-19.9500259407331,-10.7551042207099,-300.709021271401
738506.41153281903825700283,-19.9407940916166,-10.7551042207099,-300.709021271401
738506.41153290949296206236,-19.9407940916166,-10.7643360698263,-300.690557573168
738506.41153299994766712189,-19.9038666951506,-10.7366405224769,-300.718253120518
738506.41153309040237218142,-19.9223303933836,-10.7458723715934,-300.7644123661
738506.41153318085707724094,-19.9038666951506,-10.7274086733604,-300.736716818751
738506.41153327131178230047,-19.9038666951506,-10.7458723715934,-300.736716818751
738506.41153336176648736000,-19.8854029969176,-10.7274086733604,-300.690557573168
738506.41153345222119241953,-19.8854029969176,-10.7458723715934,-300.681325724052
738506.41153354255948215723,-19.8577074495682,-10.7274086733604,-300.699789422285
738506.41153363301418721676,-19.8669392986847,-10.7274086733604,-300.699789422285
738506.41153372346889227629,-19.8392437513352,-10.7089449751274,-300.709021271401
738506.41153381392359733582,-19.8207800531022,-10.7089449751274,-300.690557573168
738506.41153390437830239534,-19.8207800531022,-10.6997131260109,-300.755180516984
738506.41153399483300745487,-19.8023163548692,-10.6904812768944,-300.745948667867
738506.41153408528771251440,-19.7930845057527,-10.6812494277779,-300.662862025819
738506.41153417562600225210,-19.7561571092868,-10.662785729545,-300.727484969634
738506.41153426608070731163,-19.7376934110538,-10.6535538804285,-300.727484969634
738506.41153435653541237116,-19.7099978637043,-10.6350901821955,-300.690557573168
738506.41153444699011743069,-19.6915341654714,-10.625858333079,-300.681325724052
738506.41153453744482249022,-19.6453749198889,-10.5981627857295,-300.709021271401
738506.41153462789952754974,-19.6361430707724,-10.5981627857295,-300.681325724052
738506.41153471835423260927,-19.58998382519,-10.5612353892636,-300.681325724052
738506.41153480880893766880,-19.5807519760735,-10.5612353892636,-300.672093874935
738506.41153489914722740650,-19.534592730491,-10.5427716910306,-300.681325724052
738506.41153498960193246603,-19.5253608813746,-10.5427716910306,-300.653630176702
738506.41153508005663752556,-19.5068971831416,-10.5427716910306,-300.60747093112
738506.41153517051134258509,-19.5161290322581,-10.5520035401471,-300.589007232887
738506.41153526096604764462,-19.534592730491,-10.5704672383801,-300.57977538377
738506.41153535142075270414,-19.5992156743065,-10.607394634846,-300.616702780236
738506.41153544187545776367,-19.6823023163549,-10.6535538804285,-300.644398327586
738506.41153553233016282320,-19.7561571092868,-10.6997131260109,-300.709021271401
738506.41153562266845256090,-19.8300119022187,-10.7366405224769,-300.718253120518
738506.41153571312315762043,-19.8669392986847,-10.7551042207099,-300.644398327586
738506.41153580357786267996,-19.9223303933836,-10.7827997680593,-300.690557573168
738506.41153589403256773949,-19.9315622425001,-10.7827997680593,-300.736716818751
738506.41153598448727279902,-19.9592577898495,-10.8012634662923,-300.79210791345
738506.41153607494197785854,-19.9592577898495,-10.7920316171758,-300.690557573168
738506.41153616539668291807,-19.9777214880825,-10.8104953154088,-300.681325724052
738506.41153625573497265577,-19.9592577898495,-10.7920316171758,-300.7644123661
738506.41153634618967771530,-19.968489638966,-10.8104953154088,-300.782876064333
738506.41153643664438277483,-19.9592577898495,-10.7827997680593,-300.810571611682
738506.41153652709908783436,-19.968489638966,-10.8104953154088,-300.79210791345
738506.41153661755379289389,-19.9407940916166,-10.7827997680593,-300.736716818751
738506.41153670800849795341,-19.9500259407331,-10.7827997680593,-300.653630176702
738506.41153679846320301294,-19.9592577898495,-10.7920316171758,-300.681325724052
738506.41153688891790807247,-19.9407940916166,-10.7827997680593,-300.727484969634
738506.41153697925619781017,-19.9592577898495,-10.8012634662923,-300.709021271401
738506.41153706971090286970,-19.9500259407331,-10.7827997680593,-300.773644215217
738506.41153716016560792923,-19.9592577898495,-10.7920316171758,-300.672093874935
738506.41153725062031298876,-19.9500259407331,-10.7827997680593,-300.727484969634
738506.41153734107501804829,-19.968489638966,-10.8012634662923,-300.644398327586
738506.41153743152972310781,-19.9407940916166,-10.7827997680593,-300.681325724052
738506.41153752198442816734,-19.9592577898495,-10.8012634662923,-300.690557573168
738506.41153761232271790504,-19.9407940916166,-10.7827997680593,-300.690557573168
738506.41153770277742296457,-19.986953337199,-10.8012634662923,-300.699789422285
738506.41153779323212802410,-19.968489638966,-10.7827997680593,-300.736716818751
738506.41153788368683308363,-19.9777214880825,-10.8012634662923,-300.727484969634
738506.41153797414153814316,-19.9592577898495,-10.7827997680593,-300.718253120518
738506.41153806459624320269,-19.9777214880825,-10.8012634662923,-300.699789422285
738506.41153815505094826221,-19.968489638966,-10.7827997680593,-300.736716818751
738506.41153824550565332174,-19.9777214880825,-10.8012634662923,-300.755180516984
738506.41153833584394305944,-19.968489638966,-10.7920316171758,-300.773644215217
738506.41153842629864811897,-19.986953337199,-10.8012634662923,-300.801339762566
738506.41153851675335317850,-19.9777214880825,-10.8012634662923,-300.699789422285
738506.41153860720805823803,-19.9777214880825,-10.8012634662923,-300.727484969634
738506.41153869766276329756,-19.9961851863155,-10.8104953154088,-300.755180516984
738506.41153878811746835709,-19.986953337199,-10.8012634662923,-300.7644123661
738506.41153887857217341661,-19.9961851863155,-10.8197271645253,-300.681325724052
738506.41153896891046315432,-19.9777214880825,-10.7920316171758,-300.7644123661
738506.41153905936516821384,-19.9961851863155,-10.8104953154088,-300.709021271401
738506.41153914981987327337,-19.9777214880825,-10.7920316171758,-300.644398327586
738506.41153924027457833290,-19.9961851863155,-10.8197271645253,-300.598239082003
738506.41153933072928339243,-19.986953337199,-10.7920316171758,-300.60747093112
738506.41153942118398845196,-19.9961851863155,-10.8012634662923,-300.662862025819
738506.41153951163869351149,-19.986953337199,-10.8012634662923,-300.736716818751
738506.41153960209339857101,-19.9961851863155,-10.8104953154088,-300.755180516984
738506.41153969243168830872,-19.986953337199,-10.7920316171758,-300.782876064333
738506.41153978288639336824,-19.9961851863155,-10.8104953154088,-300.773644215217
738506.41153987334109842777,-19.986953337199,-10.8012634662923,-300.7644123661
738506.41153996379580348730,-19.986953337199,-10.8104953154088,-300.782876064333
738506.41154005425050854683,-19.986953337199,-10.8104953154088,-300.727484969634
738506.41154014470521360636,-19.9961851863155,-10.8104953154088,-300.79210791345
738506.41154023515991866589,-20.005417035432,-10.8104953154088,-300.79210791345
738506.41154032549820840359,-19.9961851863155,-10.8104953154088,-300.736716818751
738506.41154041595291346312,-20.005417035432,-10.8197271645253,-300.755180516984
738506.41154050640761852264,-19.986953337199,-10.8012634662923,-300.79210791345
738506.41154059686232358217,-19.9961851863155,-10.8104953154088,-300.773644215217
738506.41154068731702864170,-19.9777214880825,-10.8012634662923,-300.709021271401
738506.41154077777173370123,-19.9777214880825,-10.8012634662923,-300.755180516984
738506.41154086822643876076,-19.9500259407331,-10.7735679189428,-300.681325724052
738506.41154095868114382029,-19.9223303933836,-10.7920316171758,-300.699789422285
738506.41154104901943355799,-19.8577074495682,-10.7735679189428,-300.709021271401
738506.41154113947413861752,-19.8484756004517,-10.7920316171758,-300.755180516984
738506.41154122992884367704,-19.8577074495682,-10.7827997680593,-300.718253120518
738506.41154132038354873657,-19.8484756004517,-10.7643360698263,-300.736716818751
738506.41154141083825379610,-19.8484756004517,-10.7735679189428,-300.727484969634
738506.41154150129295885563,-19.8946348460341,-10.7735679189428,-300.672093874935
738506.41154159174766391516,-19.9592577898495,-10.8104953154088,-300.681325724052
738506.41154168220236897469,-19.986953337199,-10.8104953154088,-300.699789422285
738506.41154177254065871239,-20.0146488845485,-10.8289590136418,-300.699789422285
738506.41154186299536377192,-20.0146488845485,-10.8197271645253,-300.681325724052
738506.41154195345006883144,-20.023880733665,-10.8289590136418,-300.690557573168
738506.41154204390477389097,-20.023880733665,-10.8197271645253,-300.709021271401
738506.41154213435947895050,-20.0423444318979,-10.8381908627583,-300.699789422285
738506.41154222481418401003,-20.023880733665,-10.8289590136418,-300.727484969634
738506.41154231526888906956,-20.023880733665,-10.8289590136418,-300.718253120518
738506.41154240560717880726,-20.0146488845485,-10.8289590136418,-300.727484969634
738506.41154249606188386679,-20.0146488845485,-10.8289590136418,-300.718253120518
738506.41154258651658892632,-20.005417035432,-10.8289590136418,-300.755180516984
738506.41154267697129398584,-20.023880733665,-10.7920316171758,-300.736716818751
738506.41154276742599904537,-20.0146488845485,-10.7274086733604,-300.662862025819
738506.41154285788070410490,-19.7561571092868,-10.6166264839625,-300.561311685537
738506.41154294833540916443,-19.2853328043458,-10.6166264839625,-300.644398327586
738506.41154303879011422396,-18.9622180852687,-10.9120456556902,-300.709021271401
738506.41154312912840396166,-19.4145786919767,-11.1613055818354,-300.727484969634
738506.41154321958310902119,-20.402386547441,-11.1336100344859,-300.865962706381
738506.41154331003781408072,-20.3469954527421,-10.8566545609912,-300.79210791345
738506.41154340049251914024,-20.0515762810144,-10.7089449751274,-300.699789422285
738506.41154349094722419977,-19.9038666951506,-10.7458723715934,-300.718253120518
738506.41154358140192925930,-19.8854029969176,-10.7643360698263,-300.727484969634
738506.41154367185663431883,-19.9130985442671,-10.7827997680593,-300.690557573168
738506.41154376219492405653,-19.9038666951506,-10.7551042207099,-300.709021271401
738506.41154385264962911606,-19.9130985442671,-10.7735679189428,-300.745948667867
738506.41154394310433417559,-19.8946348460341,-10.7551042207099,-300.782876064333
738506.41154403355903923512,-19.8946348460341,-10.7643360698263,-300.755180516984
738506.41154412401374429464,-19.8761711478011,-10.7458723715934,-300.745948667867
738506.41154421446844935417,-19.8761711478011,-10.7551042207099,-300.727484969634
738506.41154430492315441370,-19.8669392986847,-10.7551042207099,-300.709021271401
738506.41154439537785947323,-19.8484756004517,-10.7366405224769,-300.736716818751
738506.41154448571614921093,-19.8484756004517,-10.7551042207099,-300.718253120518
738506.41154457617085427046,-19.8300119022187,-10.7274086733604,-300.736716818751
738506.41154466662555932999,-19.8300119022187,-10.7458723715934,-300.736716818751
738506.41154475708026438951,-19.8023163548692,-10.7181768242439,-300.625934629353
738506.41154484753496944904,-19.8023163548692,-10.7274086733604,-300.616702780236
738506.41154493798967450857,-19.7653889584033,-10.7089449751274,-300.625934629353
738506.41154502844437956810,-19.7653889584033,-10.7089449751274,-300.598239082003
738506.41154511878266930580,-19.7376934110538,-10.6904812768944,-300.57977538377
738506.41154520923737436533,-19.7284615619373,-10.6904812768944,-300.561311685537
738506.41154529969207942486,-19.6915341654714,-10.6535538804285,-300.589007232887
738506.41154539014678448439,-19.6823023163549,-10.6535538804285,-300.644398327586
738506.41154548060148954391,-19.6453749198889,-10.6350901821955,-300.598239082003
738506.41154557105619460344,-19.6269112216559,-10.6166264839625,-300.60747093112
738506.41154566151089966297,-19.571520126957,-10.5889309366131,-300.616702780236
738506.41154575196560472250,-19.5438245796075,-10.5704672383801,-300.616702780236
738506.41154584230389446020,-19.5068971831416,-10.5520035401471,-300.625934629353
738506.41154593275859951973,-19.4699697866756,-10.5427716910306,-300.542847987304
738506.41154602321330457926,-19.4422742393261,-10.5335398419141,-300.542847987304
738506.41154611366800963879,-19.4238105410932,-10.5058442945647,-300.60747093112
738506.41154620412271469831,-19.4145786919767,-10.5243079927976,-300.570543534654
738506.41154629457741975784,-19.4053468428602,-10.5150761436811,-300.524384289071
738506.41154638503212481737,-19.4607379375591,-10.5612353892636,-300.478225043489
738506.41154647537041455507,-19.5068971831416,-10.5796990874966,-300.625934629353
738506.41154656582511961460,-19.608447523423,-10.6350901821955,-300.672093874935
738506.41154665627982467413,-19.6823023163549,-10.6720175786615,-300.718253120518
738506.41154674673452973366,-19.7653889584033,-10.7181768242439,-300.690557573168
738506.41154683718923479319,-19.8023163548692,-10.7274086733604,-300.681325724052
738506.41154692764393985271,-19.8484756004517,-10.7551042207099,-300.690557573168
738506.41154701809864491224,-19.8761711478011,-10.7643360698263,-300.727484969634
738506.41154710855334997177,-19.8854029969176,-10.7735679189428,-300.7644123661
738506.41154719889163970947,-19.8946348460341,-10.7735679189428,-300.709021271401
738506.41154728934634476900,-19.8946348460341,-10.7735679189428,-300.736716818751
738506.41154737980104982853,-19.9038666951506,-10.7827997680593,-300.736716818751
738506.41154747025575488806,-19.8946348460341,-10.7735679189428,-300.709021271401
738506.41154756071045994759,-19.9038666951506,-10.7920316171758,-300.7644123661
738506.41154765116516500711,-19.8854029969176,-10.7735679189428,-300.773644215217
738506.41154774161987006664,-19.8946348460341,-10.7920316171758,-300.690557573168
738506.41154783207457512617,-19.8854029969176,-10.7735679189428,-300.745948667867
738506.41154792241286486387,-19.8946348460341,-10.7827997680593,-300.755180516984
738506.41154801286756992340,-19.8854029969176,-10.7735679189428,-300.736716818751
738506.41154810332227498293,-19.8854029969176,-10.7827997680593,-300.709021271401
738506.41154819377698004246,-19.8761711478011,-10.7735679189428,-300.755180516984
738506.41154828423168510199,-19.8854029969176,-10.7735679189428,-300.7644123661
738506.41154837468639016151,-19.8854029969176,-10.7827997680593,-300.773644215217
738506.41154846514109522104,-19.8854029969176,-10.7735679189428,-300.736716818751
738506.41154855547938495874,-19.8854029969176,-10.7827997680593,-300.745948667867
738506.41154864593409001827,-19.8946348460341,-10.7920316171758,-300.7644123661
738506.41154873638879507780,-19.9130985442671,-10.8104953154088,-300.699789422285
738506.41154882684350013733,-19.9038666951506,-10.7735679189428,-300.635166478469
738506.41154891729820519686,-19.9315622425001,-10.8012634662923,-300.644398327586
738506.41154900775291025639,-19.9038666951506,-10.7827997680593,-300.662862025819
738506.41154909820761531591,-19.9315622425001,-10.8197271645253,-300.625934629353
738506.41154918866232037544,-19.9130985442671,-10.7735679189428,-300.653630176702
738506.41154927900061011314,-19.9223303933836,-10.7827997680593,-300.653630176702
738506.41154936945531517267,-19.9223303933836,-10.7643360698263,-300.727484969634
738506.41154945991002023220,-19.9407940916166,-10.8104953154088,-300.727484969634
738506.41154955036472529173,-19.9223303933836,-10.7735679189428,-300.672093874935
738506.41154964081943035126,-19.9407940916166,-10.7920316171758,-300.662862025819
738506.41154973127413541079,-19.9315622425001,-10.7735679189428,-300.718253120518
738506.41154982172884047031,-19.9407940916166,-10.8104953154088,-300.505920590838
738506.41154991206713020802,-19.9223303933836,-10.7920316171758,-300.561311685537
738506.41155000252183526754,-19.9407940916166,-10.7827997680593,-300.662862025819
738506.41155009297654032707,-19.9500259407331,-10.7643360698263,-300.718253120518
738506.41155018343124538660,-19.9315622425001,-10.7827997680593,-300.709021271401
738506.41155027388595044613,-19.9038666951506,-10.7551042207099,-300.736716818751
738506.41155036434065550566,-19.9500259407331,-10.8012634662923,-300.718253120518
738506.41155045479536056519,-19.9223303933836,-10.7735679189428,-300.7644123661
738506.41155054525006562471,-19.9407940916166,-10.8012634662923,-300.690557573168
738506.41155063558835536242,-19.9223303933836,-10.7735679189428,-300.709021271401
738506.41155072604306042194,-19.9407940916166,-10.7827997680593,-300.727484969634
738506.41155081649776548147,-19.9130985442671,-10.7458723715934,-300.727484969634
738506.41155090695247054100,-19.9130985442671,-10.7551042207099,-300.736716818751
738506.41155099740717560053,-19.8946348460341,-10.7458723715934,-300.745948667867
738506.41155108786188066006,-19.9407940916166,-10.7920316171758,-300.745948667867
738506.41155117831658571959,-19.9500259407331,-10.8012634662923,-300.7644123661
738506.41155126865487545729,-19.9777214880825,-10.8289590136418,-300.727484969634
738506.41155135910958051682,-19.9315622425001,-10.7827997680593,-300.782876064333
738506.41155144956428557634,-19.8946348460341,-10.7551042207099,-300.7644123661
738506.41155154001899063587,-19.9130985442671,-10.7827997680593,-300.782876064333
738506.41155163047369569540,-19.9315622425001,-10.8197271645253,-300.727484969634
738506.41155172092840075493,-19.986953337199,-10.8566545609912,-300.7644123661
738506.41155181138310581446,-19.9500259407331,-10.7920316171758,-300.755180516984
738506.41155190183781087399,-19.9500259407331,-10.8012634662923,-300.718253120518
738506.41155199217610061169,-19.9407940916166,-10.7827997680593,-300.773644215217
738506.41155208263080567122,-19.968489638966,-10.8381908627583,-300.79210791345
738506.41155217308551073074,-19.9407940916166,-10.8012634662923,-300.736716818751
738506.41155226354021579027,-19.9500259407331,-10.8012634662923,-300.745948667867
738506.41155235399492084980,-19.9592577898495,-10.8104953154088,-300.782876064333
738506.41155244444962590933,-19.9500259407331,-10.8197271645253,-300.755180516984
738506.41155253490433096886,-19.9223303933836,-10.7827997680593,-300.782876064333
738506.41155262535903602839,-19.9315622425001,-10.8104953154088,-300.773644215217
738506.41155271569732576609,-19.9315622425001,-10.7920316171758,-300.7644123661
738506.41155280615203082561,-19.8854029969176,-10.7181768242439,-300.709021271401
738506.41155289660673588514,-19.9038666951506,-10.7643360698263,-300.755180516984
738506.41155298706144094467,-19.968489638966,-10.8751182592242,-300.79210791345
738506.41155307751614600420,-19.9592577898495,-10.8197271645253,-300.727484969634
738506.41155316797085106373,-19.9223303933836,-10.7735679189428,-300.727484969634
738506.41155325842555612326,-19.8669392986847,-10.7920316171758,-300.598239082003
738506.41155334876384586096,-19.8300119022187,-10.7735679189428,-300.524384289071
738506.41155343921855092049,-19.8484756004517,-10.7827997680593,-300.57977538377
738506.41155352967325598001,-19.8207800531022,-10.7551042207099,-300.681325724052
738506.41155362012796103954,-19.8207800531022,-10.7458723715934,-300.690557573168
738506.41155371058266609907,-19.8115482039857,-10.7366405224769,-300.699789422285
738506.41155380103737115860,-19.8669392986847,-10.7551042207099,-300.699789422285
738506.41155389149207621813,-19.9223303933836,-10.7735679189428,-300.699789422285
738506.41155398194678127766,-19.968489638966,-10.8012634662923,-300.699789422285
738506.41155407228507101536,-19.9777214880825,-10.8012634662923,-300.718253120518
738506.41155416273977607489,-19.9777214880825,-10.7920316171758,-300.718253120518
738506.41155425319448113441,-19.986953337199,-10.8012634662923,-300.718253120518
738506.41155434364918619394,-19.9777214880825,-10.8012634662923,-300.709021271401
738506.41155443410389125347,-19.986953337199,-10.8104953154088,-300.718253120518
738506.41155452455859631300,-19.9777214880825,-10.8012634662923,-300.745948667867
738506.41155461501330137253,-19.986953337199,-10.8104953154088,-300.755180516984
738506.41155470535159111023,-19.968489638966,-10.7920316171758,-300.782876064333
738506.41155479580629616976,-19.9777214880825,-10.8104953154088,-300.755180516984
738506.41155488626100122929,-19.9592577898495,-10.7827997680593,-300.727484969634
738506.41155497671570628881,-20.023880733665,-10.7458723715934,-300.782876064333
738506.41155506717041134834,-19.8946348460341,-10.6535538804285,-300.755180516984
738506.41155515762511640787,-19.5622882778405,-10.5981627857295,-300.589007232887
738506.41155524807982146740,-19.0914639728996,-10.7089449751274,-300.653630176702
738506.41155533853452652693,-18.9345225379192,-10.9028138065737,-300.681325724052
738506.41155542887281626463,-19.2576372569964,-11.1243781853694,-300.7644123661
738506.41155551932752132416,-20.2639088106937,-11.1059144871364,-300.801339762566
738506.41155560978222638369,-20.2731406598102,-10.8104953154088,-300.801339762566
738506.41155570023693144321,-19.986953337199,-10.6720175786615,-300.773644215217
738506.41155579069163650274,-19.8577074495682,-10.7366405224769,-300.644398327586
738506.41155588114634156227,-19.8392437513352,-10.7551042207099,-300.736716818751
738506.41155597160104662180,-19.8761711478011,-10.7643360698263,-300.736716818751
738506.41155606193933635950,-19.8577074495682,-10.7274086733604,-300.718253120518
738506.41155615239404141903,-19.8761711478011,-10.7458723715934,-300.736716818751
738506.41155624284874647856,-19.8577074495682,-10.7274086733604,-300.7644123661
738506.41155633330345153809,-19.8669392986847,-10.7366405224769,-300.727484969634
738506.41155642375815659761,-19.8392437513352,-10.7181768242439,-300.699789422285
738506.41155651421286165714,-19.8392437513352,-10.7366405224769,-300.727484969634
738506.41155660466756671667,-19.8023163548692,-10.7089449751274,-300.736716818751
738506.41155669512227177620,-19.8207800531022,-10.7366405224769,-300.736716818751
738506.41155678546056151390,-19.7930845057527,-10.7089449751274,-300.755180516984
738506.41155687591526657343,-19.7930845057527,-10.7181768242439,-300.542847987304
738506.41155696636997163296,-19.7653889584033,-10.6997131260109,-300.635166478469
738506.41155705682467669249,-19.7838526566362,-10.7274086733604,-300.718253120518
738506.41155714727938175201,-19.7561571092868,-10.6904812768944,-300.727484969634
738506.41155723773408681154,-19.7469252601703,-10.6812494277779,-300.745948667867
738506.41155732818879187107,-19.7469252601703,-10.6997131260109,-300.755180516984
738506.41155741852708160877,-19.7099978637043,-10.662785729545,-300.681325724052
738506.41155750898178666830,-19.7099978637043,-10.6812494277779,-300.745948667867
738506.41155759943649172783,-19.6730704672384,-10.6350901821955,-300.589007232887
738506.41155768989119678736,-19.6730704672384,-10.644322031312,-300.60747093112
738506.41155778034590184689,-19.6269112216559,-10.5981627857295,-300.672093874935
738506.41155787080060690641,-19.5992156743065,-10.607394634846,-300.662862025819
738506.41155796125531196594,-19.5438245796075,-10.5612353892636,-300.616702780236
738506.41155805171001702547,-19.534592730491,-10.5704672383801,-300.60747093112
738506.41155814204830676317,-19.4699697866756,-10.5243079927976,-300.616702780236
738506.41155823250301182270,-19.4515060884426,-10.5243079927976,-300.635166478469
738506.41155832295771688223,-19.4053468428602,-10.5058442945647,-300.625934629353
738506.41155841341242194176,-19.3776512955107,-10.4966124454482,-300.653630176702
738506.41155850386712700129,-19.3684194463942,-10.4873805963317,-300.644398327586
738506.41155859432183206081,-19.3868831446272,-10.5150761436811,-300.653630176702
738506.41155868477653712034,-19.4330423902097,-10.5335398419141,-300.644398327586
738506.41155877523124217987,-19.5068971831416,-10.5704672383801,-300.653630176702
738506.41155886556953191757,-19.58998382519,-10.625858333079,-300.625934629353
738506.41155895602423697710,-19.6730704672384,-10.6535538804285,-300.644398327586
738506.41155904647894203663,-19.7376934110538,-10.6997131260109,-300.653630176702
738506.41155913693364709616,-19.7469252601703,-10.6997131260109,-300.681325724052
738506.41155922738835215569,-19.8115482039857,-10.7458723715934,-300.699789422285
738506.41155931784305721521,-19.8207800531022,-10.7274086733604,-300.690557573168
738506.41155940829776227474,-19.8761711478011,-10.7920316171758,-300.690557573168
738506.41155949863605201244,-19.8577074495682,-10.7366405224769,-300.672093874935
738506.41155958909075707197,-19.8854029969176,-10.7458723715934,-300.672093874935
738506.41155967954546213150,-19.8761711478011,-10.7458723715934,-300.672093874935
738506.41155977000016719103,-19.8854029969176,-10.7551042207099,-300.672093874935
738506.41155986045487225056,-19.8761711478011,-10.7551042207099,-300.672093874935
738506.41155995090957731009,-19.8854029969176,-10.7458723715934,-300.755180516984
738506.41156004136428236961,-19.8946348460341,-10.7458723715934,-300.755180516984
738506.41156013181898742914,-19.8761711478011,-10.7458723715934,-300.727484969634
738506.41156022215727716684,-19.8669392986847,-10.7458723715934,-300.773644215217
738506.41156031261198222637,-19.8484756004517,-10.7274086733604,-300.782876064333
738506.41156040306668728590,-19.8761711478011,-10.7643360698263,-300.589007232887
738506.41156049352139234543,-19.8761711478011,-10.7735679189428,-300.709021271401
738506.41156058397609740496,-19.9223303933836,-10.7735679189428,-300.7644123661
738506.41156067443080246449,-19.8946348460341,-10.7551042207099,-300.745948667867
738506.41156076488550752401,-19.8854029969176,-10.7458723715934,-300.7644123661
738506.41156085522379726171,-19.8761711478011,-10.7366405224769,-300.79210791345
738506.41156094567850232124,-19.8761711478011,-10.7458723715934,-300.782876064333
738506.41156103613320738077,-19.8392437513352,-10.7089449751274,-300.745948667867
738506.41156112658791244030,-19.7653889584033,-10.6535538804285,-300.773644215217
738506.41156121704261749983,-19.8946348460341,-10.7827997680593,-300.810571611682
738506.41156130749732255936,-19.8854029969176,-10.7274086733604,-300.727484969634
738506.41156139795202761889,-19.9315622425001,-10.7551042207099,-300.755180516984
738506.41156148840673267841,-19.9407940916166,-10.7827997680593,-300.801339762566
738506.41156157874502241611,-19.8669392986847,-10.7181768242439,-300.801339762566
738506.41156166919972747564,-19.8392437513352,-10.6997131260109,-300.727484969634
738506.41156175965443253517,-19.8392437513352,-10.662785729545,-300.699789422285
738506.41156185010913759470,-19.8577074495682,-10.6997131260109,-300.745948667867
738506.41156194056384265423,-20.1069673757134,-10.9397412030396,-300.718253120518
738506.41156203101854771376,-20.0792718283639,-10.9028138065737,-300.690557573168
738506.41156212147325277328,-20.023880733665,-10.8381908627583,-300.709021271401
738506.41156221181154251099,-19.968489638966,-10.7920316171758,-300.690557573168
738506.41156230226624757051,-19.9961851863155,-10.8197271645253,-300.690557573168
738506.41156239272095263004,-19.9777214880825,-10.7920316171758,-300.736716818751
738506.41156248317565768957,-19.9592577898495,-10.7827997680593,-300.7644123661
738506.41156257363036274910,-19.9407940916166,-10.7643360698263,-300.681325724052
738506.41156266408506780863,-20.005417035432,-10.8197271645253,-300.690557573168
738506.41156275453977286816,-19.9500259407331,-10.7735679189428,-300.699789422285
738506.41156284499447792768,-19.9407940916166,-10.7827997680593,-300.699789422285
738506.41156293533276766539,-19.9592577898495,-10.7735679189428,-300.644398327586
738506.41156302578747272491,-19.9407940916166,-10.7551042207099,-300.690557573168
738506.41156311624217778444,-19.9500259407331,-10.7643360698263,-300.745948667867
738506.41156320669688284397,-19.9223303933836,-10.7551042207099,-300.727484969634
738506.41156329715158790350,-19.9223303933836,-10.7458723715934,-300.745948667867
738506.41156338760629296303,-19.8854029969176,-10.6812494277779,-300.7644123661
738506.41156347806099802256,-19.8946348460341,-10.6904812768944,-300.7644123661
738506.41156356851570308208,-19.8854029969176,-10.6812494277779,-300.709021271401
738506.41156365885399281979,-19.8577074495682,-10.6904812768944,-300.773644215217
738506.41156374930869787931,-19.8854029969176,-10.7089449751274,-300.7644123661
738506.41156383976340293884,-19.9223303933836,-10.7458723715934,-300.662862025819
738506.41156393021810799837,-19.9038666951506,-10.7181768242439,-300.60747093112
738506.41156402067281305790,-19.9223303933836,-10.7735679189428,-300.662862025819
738506.41156411112751811743,-19.8854029969176,-10.7458723715934,-300.7644123661
738506.41156420158222317696,-19.9130985442671,-10.7551042207099,-300.709021271401
738506.41156429192051291466,-19.9315622425001,-10.7920316171758,-300.773644215217
738506.41156438237521797419,-19.9500259407331,-10.8012634662923,-300.745948667867
738506.41156447282992303371,-19.9223303933836,-10.7735679189428,-300.801339762566
738506.41156456328462809324,-19.9223303933836,-10.7735679189428,-300.718253120518
738506.41156465373933315277,-19.9130985442671,-10.7827997680593,-300.736716818751
738506.41156474419403821230,-19.9407940916166,-10.8012634662923,-300.801339762566
738506.41156483464874327183,-19.8761711478011,-10.7735679189428,-300.736716818751
738506.41156492510344833136,-19.8023163548692,-10.6812494277779,-300.755180516984
738506.41156501544173806906,-19.8484756004517,-10.7920316171758,-300.755180516984
738506.41156510589644312859,-19.8207800531022,-10.8197271645253,-300.801339762566
738506.41156519635114818811,-19.8761711478011,-10.8658864101077,-300.709021271401
738506.41156528680585324764,-19.8854029969176,-10.8289590136418,-300.801339762566
738506.41156537726055830717,-19.9407940916166,-10.8474227118748,-300.810571611682
738506.41156546771526336670,-19.8484756004517,-10.7551042207099,-300.727484969634
738506.41156555816996842623,-19.8577074495682,-10.7458723715934,-300.755180516984
738506.41156564850825816393,-20.005417035432,-10.8843501083407,-300.782876064333
738506.41156573896296322346,-20.0608081301309,-10.8843501083407,-300.755180516984
738506.41156582941766828299,-19.9961851863155,-10.7920316171758,-300.801339762566
738506.41156591987237334251,-19.9961851863155,-10.8012634662923,-300.755180516984
738506.41156601032707840204,-19.9223303933836,-10.7181768242439,-300.755180516984
738506.41156610078178346157,-19.986953337199,-10.7827997680593,-300.745948667867
738506.41156619123648852110,-20.0792718283639,-10.8751182592242,-300.736716818751
738506.41156628169119358063,-20.0146488845485,-10.7920316171758,-300.745948667867
738506.41156637202948331833,-20.0146488845485,-10.8289590136418,-300.699789422285
738506.41156646248418837786,-19.9500259407331,-10.7735679189428,-300.709021271401
738506.41156655293889343739,-20.0515762810144,-10.8658864101077,-300.709021271401
738506.41156664339359849691,-20.0608081301309,-10.8566545609912,-300.718253120518
738506.41156673384830355644,-20.0977355265969,-10.8289590136418,-300.699789422285
738506.41156682430300861597,-19.8761711478011,-10.6812494277779,-300.662862025819
738506.41156691475771367550,-19.3868831446272,-10.5427716910306,-300.60747093112
738506.41156700509600341320,-19.0360728782006,-10.7181768242439,-300.57977538377
738506.41156709555070847273,-19.0545365764336,-11.09668263802,-300.653630176702
738506.41156718600541353226,-20.1992858668783,-11.1797692800684,-300.810571611682
738506.41156727646011859179,-20.4854731894894,-10.9674367503891,-300.7644123661
738506.41156736691482365131,-20.2269814142277,-10.7920316171758,-300.709021271401
738506.41156745736952871084,-19.986953337199,-10.7643360698263,-300.561311685537
738506.41156754782423377037,-19.8761711478011,-10.7458723715934,-300.589007232887
738506.41156763827893882990,-19.9315622425001,-10.7735679189428,-300.681325724052
738506.41156772861722856760,-19.9407940916166,-10.7920316171758,-300.690557573168
738506.41156781907193362713,-19.9592577898495,-10.8197271645253,-300.727484969634
738506.41156790952663868666,-19.9407940916166,-10.8012634662923,-300.718253120518
738506.41156799998134374619,-19.9592577898495,-10.8012634662923,-300.727484969634
738506.41156809043604880571,-19.9315622425001,-10.7920316171758,-300.727484969634
738506.41156818089075386524,-19.9038666951506,-10.7643360698263,-300.755180516984
738506.41156827134545892477,-19.8854029969176,-10.7920316171758,-300.690557573168
738506.41156836168374866247,-19.8392437513352,-10.7366405224769,-300.79210791345
738506.41156845213845372200,-19.9407940916166,-10.8381908627583,-300.773644215217
738506.41156854259315878153,-19.8946348460341,-10.7920316171758,-300.773644215217
738506.41156863304786384106,-19.8300119022187,-10.7458723715934,-300.745948667867
738506.41156872350256890059,-19.8392437513352,-10.7551042207099,-300.755180516984
738506.41156881395727396011,-19.8854029969176,-10.7827997680593,-300.755180516984
738506.41156890441197901964,-19.8300119022187,-10.7458723715934,-300.672093874935
738506.41156899486668407917,-19.7653889584033,-10.6997131260109,-300.755180516984
738506.41156908520497381687,-19.8207800531022,-10.7551042207099,-300.736716818751
738506.41156917565967887640,-19.7930845057527,-10.6997131260109,-300.718253120518
738506.41156926611438393593,-19.7561571092868,-10.662785729545,-300.709021271401
738506.41156935656908899546,-19.7930845057527,-10.7274086733604,-300.7644123661
738506.41156944702379405499,-19.7007660145878,-10.662785729545,-300.727484969634
738506.41156953747849911451,-19.7376934110538,-10.7089449751274,-300.690557573168
738506.41156962793320417404,-19.6730704672384,-10.6720175786615,-300.709021271401
738506.41156971838790923357,-19.6176793725394,-10.6166264839625,-300.727484969634
738506.41156980872619897127,-19.5622882778405,-10.5796990874966,-300.644398327586
738506.41156989918090403080,-19.4515060884426,-10.5150761436811,-300.718253120518
738506.41156998963560909033,-19.5807519760735,-10.644322031312,-300.644398327586
738506.41157008009031414986,-19.4792016357921,-10.5704672383801,-300.644398327586
738506.41157017054501920938,-19.4330423902097,-10.5335398419141,-300.616702780236
738506.41157026099972426891,-19.534592730491,-10.6535538804285,-300.598239082003
738506.41157035145442932844,-19.571520126957,-10.6720175786615,-300.644398327586
738506.41157044179271906614,-19.5807519760735,-10.662785729545,-300.635166478469
738506.41157053224742412567,-19.6269112216559,-10.6535538804285,-300.672093874935
738506.41157062270212918520,-19.7099978637043,-10.7089449751274,-300.672093874935
738506.41157071315683424473,-19.8207800531022,-10.7551042207099,-300.79210791345
738506.41157080361153930426,-19.8484756004517,-10.7366405224769,-300.709021271401
738506.41157089406624436378,-19.8484756004517,-10.7274086733604,-300.745948667867
738506.41157098452094942331,-19.8854029969176,-10.7551042207099,-300.690557573168
738506.41157107497565448284,-19.968489638966,-10.8104953154088,-300.727484969634
738506.41157116531394422054,-19.9315622425001,-10.7551042207099,-300.810571611682
738506.41157125576864928007,-19.9777214880825,-10.7920316171758,-300.755180516984
738506.41157134622335433960,-19.9961851863155,-10.8012634662923,-300.727484969634
738506.41157143667805939913,-19.9223303933836,-10.7366405224769,-300.727484969634
738506.41157152713276445866,-20.005417035432,-10.8197271645253,-300.672093874935
738506.41157161758746951818,-19.986953337199,-10.8104953154088,-300.718253120518
738506.41157170804217457771,-19.968489638966,-10.7735679189428,-300.736716818751
738506.41157179838046431541,-19.9961851863155,-10.8104953154088,-300.727484969634
738506.41157188883516937494,-19.9592577898495,-10.7366405224769,-300.718253120518
738506.41157197928987443447,-19.968489638966,-10.7920316171758,-300.810571611682
738506.41157206974457949400,-19.9315622425001,-10.7366405224769,-300.801339762566
738506.41157216019928455353,-19.9961851863155,-10.8012634662923,-300.745948667867
738506.41157225065398961306,-20.005417035432,-10.8012634662923,-300.782876064333
738506.41157234110869467258,-20.005417035432,-10.8289590136418,-300.79210791345
738506.41157243156339973211,-19.9407940916166,-10.7827997680593,-300.79210791345
738506.41157252190168946981,-19.986953337199,-10.7735679189428,-300.727484969634
738506.41157261235639452934,-19.9315622425001,-10.7181768242439,-300.801339762566
738506.41157270281109958887,-19.9777214880825,-10.7643360698263,-300.79210791345
738506.41157279326580464840,-19.9038666951506,-10.6997131260109,-300.718253120518
738506.41157288372050970793,-19.9961851863155,-10.8012634662923,-300.782876064333
738506.41157297417521476746,-20.0515762810144,-10.8474227118748,-300.810571611682
738506.41157306462991982698,-19.986953337199,-10.7735679189428,-300.801339762566
738506.41157315496820956469,-20.005417035432,-10.8104953154088,-300.718253120518
738506.41157324542291462421,-19.9777214880825,-10.7735679189428,-300.755180516984
738506.41157333587761968374,-19.986953337199,-10.7735679189428,-300.7644123661
738506.41157342633232474327,-20.0423444318979,-10.8104953154088,-300.709021271401
738506.41157351678702980280,-20.0146488845485,-10.7920316171758,-300.773644215217
738506.41157360724173486233,-19.9961851863155,-10.7735679189428,-300.773644215217
738506.41157369769643992186,-19.986953337199,-10.7458723715934,-300.727484969634
738506.41157378815114498138,-19.9961851863155,-10.7643360698263,-300.727484969634
738506.41157387848943471909,-20.005417035432,-10.7735679189428,-300.7644123661
738506.41157396894413977861,-20.0331125827815,-10.7827997680593,-300.782876064333
738506.41157405939884483814,-19.986953337199,-10.7458723715934,-300.755180516984
738506.41157414985354989767,-19.9592577898495,-10.7181768242439,-300.7644123661
738506.41157424030825495720,-20.0146488845485,-10.7643360698263,-300.773644215217
738506.41157433076296001673,-20.0331125827815,-10.7920316171758,-300.773644215217
738506.41157442121766507626,-19.9777214880825,-10.7551042207099,-300.718253120518
738506.41157451167237013578,-20.0515762810144,-10.8289590136418,-300.699789422285
738506.41157460201065987349,-20.005417035432,-10.7551042207099,-300.653630176702
738506.41157469246536493301,-20.005417035432,-10.7827997680593,-300.690557573168
738506.41157478292006999254,-19.9315622425001,-10.7181768242439,-300.755180516984
738506.41157487337477505207,-19.9961851863155,-10.7735679189428,-300.745948667867
738506.41157496382948011160,-20.0792718283639,-10.8197271645253,-300.736716818751
738506.41157505428418517113,-20.023880733665,-10.7920316171758,-300.745948667867
738506.41157514473889023066,-19.986953337199,-10.7735679189428,-300.736716818751
738506.41157523507717996836,-20.0331125827815,-10.8104953154088,-300.690557573168
738506.41157532553188502789,-19.968489638966,-10.7181768242439,-300.699789422285
738506.41157541598659008741,-20.0423444318979,-10.7643360698263,-300.718253120518
738506.41157550644129514694,-19.9592577898495,-10.7274086733604,-300.718253120518
738506.41157559689600020647,-19.968489638966,-10.7366405224769,-300.672093874935
738506.41157568735070526600,-20.0608081301309,-10.8012634662923,-300.782876064333
738506.41157577780541032553,-20.0146488845485,-10.7827997680593,-300.755180516984
738506.41157586826011538506,-19.9315622425001,-10.7181768242439,-300.718253120518
738506.41157595859840512276,-19.986953337199,-10.7920316171758,-300.709021271401
738506.41157604905311018229,-19.9592577898495,-10.8012634662923,-300.699789422285
738506.41157613950781524181,-19.8854029969176,-10.7827997680593,-300.745948667867
738506.41157622996252030134,-19.8300119022187,-10.7551042207099,-300.718253120518
738506.41157632041722536087,-19.8392437513352,-10.7551042207099,-300.782876064333
738506.41157641087193042040,-19.8023163548692,-10.7366405224769,-300.773644215217
738506.41157650132663547993,-19.8300119022187,-10.6997131260109,-300.755180516984
738506.41157659166492521763,-19.8946348460341,-10.7181768242439,-300.690557573168
738506.41157668211963027716,-19.9407940916166,-10.7366405224769,-300.79210791345
738506.41157677257433533669,-19.968489638966,-10.7181768242439,-300.773644215217
738506.41157686302904039621,-19.968489638966,-10.6997131260109,-300.773644215217
738506.41157695348374545574,-20.1069673757134,-10.8381908627583,-300.801339762566
738506.41157704393845051527,-20.0146488845485,-10.7551042207099,-300.819803460799
738506.41157713439315557480,-20.0423444318979,-10.7643360698263,-300.79210791345
738506.41157722484786063433,-20.0331125827815,-10.7735679189428,-300.773644215217
738506.41157731518615037203,-20.005417035432,-10.6997131260109,-300.755180516984
738506.41157740564085543156,-20.005417035432,-10.7366405224769,-300.773644215217
738506.41157749609556049109,-20.023880733665,-10.7458723715934,-300.745948667867
738506.41157758655026555061,-19.9500259407331,-10.662785729545,-300.7644123661
738506.41157767700497061014,-19.968489638966,-10.6812494277779,-300.745948667867
738506.41157776745967566967,-20.1161992248299,-10.7366405224769,-300.727484969634
738506.41157785791438072920,-20.0515762810144,-10.6812494277779,-300.745948667867
738506.41157794825267046690,-19.7469252601703,-10.6166264839625,-300.672093874935
738506.41157803870737552643,-19.1283913693655,-10.607394634846,-300.57977538377
738506.41157812916208058596,-18.7314218573565,-10.8843501083407,-300.505920590838
738506.41157821961678564548,-19.156086916715,-11.0043641468551,-300.690557573168
738506.41157831007149070501,-20.3008362071596,-10.8935819574572,-300.79210791345
738506.41157840052619576454,-20.3008362071596,-10.7089449751274,-300.709021271401
738506.41157849098090082407,-19.986953337199,-10.6720175786615,-300.736716818751
738506.41157858143560588360,-19.8854029969176,-10.7366405224769,-300.736716818751
738506.41157867177389562130,-19.8854029969176,-10.6904812768944,-300.699789422285
738506.41157876222860068083,-19.9315622425001,-10.6997131260109,-300.745948667867
738506.41157885268330574036,-19.9130985442671,-10.6904812768944,-300.662862025819
738506.41157894313801079988,-19.9038666951506,-10.6812494277779,-300.662862025819
738506.41157903359271585941,-19.8946348460341,-10.6720175786615,-300.672093874935
738506.41157912404742091894,-19.9038666951506,-10.7181768242439,-300.727484969634
738506.41157921450212597847,-19.8946348460341,-10.6904812768944,-300.690557573168
738506.41157930484041571617,-19.8669392986847,-10.6812494277779,-300.699789422285
738506.41157939529512077570,-19.8854029969176,-10.6904812768944,-300.672093874935
738506.41157948574982583523,-19.8761711478011,-10.6904812768944,-300.662862025819
738506.41157957620453089476,-19.8669392986847,-10.662785729545,-300.672093874935
738506.41157966665923595428,-19.8207800531022,-10.6812494277779,-300.616702780236
738506.41157975711394101381,-19.8392437513352,-10.6904812768944,-300.635166478469
738506.41157984756864607334,-19.8392437513352,-10.6904812768944,-300.635166478469
738506.41157993802335113287,-19.8115482039857,-10.6812494277779,-300.699789422285
738506.41158002836164087057,-19.8023163548692,-10.6997131260109,-300.672093874935
738506.41158011881634593010,-19.7746208075198,-10.6812494277779,-300.653630176702
738506.41158020927105098963,-19.7284615619373,-10.6166264839625,-300.709021271401
738506.41158029972575604916,-19.7099978637043,-10.625858333079,-300.709021271401
738506.41158039018046110868,-19.7469252601703,-10.6812494277779,-300.672093874935
738506.41158048063516616821,-19.6915341654714,-10.662785729545,-300.699789422285
738506.41158057108987122774,-19.6269112216559,-10.5889309366131,-300.672093874935
738506.41158066154457628727,-19.5807519760735,-10.5889309366131,-300.681325724052
738506.41158075188286602497,-19.5807519760735,-10.607394634846,-300.727484969634
738506.41158084233757108450,-19.5161290322581,-10.5889309366131,-300.681325724052
738506.41158093279227614403,-19.4515060884426,-10.5704672383801,-300.681325724052
738506.41158102324698120356,-19.3591875972777,-10.5335398419141,-300.690557573168
738506.41158111370168626308,-19.4238105410932,-10.5796990874966,-300.699789422285
738506.41158120415639132261,-19.4053468428602,-10.6166264839625,-300.60747093112
738506.41158129461109638214,-19.3868831446272,-10.5981627857295,-300.672093874935
738506.41158138494938611984,-19.3591875972777,-10.5704672383801,-300.662862025819
738506.41158147540409117937,-19.3961149937437,-10.5150761436811,-300.644398327586
738506.41158156585879623890,-19.534592730491,-10.6166264839625,-300.625934629353
738506.41158165631350129843,-19.5438245796075,-10.5889309366131,-300.57977538377
738506.41158174676820635796,-19.6915341654714,-10.644322031312,-300.7644123661
738506.41158183722291141748,-19.7930845057527,-10.6997131260109,-300.690557573168
738506.41158192767761647701,-19.8023163548692,-10.662785729545,-300.745948667867
738506.41158201813232153654,-19.8669392986847,-10.6997131260109,-300.7644123661
738506.41158210847061127424,-19.9223303933836,-10.6997131260109,-300.699789422285
738506.41158219892531633377,-19.9315622425001,-10.7181768242439,-300.745948667867
738506.41158228938002139330,-19.9038666951506,-10.6812494277779,-300.819803460799
738506.41158237983472645283,-19.9130985442671,-10.6904812768944,-300.727484969634
738506.41158247028943151236,-19.9315622425001,-10.7089449751274,-300.7644123661
738506.41158256074413657188,-19.9315622425001,-10.7089449751274,-300.7644123661
738506.41158265119884163141,-19.8577074495682,-10.607394634846,-300.773644215217
738506.41158274153713136911,-19.9500259407331,-10.7366405224769,-300.727484969634
738506.41158283199183642864,-20.023880733665,-10.7735679189428,-300.810571611682
738506.41158292244654148817,-19.8761711478011,-10.6535538804285,-300.782876064333
738506.41158301290124654770,-19.9777214880825,-10.7551042207099,-300.755180516984
738506.41158310335595160723,-20.005417035432,-10.7551042207099,-300.745948667867
738506.41158319381065666676,-19.9223303933836,-10.6997131260109,-300.727484969634
738506.41158328426536172628,-19.9407940916166,-10.6904812768944,-300.709021271401
738506.41158337472006678581,-19.9592577898495,-10.7181768242439,-300.718253120518
738506.41158346505835652351,-19.9592577898495,-10.6997131260109,-300.727484969634
738506.41158355551306158304,-19.9407940916166,-10.6997131260109,-300.709021271401
738506.41158364596776664257,-19.9407940916166,-10.6720175786615,-300.718253120518
738506.41158373642247170210,-19.9407940916166,-10.6997131260109,-300.699789422285
738506.41158382687717676163,-19.9038666951506,-10.6535538804285,-300.801339762566
738506.41158391733188182116,-19.8946348460341,-10.6535538804285,-300.727484969634
738506.41158400778658688068,-19.968489638966,-10.7274086733604,-300.736716818751
738506.41158409812487661839,-19.9592577898495,-10.6997131260109,-300.690557573168
738506.41158418857958167791,-19.9038666951506,-10.662785729545,-300.709021271401
738506.41158427903428673744,-20.005417035432,-10.7366405224769,-300.745948667867
738506.41158436948899179697,-19.9961851863155,-10.7089449751274,-300.727484969634
738506.41158445994369685650,-20.023880733665,-10.7274086733604,-300.745948667867
738506.41158455039840191603,-19.9592577898495,-10.6997131260109,-300.755180516984
738506.41158464085310697556,-19.968489638966,-10.6904812768944,-300.736716818751
738506.41158473130781203508,-19.9407940916166,-10.662785729545,-300.709021271401
738506.41158482164610177279,-19.9315622425001,-10.644322031312,-300.727484969634
738506.41158491210080683231,-19.986953337199,-10.7366405224769,-300.736716818751
738506.41158500255551189184,-19.9130985442671,-10.6350901821955,-300.709021271401
738506.41158509301021695137,-20.0331125827815,-10.7274086733604,-300.589007232887
738506.41158518346492201090,-20.005417035432,-10.7089449751274,-300.718253120518
738506.41158527391962707043,-19.986953337199,-10.6812494277779,-300.709021271401
738506.41158536437433212996,-19.9777214880825,-10.662785729545,-300.727484969634
738506.41158545482903718948,-19.986953337199,-10.6904812768944,-300.801339762566
738506.41158554516732692719,-19.9500259407331,-10.6904812768944,-300.7644123661
738506.41158563562203198671,-19.9592577898495,-10.644322031312,-300.727484969634
738506.41158572607673704624,-20.0146488845485,-10.6904812768944,-300.699789422285
738506.41158581653144210577,-19.986953337199,-10.6720175786615,-300.690557573168
738506.41158590698614716530,-19.9777214880825,-10.6904812768944,-300.681325724052
738506.41158599744085222483,-20.0331125827815,-10.7458723715934,-300.690557573168
738506.41158608789555728436,-20.0331125827815,-10.7366405224769,-300.736716818751
738506.41158617823384702206,-19.9961851863155,-10.6904812768944,-300.736716818751
738506.41158626868855208158,-19.9961851863155,-10.7181768242439,-300.7644123661
738506.41158635914325714111,-19.9961851863155,-10.7089449751274,-300.79210791345
738506.41158644959796220064,-19.9961851863155,-10.6904812768944,-300.810571611682
738506.41158654005266726017,-19.968489638966,-10.6350901821955,-300.773644215217
738506.41158663050737231970,-20.005417035432,-10.7089449751274,-300.7644123661
738506.41158672096207737923,-19.8392437513352,-10.5796990874966,-300.782876064333
738506.41158681141678243876,-19.8669392986847,-10.6812494277779,-300.755180516984
738506.41158690175507217646,-19.8669392986847,-10.7366405224769,-300.819803460799
738506.41158699220977723598,-19.8484756004517,-10.6904812768944,-300.801339762566
738506.41158708266448229551,-19.8392437513352,-10.662785729545,-300.7644123661
738506.41158717311918735504,-19.8854029969176,-10.6997131260109,-300.7644123661
738506.41158726357389241457,-19.8669392986847,-10.6812494277779,-300.810571611682
738506.41158735402859747410,-19.8946348460341,-10.6535538804285,-300.690557573168
738506.41158744448330253363,-19.9592577898495,-10.6904812768944,-300.690557573168
738506.41158753482159227133,-20.005417035432,-10.6535538804285,-300.699789422285
738506.41158762527629733086,-20.0423444318979,-10.7089449751274,-300.699789422285
738506.41158771573100239038,-20.0515762810144,-10.7089449751274,-300.727484969634
738506.41158780618570744991,-20.0146488845485,-10.6535538804285,-300.709021271401
738506.41158789664041250944,-20.0608081301309,-10.6812494277779,-300.718253120518
738506.41158798709511756897,-20.0515762810144,-10.6997131260109,-300.699789422285
738506.41158807754982262850,-20.0423444318979,-10.6535538804285,-300.782876064333
738506.41158816800452768803,-20.0515762810144,-10.6997131260109,-300.773644215217
738506.41158825834281742573,-20.0515762810144,-10.7089449751274,-300.782876064333
738506.41158834879752248526,-20.0885036774804,-10.7366405224769,-300.727484969634
738506.41158843925222754478,-20.0608081301309,-10.662785729545,-300.699789422285
738506.41158852970693260431,-20.1346629230628,-10.6720175786615,-300.699789422285
738506.41158862016163766384,-19.9223303933836,-10.5520035401471,-300.515152439955
738506.41158871061634272337,-19.3776512955107,-10.5335398419141,-300.515152439955
738506.41158880107104778290,-18.8791314432203,-10.7735679189428,-300.625934629353
738506.41158889140933752060,-18.759117404706,-10.9674367503891,-300.625934629353
738506.41158898186404258013,-19.968489638966,-10.9489730521561,-300.745948667867
738506.41158907231874763966,-20.402386547441,-10.7920316171758,-300.79210791345
738506.41158916277345269918,-20.3192999053926,-10.7458723715934,-300.727484969634
738506.41158925322815775871,-19.968489638966,-10.7181768242439,-300.745948667867
738506.41158934368286281824,-19.9223303933836,-10.7181768242439,-300.681325724052
738506.41158943413756787777,-19.968489638966,-10.7181768242439,-300.745948667867
738506.41158952459227293730,-20.0146488845485,-10.7551042207099,-300.755180516984
738506.41158961493056267500,-19.9592577898495,-10.6904812768944,-300.782876064333
738506.41158970538526773453,-19.9961851863155,-10.7458723715934,-300.755180516984
738506.41158979583997279406,-19.9777214880825,-10.7089449751274,-300.736716818751
738506.41158988629467785358,-19.986953337199,-10.7458723715934,-300.736716818751
738506.41158997674938291311,-19.9315622425001,-10.6812494277779,-300.718253120518
738506.41159006720408797264,-19.9777214880825,-10.7551042207099,-300.736716818751
738506.41159015765879303217,-19.9500259407331,-10.7274086733604,-300.7644123661
738506.41159024799708276987,-19.9407940916166,-10.7551042207099,-300.690557573168
738506.41159033845178782940,-19.9315622425001,-10.7735679189428,-300.653630176702
